Vout,Iout,Irradiance,Temperature,MaxVoltage,MaxPower
0.004393307756656186,0.87867,751,10,20.819460467957217,17.860340730227794
0.013179842033550035,0.87867,751,10,20.819460467957217,17.860340730227794
0.021966197682405902,0.8786655188252432,751,10,20.819460467957217,17.860340730227794
0.03075234279138396,0.8786567322909664,751,10,20.819460467957217,17.860340730227794
0.03953826693114132,0.8786479459357657,751,10,20.819460467957217,17.860340730227794
0.048323980346607814,0.8786391597915353,751,10,20.819460467957217,17.860340730227794
0.05710949249481183,0.8786303738682743,751,10,20.819460467957217,17.860340730227794
0.06589481210530801,0.8786215881557373,751,10,20.819460467957217,17.860340730227794
0.07467994723605294,0.8786128026444677,751,10,20.819460467957217,17.860340730227794
0.08346490532507891,0.8786040173257358,751,10,20.819460467957217,17.860340730227794
0.09224969323819189,0.8785952321914836,751,10,20.819460467957217,17.860340730227794
0.10103431731299944,0.8785864472342731,751,10,20.819460467957217,17.860340730227794
0.1098187833995512,0.8785776624472386,751,10,20.819460467957217,17.860340730227794
0.11860309689785244,0.8785688778240422,751,10,20.819460467957217,17.860340730227794
0.12738726279249094,0.8785600933588341,751,10,20.819460467957217,17.860340730227794
0.13617128568460013,0.8785513090462144,751,10,20.819460467957217,17.860340730227794
0.14495516982136247,0.8785425248811981,751,10,20.819460467957217,17.860340730227794
0.1537389191232431,0.8785337408591845,751,10,20.819460467957217,17.860340730227794
0.16252253720912796,0.8785249569759261,751,10,20.819460467957217,17.860340730227794
0.17130602741952783,0.8785161732275026,751,10,20.819460467957217,17.860340730227794
0.18008939283799674,0.8785073896102952,751,10,20.819460467957217,17.860340730227794
0.18887263631090281,0.8784986061209631,751,10,20.819460467957217,17.860340730227794
0.19765576046567776,0.878489822756423,751,10,20.819460467957217,17.860340730227794
0.20643876772766204,0.8784810395138284,751,10,20.819460467957217,17.860340730227794
0.21522166033565412,0.878472256390552,751,10,20.819460467957217,17.860340730227794
0.22400444035626338,0.8784634733841683,751,10,20.819460467957217,17.860340730227794
0.23278710969715855,0.8784546904924386,751,10,20.819460467957217,17.860340730227794
0.24156967011929686,0.8784459077132963,751,10,20.819460467957217,17.860340730227794
0.25035212324821227,0.8784371250448337,751,10,20.819460467957217,17.860340730227794
0.2591344705844352,0.8784283424852899,751,10,20.819460467957217,17.860340730227794
0.26791671351311014,0.8784195600330392,751,10,20.819460467957217,17.860340730227794
0.27669885331287436,0.8784107776865813,751,10,20.819460467957217,17.860340730227794
0.2854808911640519,0.8784019954445308,751,10,20.819460467957217,17.860340730227794
0.29426282815621874,0.8783932133056093,751,10,20.819460467957217,17.860340730227794
0.3030446652951843,0.8783844312686363,751,10,20.819460467957217,17.860340730227794
0.3118264035094373,0.8783756493325224,751,10,20.819460467957217,17.860340730227794
0.32060804365609435,0.8783668674962617,751,10,20.819460467957217,17.860340730227794
0.3293895865263919,0.8783580857589256,751,10,20.819460467957217,17.860340730227794
0.3381710328507548,0.8783493041196571,751,10,20.819460467957217,17.860340730227794
0.34695238330347544,0.8783405225776649,751,10,20.819460467957217,17.860340730227794
0.3557336385070326,0.8783317411322188,751,10,20.819460467957217,17.860340730227794
0.36451479903607825,0.8783229597826442,751,10,20.819460467957217,17.860340730227794
0.37329586542111703,0.8783141785283188,751,10,20.819460467957217,17.860340730227794
0.3820768381519034,0.8783053973686679,751,10,20.819460467957217,17.860340730227794
0.39085771768057676,0.878296616303161,751,10,20.819460467957217,17.860340730227794
0.39963850442455573,0.8782878353313083,751,10,20.819460467957217,17.860340730227794
0.4084191987692097,0.8782790544526577,751,10,20.819460467957217,17.860340730227794
0.4171998010703245,0.8782702736667919,751,10,20.819460467957217,17.860340730227794
0.425980311656379,0.8782614929733253,751,10,20.819460467957217,17.860340730227794
0.4347607308306457,0.8782527123719023,751,10,20.819460467957217,17.860340730227794
0.4435410588731304,0.8782439318621943,751,10,20.819460467957217,17.860340730227794
0.45232129604236226,0.8782351514438981,751,10,20.819460467957217,17.860340730227794
0.46110144257704644,0.8782263711167336,751,10,20.819460467957217,17.860340730227794
0.4698814986975894,0.8782175908804425,751,10,20.819460467957217,17.860340730227794
0.47866146460750625,0.8782088107347857,751,10,20.819460467957217,17.860340730227794
0.48744134049472143,0.8782000306795432,751,10,20.819460467957217,17.860340730227794
0.49622112653276707,0.8781912507145113,751,10,20.819460467957217,17.860340730227794
0.5050008228818915,0.8781824708395022,751,10,20.819460467957217,17.860340730227794
0.5137804296900806,0.8781736910543421,751,10,20.819460467957217,17.860340730227794
0.5225599470940013,0.878164911358871,751,10,20.819460467957217,17.860340730227794
0.5313393752198731,0.8781561317529407,751,10,20.819460467957217,17.860340730227794
0.5401187141842712,0.8781473522364148,751,10,20.819460467957217,17.860340730227794
0.5488979640948688,0.8781385728091669,751,10,20.819460467957217,17.860340730227794
0.5576771250511221,0.8781297934710804,751,10,20.819460467957217,17.860340730227794
0.5664561971449028,0.8781210142220478,751,10,20.819460467957217,17.860340730227794
0.5752351804610808,0.8781122350619694,751,10,20.819460467957217,17.860340730227794
0.5840140750780639,0.8781034559907537,751,10,20.819460467957217,17.860340730227794
0.5927928810682944,0.8780946770083153,751,10,20.819460467957217,17.860340730227794
0.6015715984987084,0.8780858981145763,751,10,20.819460467957217,17.860340730227794
0.6103502274311594,0.878077119309464,751,10,20.819460467957217,17.860340730227794
0.619128767922809,0.8780683405929114,751,10,20.819460467957217,17.860340730227794
0.6279072200264886,0.8780595619648569,751,10,20.819460467957217,17.860340730227794
0.6366855837910318,0.8780507834252431,751,10,20.819460467957217,17.860340730227794
0.6454638592615827,0.8780420049740173,751,10,20.819460467957217,17.860340730227794
0.654242046479879,0.8780332266111306,751,10,20.819460467957217,17.860340730227794
0.6630201454845149,0.8780244483365379,751,10,20.819460467957217,17.860340730227794
0.6717981563111828,0.8780156701501974,751,10,20.819460467957217,17.860340730227794
0.6805760789928956,0.8780068920520706,751,10,20.819460467957217,17.860340730227794
0.6893539135601946,0.8779981140421218,751,10,20.819460467957217,17.860340730227794
0.6981316600413378,0.8779893361203178,751,10,20.819460467957217,17.860340730227794
0.706909318462477,0.8779805582866284,751,10,20.819460467957217,17.860340730227794
0.7156868888478194,0.877971780541025,751,10,20.819460467957217,17.860340730227794
0.7244643712197768,0.8779630028834816,751,10,20.819460467957217,17.860340730227794
0.7332417655991048,0.877954225313974,751,10,20.819460467957217,17.860340730227794
0.7420190720050284,0.8779454478324799,751,10,20.819460467957217,17.860340730227794
0.7507962904553619,0.8779366704389783,751,10,20.819460467957217,17.860340730227794
0.7595734209666156,0.8779278931334501,751,10,20.819460467957217,17.860340730227794
0.7683504635540979,0.8779191159158776,751,10,20.819460467957217,17.860340730227794
0.7771274182320063,0.877910338786244,751,10,20.819460467957217,17.860340730227794
0.7859042850135133,0.8779015617445343,751,10,20.819460467957217,17.860340730227794
0.7946810639108458,0.8778927847907341,751,10,20.819460467957217,17.860340730227794
0.8034577549353566,0.8778840079248302,751,10,20.819460467957217,17.860340730227794
0.8122343580975938,0.8778752311468107,751,10,20.819460467957217,17.860340730227794
0.82101087340736,0.8778664544566638,751,10,20.819460467957217,17.860340730227794
0.8297873008737723,0.8778576778543793,751,10,20.819460467957217,17.860340730227794
0.8385636405053127,0.8778489013399472,751,10,20.819460467957217,17.860340730227794
0.8473398923098792,0.8778401249133584,751,10,20.819460467957217,17.860340730227794
0.8561160562948286,0.8778313485746045,751,10,20.819460467957217,17.860340730227794
0.8648921324670198,0.8778225723236776,751,10,20.819460467957217,17.860340730227794
0.8736681208328507,0.8778137961605703,751,10,20.819460467957217,17.860340730227794
0.8824440213982955,0.8778050200852757,751,10,20.819460467957217,17.860340730227794
0.8912198341689352,0.8777962440977874,751,10,20.819460467957217,17.860340730227794
0.8999955591499899,0.8777874681980996,751,10,20.819460467957217,17.860340730227794
0.9087711963463444,0.8777786923862066,751,10,20.819460467957217,17.860340730227794
0.9175467457625758,0.8777699166621031,751,10,20.819460467957217,17.860340730227794
0.9263222074029763,0.8777611410257844,751,10,20.819460467957217,17.860340730227794
0.935097581271576,0.8777523654772457,751,10,20.819460467957217,17.860340730227794
0.9438728673721614,0.8777435900164828,751,10,20.819460467957217,17.860340730227794
0.9526480657082954,0.8777348146434918,751,10,20.819460467957217,17.860340730227794
0.9614231762833347,0.8777260393582688,751,10,20.819460467957217,17.860340730227794
0.970198199100445,0.8777172641608102,751,10,20.819460467957217,17.860340730227794
0.9789731341626158,0.8777084890511127,751,10,20.819460467957217,17.860340730227794
0.9877479814726737,0.8776997140291731,751,10,20.819460467957217,17.860340730227794
0.9965227410332962,0.8776909390949884,751,10,20.819460467957217,17.860340730227794
1.0052974128470216,0.8776821642485558,751,10,20.819460467957217,17.860340730227794
1.01407199691626,0.8776733894898727,751,10,20.819460467957217,17.860340730227794
1.0228464932433046,0.8776646148189365,751,10,20.819460467957217,17.860340730227794
1.031620901830339,0.8776558402357447,751,10,20.819460467957217,17.860340730227794
1.040395222679446,0.8776470657402952,751,10,20.819460467957217,17.860340730227794
1.0491694557926168,0.8776382913325856,751,10,20.819460467957217,17.860340730227794
1.0579436011717553,0.8776295170126139,751,10,20.819460467957217,17.860340730227794
1.0667176588186873,0.8776207427803782,751,10,20.819460467957217,17.860340730227794
1.0754916287351657,0.8776119686358765,751,10,20.819460467957217,17.860340730227794
1.084265510922875,0.877603194579107,751,10,20.819460467957217,17.860340730227794
1.0930393053834389,0.8775944206100679,751,10,20.819460467957217,17.860340730227794
1.1018130121184226,0.8775856467287576,751,10,20.819460467957217,17.860340730227794
1.110586631129339,0.8775768729351745,751,10,20.819460467957217,17.860340730227794
1.1193601624176521,0.8775680992293169,751,10,20.819460467957217,17.860340730227794
1.1281336059847797,0.8775593256111833,751,10,20.819460467957217,17.860340730227794
1.1369069618320995,0.8775505520807724,751,10,20.819460467957217,17.860340730227794
1.1456802299609485,0.8775417786380826,751,10,20.819460467957217,17.860340730227794
1.1544534103726314,0.8775330052831126,751,10,20.819460467957217,17.860340730227794
1.1632265030684168,0.8775242320158612,751,10,20.819460467957217,17.860340730227794
1.1719995080495456,0.8775154588363268,751,10,20.819460467957217,17.860340730227794
1.180772425317229,0.8775066857445083,751,10,20.819460467957217,17.860340730227794
1.1895452548726535,0.8774979127404046,751,10,20.819460467957217,17.860340730227794
1.198317996716981,0.8774891398240141,751,10,20.819460467957217,17.860340730227794
1.2070906508513526,0.877480366995336,751,10,20.819460467957217,17.860340730227794
1.2158632172768877,0.8774715942543689,751,10,20.819460467957217,17.860340730227794
1.2246356959946882,0.8774628216011119,751,10,20.819460467957217,17.860340730227794
1.2334080870058375,0.8774540490355637,751,10,20.819460467957217,17.860340730227794
1.2421803903114041,0.8774452765577231,751,10,20.819460467957217,17.860340730227794
1.2509526059124414,0.8774365041675892,751,10,20.819460467957217,17.860340730227794
1.259724733809989,0.8774277318651609,751,10,20.819460467957217,17.860340730227794
1.2684967740050745,0.8774189596504371,751,10,20.819460467957217,17.860340730227794
1.277268726498713,0.8774101875234168,751,10,20.819460467957217,17.860340730227794
1.2860405912919102,0.8774014154840989,751,10,20.819460467957217,17.860340730227794
1.2948123683856607,0.8773926435324825,751,10,20.819460467957217,17.860340730227794
1.3035840577809505,0.8773838716685665,751,10,20.819460467957217,17.860340730227794
1.312355659478757,0.87737509989235,751,10,20.819460467957217,17.860340730227794
1.3211271734800505,0.8773663282038319,751,10,20.819460467957217,17.860340730227794
1.3298985997857933,0.8773575566030112,751,10,20.819460467957217,17.860340730227794
1.3386699383969416,0.8773487850898871,751,10,20.819460467957217,17.860340730227794
1.347441189314445,0.8773400136644585,751,10,20.819460467957217,17.860340730227794
1.3562123525392482,0.8773312423267245,751,10,20.819460467957217,17.860340730227794
1.3649834280722901,0.8773224710766842,751,10,20.819460467957217,17.860340730227794
1.373754415914505,0.8773136999143365,751,10,20.819460467957217,17.860340730227794
1.3825253160668223,0.8773049288396806,751,10,20.819460467957217,17.860340730227794
1.3912961285301684,0.8772961578527154,751,10,20.819460467957217,17.860340730227794
1.4000668533054645,0.8772873869534402,751,10,20.819460467957217,17.860340730227794
1.40883749039363,0.877278616141854,751,10,20.819460467957217,17.860340730227794
1.4176080397955795,0.8772698454179558,751,10,20.819460467957217,17.860340730227794
1.4263785015122252,0.8772610747817448,751,10,20.819460467957217,17.860340730227794
1.4351488755444763,0.8772523042332199,751,10,20.819460467957217,17.860340730227794
1.443919161893241,0.8772435337723803,751,10,20.819460467957217,17.860340730227794
1.452689360559423,0.877234763399225,751,10,20.819460467957217,17.860340730227794
1.461459471543925,0.8772259931137534,751,10,20.819460467957217,17.860340730227794
1.470229494847647,0.8772172229159642,751,10,20.819460467957217,17.860340730227794
1.4789994304714884,0.8772084528058567,751,10,20.819460467957217,17.860340730227794
1.4877692784163454,0.87719968278343,751,10,20.819460467957217,17.860340730227794
1.496539038683114,0.8771909128486832,751,10,20.819460467957217,17.860340730227794
1.505308711272688,0.8771821430016153,751,10,20.819460467957217,17.860340730227794
1.5140782961859591,0.8771733732422256,751,10,20.819460467957217,17.860340730227794
1.5228477934238196,0.877164603570513,751,10,20.819460467957217,17.860340730227794
1.531617202987159,0.8771558339864767,751,10,20.819460467957217,17.860340730227794
1.5403865248768671,0.8771470644901158,751,10,20.819460467957217,17.860340730227794
1.5491557590938314,0.8771382950814294,751,10,20.819460467957217,17.860340730227794
1.5579249056389393,0.8771295257604166,751,10,20.819460467957217,17.860340730227794
1.5666939645130775,0.8771207565270767,751,10,20.819460467957217,17.860340730227794
1.5754629357171313,0.8771119873814084,751,10,20.819460467957217,17.860340730227794
1.5842318192519858,0.8771032183234112,751,10,20.819460467957217,17.860340730227794
1.593000615118525,0.8770944493530841,751,10,20.819460467957217,17.860340730227794
1.6017693233176327,0.8770856804704261,751,10,20.819460467957217,17.860340730227794
1.610537943850192,0.8770769116754364,751,10,20.819460467957217,17.860340730227794
1.6193064767170862,0.8770681429681143,751,10,20.819460467957217,17.860340730227794
1.6280749219191961,0.8770593743484586,751,10,20.819460467957217,17.860340730227794
1.636843279457404,0.8770506058164685,751,10,20.819460467957217,17.860340730227794
1.6456115493325911,0.8770418373721434,751,10,20.819460467957217,17.860340730227794
1.654379731545638,0.877033069015482,751,10,20.819460467957217,17.860340730227794
1.6631478260974257,0.8770243007464836,751,10,20.819460467957217,17.860340730227794
1.6719158329888342,0.8770155325651474,751,10,20.819460467957217,17.860340730227794
1.6806837522207436,0.8770067644714724,751,10,20.819460467957217,17.860340730227794
1.6894515837940327,0.8769979964654578,751,10,20.819460467957217,17.860340730227794
1.698219327709582,0.8769892285471027,751,10,20.819460467957217,17.860340730227794
1.7069869839682699,0.8769804607164062,751,10,20.819460467957217,17.860340730227794
1.7157545525709754,0.8769716929733675,751,10,20.819460467957217,17.860340730227794
1.7245220335185774,0.8769629253179856,751,10,20.819460467957217,17.860340730227794
1.7332894268119539,0.8769541577502596,751,10,20.819460467957217,17.860340730227794
1.742056732451984,0.8769453902701888,751,10,20.819460467957217,17.860340730227794
1.750823950439545,0.8769366228777722,751,10,20.819460467957217,17.860340730227794
1.7595910807755157,0.8769278555730089,751,10,20.819460467957217,17.860340730227794
1.7683581234607728,0.8769190883558982,751,10,20.819460467957217,17.860340730227794
1.7771250784961958,0.8769103212264389,751,10,20.819460467957217,17.860340730227794
1.7858919458826608,0.8769015541846303,751,10,20.819460467957217,17.860340730227794
1.7946587256210462,0.8768927872304716,751,10,20.819460467957217,17.860340730227794
1.803425417712229,0.8768840203639618,751,10,20.819460467957217,17.860340730227794
1.8121920221570869,0.8768752535851002,751,10,20.819460467957217,17.860340730227794
1.8209585389564968,0.8768664868938857,751,10,20.819460467957217,17.860340730227794
1.8297249681113361,0.8768577202903175,751,10,20.819460467957217,17.860340730227794
1.8384913096224815,0.8768489537743948,751,10,20.819460467957217,17.860340730227794
1.8472575634908106,0.8768401873461166,751,10,20.819460467957217,17.860340730227794
1.8560237297171995,0.8768314210054821,751,10,20.819460467957217,17.860340730227794
1.8647898083025256,0.8768226547524904,751,10,20.819460467957217,17.860340730227794
1.8735557992476655,0.8768138885871406,751,10,20.819460467957217,17.860340730227794
1.882321702553496,0.876805122509432,751,10,20.819460467957217,17.860340730227794
1.8910875182208937,0.8767963565193634,751,10,20.819460467957217,17.860340730227794
1.8998532462507352,0.8767875906169342,751,10,20.819460467957217,17.860340730227794
1.9086188866438976,0.8767788248021434,751,10,20.819460467957217,17.860340730227794
1.9173844394012571,0.8767700590749902,751,10,20.819460467957217,17.860340730227794
1.9261499045236905,0.8767612934354736,751,10,20.819460467957217,17.860340730227794
1.9349152820120739,0.8767525278835928,751,10,20.819460467957217,17.860340730227794
1.9436805718672834,0.8767437624193469,751,10,20.819460467957217,17.860340730227794
1.9524457740901968,0.876734997042735,751,10,20.819460467957217,17.860340730227794
1.961210888681689,0.8767262317537564,751,10,20.819460467957217,17.860340730227794
1.969975915642637,0.87671746655241,751,10,20.819460467957217,17.860340730227794
1.978740854973917,0.8767087014386951,751,10,20.819460467957217,17.860340730227794
1.987505706676406,0.8766999364126107,751,10,20.819460467957217,17.860340730227794
1.996270470750979,0.8766911714741559,751,10,20.819460467957217,17.860340730227794
2.0050351471985133,0.8766824066233299,751,10,20.819460467957217,17.860340730227794
2.0137997360198847,0.8766736418601319,751,10,20.819460467957217,17.860340730227794
2.0225642372159696,0.8766648771845608,751,10,20.819460467957217,17.860340730227794
2.0313286507876436,0.8766561125966159,751,10,20.819460467957217,17.860340730227794
2.040092976735784,0.8766473480962963,751,10,20.819460467957217,17.860340730227794
2.048857215061266,0.876638583683601,751,10,20.819460467957217,17.860340730227794
2.0576213657649656,0.8766298193585293,751,10,20.819460467957217,17.860340730227794
2.0663854288477594,0.8766210551210804,751,10,20.819460467957217,17.860340730227794
2.0751494043105234,0.876612290971253,751,10,20.819460467957217,17.860340730227794
2.0839132921541346,0.8766035269090466,751,10,20.819460467957217,17.860340730227794
