Vout,Iout,Irradiance,Temperature,MaxVoltage,MaxPower
0.002941061720560379,0.5882179999999999,491,24,21.845886763778662,12.373147218140872
0.008823130778666317,0.5882179999999999,491,24,21.845886763778662,12.373147218140872
0.014705080255783664,0.5882150001164793,491,24,21.845886763778662,12.373147218140872
0.020586888788808412,0.5882091180474213,491,24,21.845886763778662,12.373147218140872
0.02646854939590754,0.5882032360982441,491,24,21.845886763778662,12.373147218140872
0.03235006893546036,0.5881973542902993,491,24,21.845886763778662,12.373147218140872
0.03823145373839236,0.5881914726302804,491,24,21.845886763778662,12.373147218140872
0.0441127096486281,0.5881855911113291,491,24,21.845886763778662,12.373147218140872
0.04999384206049664,0.5881797097271142,491,24,21.845886763778662,12.373147218140872
0.05587485595332408,0.5881738284717921,491,24,21.845886763778662,12.373147218140872
0.061755755923364575,0.5881679473399685,491,24,21.845886763778662,12.373147218140872
0.06763654621327449,0.5881620663266638,491,24,21.845886763778662,12.373147218140872
0.07351723073931876,0.5881561854272818,491,24,21.845886763778662,12.373147218140872
0.07939781311648397,0.58815030463758,491,24,21.845886763778662,12.373147218140872
0.08527829668165915,0.5881444239536421,491,24,21.845886763778662,12.373147218140872
0.0911586845150331,0.588138543371853,491,24,21.845886763778662,12.373147218140872
0.09703897945984521,0.5881326628888759,491,24,21.845886763778662,12.373147218140872
0.10291918414061686,0.5881267825016305,491,24,21.845886763778662,12.373147218140872
0.10879930097997981,0.5881209022072738,491,24,21.845886763778662,12.373147218140872
0.11467933221420992,0.588115022003181,491,24,21.845886763778662,12.373147218140872
0.12055927990756572,0.5881091418869298,491,24,21.845886763778662,12.373147218140872
0.1264391459655236,0.5881032618562835,491,24,21.845886763778662,12.373147218140872
0.13231893214699494,0.5880973819091782,491,24,21.845886763778662,12.373147218140872
0.13819864007560279,0.5880915020437082,491,24,21.845886763778662,12.373147218140872
0.14407827125009134,0.5880856222581147,491,24,21.845886763778662,12.373147218140872
0.14995782705393434,0.5880797425507741,491,24,21.845886763778662,12.373147218140872
0.15583730876420407,0.5880738629201876,491,24,21.845886763778662,12.373147218140872
0.16171671755975797,0.5880679833649717,491,24,21.845886763778662,12.373147218140872
0.16759605452879564,0.5880621038838494,491,24,21.845886763778662,12.373147218140872
0.17347532067583415,0.5880562244756418,491,24,21.845886763778662,12.373147218140872
0.17935451692814655,0.5880503451392607,491,24,21.845886763778662,12.373147218140872
0.1852336441417053,0.5880444658737016,491,24,21.845886763778662,12.373147218140872
0.19111270310666825,0.5880385866780372,491,24,21.845886763778662,12.373147218140872
0.19699169455244236,0.5880327075514116,491,24,21.845886763778662,12.373147218140872
0.20287061915235824,0.5880268284930346,491,24,21.845886763778662,12.373147218140872
0.20874947752798445,0.5880209495021768,491,24,21.845886763778662,12.373147218140872
0.2146282702531103,0.5880150705781647,491,24,21.845886763778662,12.373147218140872
0.22050699785742212,0.588009191720377,491,24,21.845886763778662,12.373147218140872
0.2263856608298965,0.5880033129282397,491,24,21.845886763778662,12.373147218140872
0.23226425962193273,0.5879974342012233,491,24,21.845886763778662,12.373147218140872
0.23814279465024368,0.5879915555388388,491,24,21.845886763778662,12.373147218140872
0.2440212662995252,0.5879856769406345,491,24,21.845886763778662,12.373147218140872
0.24989967492491896,0.5879797984061941,491,24,21.845886763778662,12.373147218140872
0.2557780208542868,0.5879739199351327,491,24,21.845886763778662,12.373147218140872
0.2616563043903096,0.5879680415270951,491,24,21.845886763778662,12.373147218140872
0.26753452581242465,0.5879621631817536,491,24,21.845886763778662,12.373147218140872
0.273412685378614,0.5879562848988055,491,24,21.845886763778662,12.373147218140872
0.27929078332705565,0.5879504066779712,491,24,21.845886763778662,12.373147218140872
0.2851688198776466,0.5879445285189928,491,24,21.845886763778662,12.373147218140872
0.29104679523341015,0.5879386504216322,491,24,21.845886763778662,12.373147218140872
0.2969247095817938,0.5879327723856694,491,24,21.845886763778662,12.373147218140872
0.3028025630958676,0.5879268944109014,491,24,21.845886763778662,12.373147218140872
0.3086803559354306,0.5879210164971409,491,24,21.845886763778662,12.373147218140872
0.314558088248032,0.5879151386442146,491,24,21.845886763778662,12.373147218140872
0.32043576016991343,0.5879092608519628,491,24,21.845886763778662,12.373147218140872
0.32631337182687886,0.587903383120238,491,24,21.845886763778662,12.373147218140872
0.33219092333509836,0.587897505448904,491,24,21.845886763778662,12.373147218140872
0.33806841480184835,0.5878916278378347,491,24,21.845886763778662,12.373147218140872
0.34394584632619685,0.5878857502869143,491,24,21.845886763778662,12.373147218140872
0.3498232179996345,0.5878798727960353,491,24,21.845886763778662,12.373147218140872
0.35570052990665774,0.5878739953650987,491,24,21.845886763778662,12.373147218140872
0.36157778212530667,0.587868117994013,491,24,21.845886763778662,12.373147218140872
0.36745497472766236,0.5878622406826937,491,24,21.845886763778662,12.373147218140872
0.37333210778030496,0.5878563634310628,491,24,21.845886763778662,12.373147218140872
0.3792091813447369,0.5878504862390482,491,24,21.845886763778662,12.373147218140872
0.3850861954777739,0.5878446091065832,491,24,21.845886763778662,12.373147218140872
0.39096315023190525,0.5878387320336066,491,24,21.845886763778662,12.373147218140872
0.39684004565562686,0.5878328550200612,491,24,21.845886763778662,12.373147218140872
0.40271688179374854,0.5878269780658948,491,24,21.845886763778662,12.373147218140872
0.40859365868767733,0.5878211011710588,491,24,21.845886763778662,12.373147218140872
0.4144703763756798,0.5878152243355084,491,24,21.845886763778662,12.373147218140872
0.4203470348931234,0.5878093475592021,491,24,21.845886763778662,12.373147218140872
0.42622363427269944,0.5878034708421018,491,24,21.845886763778662,12.373147218140872
0.43210017454462907,0.587797594184172,491,24,21.845886763778662,12.373147218140872
0.43797665573685346,0.5877917175853801,491,24,21.845886763778662,12.373147218140872
0.44385307787520917,0.5877858410456959,491,24,21.845886763778662,12.373147218140872
0.4497294409835898,0.5877799645650913,491,24,21.845886763778662,12.373147218140872
0.455605745084096,0.5877740881435406,491,24,21.845886763778662,12.373147218140872
0.46148199019717306,0.5877682117810199,491,24,21.845886763778662,12.373147218140872
0.46735817634173826,0.587762335477507,491,24,21.845886763778662,12.373147218140872
0.4732343035352988,0.5877564592329816,491,24,21.845886763778662,12.373147218140872
0.4791103717940595,0.5877505830474247,491,24,21.845886763778662,12.373147218140872
0.4849863811330242,0.5877447069208187,491,24,21.845886763778662,12.373147218140872
0.49086233156608716,0.5877388308531476,491,24,21.845886763778662,12.373147218140872
0.49673822310611876,0.5877329548443961,491,24,21.845886763778662,12.373147218140872
0.5026140557650445,0.5877270788945508,491,24,21.845886763778662,12.373147218140872
0.5084898295539172,0.5877212030035983,491,24,21.845886763778662,12.373147218140872
0.5143655444829845,0.587715327171527,491,24,21.845886763778662,12.373147218140872
0.5202412005617512,0.5877094513983256,491,24,21.845886763778662,12.373147218140872
0.5261167977990354,0.5877035756839842,491,24,21.845886763778662,12.373147218140872
0.5319923362030221,0.587697700028493,491,24,21.845886763778662,12.373147218140872
0.5378678157813119,0.5876918244318433,491,24,21.845886763778662,12.373147218140872
0.5437432365409653,0.5876859488940269,491,24,21.845886763778662,12.373147218140872
0.5496185984885454,0.5876800734150361,491,24,21.845886763778662,12.373147218140872
0.555493901630155,0.5876741979948641,491,24,21.845886763778662,12.373147218140872
0.5613691459714727,0.587668322633504,491,24,21.845886763778662,12.373147218140872
0.567244331517785,0.58766244733095,491,24,21.845886763778662,12.373147218140872
0.5731194582740177,0.5876565720871961,491,24,21.845886763778662,12.373147218140872
0.5789945262447619,0.5876506969022374,491,24,21.845886763778662,12.373147218140872
0.5848695354343011,0.5876448217760687,491,24,21.845886763778662,12.373147218140872
0.5907444858466344,0.5876389467086854,491,24,21.845886763778662,12.373147218140872
0.596619377485498,0.5876330717000834,491,24,21.845886763778662,12.373147218140872
0.6024942103543861,0.5876271967502587,491,24,21.845886763778662,12.373147218140872
0.6083689844565693,0.5876213218592072,491,24,21.845886763778662,12.373147218140872
0.6142436997951115,0.5876154470269258,491,24,21.845886763778662,12.373147218140872
0.620118356372886,0.5876095722534111,491,24,21.845886763778662,12.373147218140872
0.6259929541925907,0.58760369753866,491,24,21.845886763778662,12.373147218140872
0.6318674932567605,0.5875978228826698,491,24,21.845886763778662,12.373147218140872
0.6377419735677806,0.5875919482854376,491,24,21.845886763778662,12.373147218140872
0.6436163951278983,0.5875860737469608,491,24,21.845886763778662,12.373147218140872
0.6494907579392324,0.5875801992672373,491,24,21.845886763778662,12.373147218140872
0.6553650620037844,0.5875743248462646,491,24,21.845886763778662,12.373147218140872
0.6612393073234469,0.5875684504840407,491,24,21.845886763778662,12.373147218140872
0.6671134939000115,0.5875625761805636,491,24,21.845886763778662,12.373147218140872
0.6729876217351781,0.5875567019358314,491,24,21.845886763778662,12.373147218140872
0.6788616908305602,0.5875508277498422,491,24,21.845886763778662,12.373147218140872
0.6847357011876926,0.5875449536225945,491,24,21.845886763778662,12.373147218140872
0.6906096528080371,0.5875390795540866,491,24,21.845886763778662,12.373147218140872
0.6964835456929886,0.5875332055443169,491,24,21.845886763778662,12.373147218140872
0.7023573798438791,0.587527331593284,491,24,21.845886763778662,12.373147218140872
0.7082311552619839,0.5875214577009864,491,24,21.845886763778662,12.373147218140872
0.714104871948525,0.5875155838674229,491,24,21.845886763778662,12.373147218140872
0.7199785299046756,0.5875097100925921,491,24,21.845886763778662,12.373147218140872
0.7258521291315643,0.587503836376493,491,24,21.845886763778662,12.373147218140872
0.7317256696302769,0.5874979627191242,491,24,21.845886763778662,12.373147218140872
0.737599151401862,0.5874920891204847,491,24,21.845886763778662,12.373147218140872
0.7434725744473323,0.5874862155805733,491,24,21.845886763778662,12.373147218140872
0.7493459387676675,0.5874803420993892,491,24,21.845886763778662,12.373147218140872
0.755219244363817,0.587474468676931,491,24,21.845886763778662,12.373147218140872
0.7610924912367028,0.5874685953131981,491,24,21.845886763778662,12.373147218140872
0.7669656793872206,0.5874627220081893,491,24,21.845886763778662,12.373147218140872
0.772838808816243,0.5874568487619036,491,24,21.845886763778662,12.373147218140872
0.7787118795246202,0.5874509755743405,491,24,21.845886763778662,12.373147218140872
0.7845848915131817,0.5874451024454987,491,24,21.845886763778662,12.373147218140872
0.7904578447827395,0.5874392293753777,491,24,21.845886763778662,12.373147218140872
0.7963307393340872,0.5874333563639765,491,24,21.845886763778662,12.373147218140872
0.8022035751680028,0.5874274834112942,491,24,21.845886763778662,12.373147218140872
0.8080763522852502,0.5874216105173302,491,24,21.845886763778662,12.373147218140872
0.8139490706865786,0.5874157376820835,491,24,21.845886763778662,12.373147218140872
0.819821730372726,0.5874098649055536,491,24,21.845886763778662,12.373147218140872
0.8256943313444175,0.5874039921877395,491,24,21.845886763778662,12.373147218140872
0.8315668736023686,0.5873981195286407,491,24,21.845886763778662,12.373147218140872
0.8374393571472841,0.5873922469282563,491,24,21.845886763778662,12.373147218140872
0.8433117819798602,0.5873863743865856,491,24,21.845886763778662,12.373147218140872
0.8491841481007849,0.5873805019036279,491,24,21.845886763778662,12.373147218140872
0.8550564555107375,0.5873746294793826,491,24,21.845886763778662,12.373147218140872
0.8609287042103911,0.587368757113849,491,24,21.845886763778662,12.373147218140872
0.8668008942004122,0.5873628848070263,491,24,21.845886763778662,12.373147218140872
0.8726730254814602,0.5873570125589138,491,24,21.845886763778662,12.373147218140872
0.8785450980541898,0.587351140369511,491,24,21.845886763778662,12.373147218140872
0.8844171119192504,0.5873452682388172,491,24,21.845886763778662,12.373147218140872
0.8902890670772863,0.5873393961668317,491,24,21.845886763778662,12.373147218140872
0.8961609635289375,0.5873335241535539,491,24,21.845886763778662,12.373147218140872
0.9020328012748401,0.587327652198983,491,24,21.845886763778662,12.373147218140872
0.9079045803156258,0.5873217803031185,491,24,21.845886763778662,12.373147218140872
0.9137763006519236,0.5873159084659598,491,24,21.845886763778662,12.373147218140872
0.9196479622843589,0.5873100366875063,491,24,21.845886763778662,12.373147218140872
0.9255195652135542,0.5873041649677572,491,24,21.845886763778662,12.373147218140872
0.9313911094401287,0.5872982933067119,491,24,21.845886763778662,12.373147218140872
0.9372625949647002,0.5872924217043699,491,24,21.845886763778662,12.373147218140872
0.9431340217878835,0.5872865501607305,491,24,21.845886763778662,12.373147218140872
0.949005389910291,0.587280678675793,491,24,21.845886763778662,12.373147218140872
0.9548766993325336,0.587274807249557,491,24,21.845886763778662,12.373147218140872
0.9607479500552202,0.5872689358820218,491,24,21.845886763778662,12.373147218140872
0.9666191420789579,0.5872630645731867,491,24,21.845886763778662,12.373147218140872
0.9724902754043522,0.5872571933230512,491,24,21.845886763778662,12.373147218140872
0.9783613500320073,0.5872513221316145,491,24,21.845886763778662,12.373147218140872
0.9842323659625261,0.5872454509988763,491,24,21.845886763778662,12.373147218140872
0.9901033231965101,0.5872395799248357,491,24,21.845886763778662,12.373147218140872
0.9959742217345595,0.5872337089094923,491,24,21.845886763778662,12.373147218140872
1.001845061577274,0.5872278379528454,491,24,21.845886763778662,12.373147218140872
1.0077158427252522,0.5872219670548945,491,24,21.845886763778662,12.373147218140872
1.013586565179091,0.5872160962156389,491,24,21.845886763778662,12.373147218140872
1.0194572289393877,0.587210225435078,491,24,21.845886763778662,12.373147218140872
1.0253278340067375,0.5872043547132112,491,24,21.845886763778662,12.373147218140872
1.0311983803817362,0.5871984840500379,491,24,21.845886763778662,12.373147218140872
1.0370688680649784,0.5871926134455577,491,24,21.845886763778662,12.373147218140872
1.0429392970570577,0.5871867428997698,491,24,21.845886763778662,12.373147218140872
1.0488096673585676,0.5871808724126736,491,24,21.845886763778662,12.373147218140872
1.054679978970101,0.5871750019842685,491,24,21.845886763778662,12.373147218140872
1.0605502318922504,0.5871691316145541,491,24,21.845886763778662,12.373147218140872
1.0664204261256076,0.5871632613035296,491,24,21.845886763778662,12.373147218140872
1.072290561670764,0.5871573910511945,491,24,21.845886763778662,12.373147218140872
1.0781606385283116,0.5871515208575482,491,24,21.845886763778662,12.373147218140872
1.0840306566988402,0.5871456507225901,491,24,21.845886763778662,12.373147218140872
1.0899006161829408,0.5871397806463196,491,24,21.845886763778662,12.373147218140872
1.0957705169812035,0.587133910628736,491,24,21.845886763778662,12.373147218140872
1.1016403590942183,0.5871280406698389,491,24,21.845886763778662,12.373147218140872
1.107510142522575,0.5871221707696277,491,24,21.845886763778662,12.373147218140872
1.1133798672668633,0.5871163009281016,491,24,21.845886763778662,12.373147218140872
1.1192495333276715,0.5871104311452603,491,24,21.845886763778662,12.373147218140872
1.1251191407055896,0.5871045614211029,491,24,21.845886763778662,12.373147218140872
1.1309886894012058,0.5870986917556291,491,24,21.845886763778662,12.373147218140872
1.1368581794151096,0.5870928221488382,491,24,21.845886763778662,12.373147218140872
1.1427276107478883,0.5870869526007295,491,24,21.845886763778662,12.373147218140872
1.148596983400131,0.5870810831113026,491,24,21.845886763778662,12.373147218140872
1.154466297372426,0.5870752136805567,491,24,21.845886763778662,12.373147218140872
1.1603355526653614,0.5870693443084914,491,24,21.845886763778662,12.373147218140872
1.166204749279525,0.5870634749951061,491,24,21.845886763778662,12.373147218140872
1.1720738872155045,0.5870576057404001,491,24,21.845886763778662,12.373147218140872
1.177942966473888,0.5870517365443729,491,24,21.845886763778662,12.373147218140872
1.1838119870552632,0.5870458674070238,491,24,21.845886763778662,12.373147218140872
1.1896809489602178,0.5870399983283524,491,24,21.845886763778662,12.373147218140872
1.1955498521893386,0.5870341293083579,491,24,21.845886763778662,12.373147218140872
1.2014186967432143,0.5870282603470398,491,24,21.845886763778662,12.373147218140872
1.2072874826224311,0.5870223914443976,491,24,21.845886763778662,12.373147218140872
1.2131562098275765,0.5870165226004307,491,24,21.845886763778662,12.373147218140872
1.2190248783592383,0.5870106538151383,491,24,21.845886763778662,12.373147218140872
1.2248934882180036,0.58700478508852,491,24,21.845886763778662,12.373147218140872
1.2307620394044592,0.5869989164205753,491,24,21.845886763778662,12.373147218140872
1.2366305319191921,0.5869930478113033,491,24,21.845886763778662,12.373147218140872
1.2424989657627898,0.5869871792607038,491,24,21.845886763778662,12.373147218140872
1.2483673409358391,0.5869813107687759,491,24,21.845886763778662,12.373147218140872
1.254235657438927,0.5869754423355192,491,24,21.845886763778662,12.373147218140872
1.2601039152726403,0.586969573960933,491,24,21.845886763778662,12.373147218140872
1.2659721144375662,0.5869637056450168,491,24,21.845886763778662,12.373147218140872
1.2718402549342913,0.5869578373877699,491,24,21.845886763778662,12.373147218140872
1.2777083367634026,0.5869519691891918,491,24,21.845886763778662,12.373147218140872
1.2835763599254868,0.5869461010492819,491,24,21.845886763778662,12.373147218140872
1.2894443244211307,0.5869402329680395,491,24,21.845886763778662,12.373147218140872
1.295312230250921,0.5869343649454644,491,24,21.845886763778662,12.373147218140872
1.3011800774154445,0.5869284969815555,491,24,21.845886763778662,12.373147218140872
1.307047865915288,0.5869226290763125,491,24,21.845886763778662,12.373147218140872
1.312915595751038,0.5869167612297348,491,24,21.845886763778662,12.373147218140872
1.318783266923281,0.5869108934418217,491,24,21.845886763778662,12.373147218140872
1.3246508794326042,0.5869050257125727,491,24,21.845886763778662,12.373147218140872
1.3305184332795938,0.5868991580419873,491,24,21.845886763778662,12.373147218140872
1.3363859284648367,0.5868932904300648,491,24,21.845886763778662,12.373147218140872
1.342253364988919,0.5868874228768045,491,24,21.845886763778662,12.373147218140872
1.348120742852428,0.586881555382206,491,24,21.845886763778662,12.373147218140872
1.35398806205595,0.5868756879462687,491,24,21.845886763778662,12.373147218140872
1.3598553226000711,0.586869820568992,491,24,21.845886763778662,12.373147218140872
1.3657225244853781,0.5868639532503752,491,24,21.845886763778662,12.373147218140872
1.371589667712458,0.5868580859904178,491,24,21.845886763778662,12.373147218140872
1.3774567522818968,0.5868522187891192,491,24,21.845886763778662,12.373147218140872
1.3833237781942813,0.5868463516464788,491,24,21.845886763778662,12.373147218140872
1.389190745450198,0.5868404845624962,491,24,21.845886763778662,12.373147218140872
