Vout,Iout,Irradiance,Temperature,MaxVoltage,MaxPower
0.007435278506937434,1.48707,1271,10,20.823175527131163,30.53252244269287
0.022305698035475493,1.48707,1271,10,20.823175527131163,30.53252244269287
0.03717581525211439,1.487062416014493,1271,10,20.823175527131163,30.53252244269287
0.05204557614893344,1.4870475455949643,1271,10,20.823175527131163,30.53252244269287
0.0669149630752072,1.4870326754785061,1271,10,20.823175527131163,30.53252244269287
0.08178399336955863,1.4870178057190964,1271,10,20.823175527131163,30.53252244269287
0.09665268303715821,1.4870029363336572,1271,10,20.823175527131163,30.53252244269287
0.11152104685199263,1.4869880673048497,1271,10,20.823175527131163,30.53252244269287
0.12638909845142915,1.486973198616669,1271,10,20.823175527131163,30.53252244269287
0.14125685042366887,1.4869583302543412,1271,10,20.823175527131163,30.53252244269287
0.15612431438847124,1.4869434622042286,1271,10,20.823175527131163,30.53252244269287
0.1709915010716675,1.4869285944537431,1271,10,20.823175527131163,30.53252244269287
0.18585842037394085,1.4869137269912651,1271,10,20.823175527131163,30.53252244269287
0.20072508143431483,1.4868988598060688,1271,10,20.823175527131163,30.53252244269287
0.2155914926887563,1.4868839928882533,1271,10,20.823175527131163,30.53252244269287
0.23045766192427003,1.4868691262286795,1271,10,20.823175527131163,30.53252244269287
0.24532359632883052,1.4868542598189118,1271,10,20.823175527131163,30.53252244269287
0.26018930253747274,1.486839393651163,1271,10,20.823175527131163,30.53252244269287
0.27505478667483585,1.486824527718245,1271,10,20.823175527131163,30.53252244269287
0.28992005439443397,1.4868096620135232,1271,10,20.823175527131163,30.53252244269287
0.30478511091490534,1.4867947965308723,1271,10,20.823175527131163,30.53252244269287
0.31964996105347204,1.4867799312646393,1271,10,20.823175527131163,30.53252244269287
0.33451460925682625,1.4867650662096052,1271,10,20.823175527131163,30.53252244269287
0.34937905962963844,1.4867502013609533,1271,10,20.823175527131163,30.53252244269287
0.3642433159608741,1.4867353367142364,1271,10,20.823175527131163,30.53252244269287
0.3791073817480836,1.4867204722653502,1271,10,20.823175527131163,30.53252244269287
0.3939712602198249,1.4867056080105054,1271,10,20.823175527131163,30.53252244269287
0.4088349543563599,1.4866907439462045,1271,10,20.823175527131163,30.53252244269287
0.4236984669087587,1.4866758800692192,1271,10,20.823175527131163,30.53252244269287
0.4385618004165339,1.4866610163765692,1271,10,20.823175527131163,30.53252244269287
0.4534249572239186,1.486646152865503,1271,10,20.823175527131163,30.53252244269287
0.46828793949489106,1.4866312895334817,1271,10,20.823175527131163,30.53252244269287
0.48315074922704376,1.4866164263781607,1271,10,20.823175527131163,30.53252244269287
0.49801338826438596,1.4866015633973761,1271,10,20.823175527131163,30.53252244269287
0.51287585830916,1.4865867005891302,1271,10,20.823175527131163,30.53252244269287
0.5277381609327492,1.486571837951579,1271,10,20.823175527131163,30.53252244269287
0.5426002975857468,1.4865569754830206,1271,10,20.823175527131163,30.53252244269287
0.557462269607249,1.4865421131818835,1271,10,20.823175527131163,30.53252244269287
0.5723240782334343,1.4865272510467167,1271,10,20.823175527131163,30.53252244269287
0.5871857246054822,1.4865123890761813,1271,10,20.823175527131163,30.53252244269287
0.602047209776882,1.4864975272690413,1271,10,20.823175527131163,30.53252244269287
0.6169085347201804,1.4864826656241554,1271,10,20.823175527131163,30.53252244269287
0.6317697003332086,1.4864678041404702,1271,10,20.823175527131163,30.53252244269287
0.6466307074448323,1.4864529428170132,1271,10,20.823175527131163,30.53252244269287
0.6614915568202568,1.4864380816528864,1271,10,20.823175527131163,30.53252244269287
0.6763522491659255,1.4864232206472607,1271,10,20.823175527131163,30.53252244269287
0.6912127851340415,1.4864083597993714,1271,10,20.823175527131163,30.53252244269287
0.7060731653267407,1.486393499108512,1271,10,20.823175527131163,30.53252244269287
0.7209333902999434,1.4863786385740299,1271,10,20.823175527131163,30.53252244269287
0.7357934605669112,1.4863637781953232,1271,10,20.823175527131163,30.53252244269287
0.7506533766015289,1.486348917971836,1271,10,20.823175527131163,30.53252244269287
0.765513138841334,1.486334057903055,1271,10,20.823175527131163,30.53252244269287
0.7803727476903136,1.4863191979885066,1271,10,20.823175527131163,30.53252244269287
0.7952322035214853,1.4863043382277528,1271,10,20.823175527131163,30.53252244269287
0.8100915066792806,1.4862894786203897,1271,10,20.823175527131163,30.53252244269287
0.8249506574817446,1.4862746191660445,1271,10,20.823175527131163,30.53252244269287
0.8398096562225648,1.4862597598643728,1271,10,20.823175527131163,30.53252244269287
0.8546685031729472,1.4862449007150562,1271,10,20.823175527131163,30.53252244269287
0.8695271985833443,1.4862300417178014,1271,10,20.823175527131163,30.53252244269287
0.8843857426850531,1.486215182872337,1271,10,20.823175527131163,30.53252244269287
0.8992441356916884,1.4862003241784123,1271,10,20.823175527131163,30.53252244269287
0.9141023778005432,1.4861854656357965,1271,10,20.823175527131163,30.53252244269287
0.9289604691938447,1.4861706072442757,1271,10,20.823175527131163,30.53252244269287
0.9438184100399141,1.4861557490036528,1271,10,20.823175527131163,30.53252244269287
0.9586762004942352,1.4861408909137452,1271,10,20.823175527131163,30.53252244269287
0.9735338407004432,1.486126032974385,1271,10,20.823175527131163,30.53252244269287
0.9883913307912362,1.4861111751854166,1271,10,20.823175527131163,30.53252244269287
1.0032486708892163,1.4860963175466961,1271,10,20.823175527131163,30.53252244269287
1.018105861107667,1.4860814600580912,1271,10,20.823175527131163,30.53252244269287
1.0329629015512691,1.4860666027194789,1271,10,20.823175527131163,30.53252244269287
1.0478197923167638,1.4860517455307463,1271,10,20.823175527131163,30.53252244269287
1.062676533493564,1.4860368884917883,1271,10,20.823175527131163,30.53252244269287
1.0775331251643154,1.4860220316025086,1271,10,20.823175527131163,30.53252244269287
1.0923895674054205,1.4860071748628174,1271,10,20.823175527131163,30.53252244269287
1.1072458602875175,1.4859923182726325,1271,10,20.823175527131163,30.53252244269287
1.1221020038759226,1.485977461831877,1271,10,20.823175527131163,30.53252244269287
1.136957998231042,1.4859626055404807,1271,10,20.823175527131163,30.53252244269287
1.1518138434087477,1.4859477493983777,1271,10,20.823175527131163,30.53252244269287
1.1666695394607278,1.4859328934055083,1271,10,20.823175527131163,30.53252244269287
1.1815250864348066,1.4859180375618162,1271,10,20.823175527131163,30.53252244269287
1.1963804843752432,1.48590318186725,1271,10,20.823175527131163,30.53252244269287
1.2112357333230064,1.4858883263217613,1271,10,20.823175527131163,30.53252244269287
1.2260908333160265,1.4858734709253065,1271,10,20.823175527131163,30.53252244269287
1.2409457843894294,1.4858586156778442,1271,10,20.823175527131163,30.53252244269287
1.2558005865757527,1.4858437605793369,1271,10,20.823175527131163,30.53252244269287
1.2706552399051454,1.485828905629749,1271,10,20.823175527131163,30.53252244269287
1.2855097444055497,1.485814050829048,1271,10,20.823175527131163,30.53252244269287
1.3003641001028732,1.4857991961772041,1271,10,20.823175527131163,30.53252244269287
1.315218307021144,1.4857843416741892,1271,10,20.823175527131163,30.53252244269287
1.330072365182656,1.4857694873199774,1271,10,20.823175527131163,30.53252244269287
1.3449262746081012,1.4857546331145446,1271,10,20.823175527131163,30.53252244269287
1.3597800353166942,1.4857397790578686,1271,10,20.823175527131163,30.53252244269287
1.3746336473262855,1.4857249251499285,1271,10,20.823175527131163,30.53252244269287
1.3894871106534668,1.4857100713907052,1271,10,20.823175527131163,30.53252244269287
1.4043404253136667,1.485695217780181,1271,10,20.823175527131163,30.53252244269287
1.4191935913212406,1.4856803643183394,1271,10,20.823175527131163,30.53252244269287
1.4340466086895545,1.4856655110051644,1271,10,20.823175527131163,30.53252244269287
1.4488994774310604,1.4856506578406423,1271,10,20.823175527131163,30.53252244269287
1.4637521975573646,1.4856358048247593,1271,10,20.823175527131163,30.53252244269287
1.4786047690792974,1.485620951957503,1271,10,20.823175527131163,30.53252244269287
1.4934571920069677,1.485606099238862,1271,10,20.823175527131163,30.53252244269287
1.5083094663498218,1.4855912466688255,1271,10,20.823175527131163,30.53252244269287
1.5231615921166934,1.485576394247383,1271,10,20.823175527131163,30.53252244269287
1.5380135693158499,1.4855615419745254,1271,10,20.823175527131163,30.53252244269287
1.5528653979550378,1.4855466898502439,1271,10,20.823175527131163,30.53252244269287
1.5677170780415215,1.48553183787453,1271,10,20.823175527131163,30.53252244269287
1.582568609582121,1.4855169860473758,1271,10,20.823175527131163,30.53252244269287
1.5974199925832444,1.4855021343687747,1271,10,20.823175527131163,30.53252244269287
1.612271227050923,1.4854872828387191,1271,10,20.823175527131163,30.53252244269287
1.6271223129908365,1.4854724314572032,1271,10,20.823175527131163,30.53252244269287
1.6419732504083422,1.4854575802242207,1271,10,20.823175527131163,30.53252244269287
1.6568240393085005,1.4854427291397658,1271,10,20.823175527131163,30.53252244269287
1.6716746796960953,1.4854278782038335,1271,10,20.823175527131163,30.53252244269287
1.6865251715756573,1.4854130274164186,1271,10,20.823175527131163,30.53252244269287
1.7013755149514826,1.485398176777516,1271,10,20.823175527131163,30.53252244269287
1.7162257098276508,1.4853833262871214,1271,10,20.823175527131163,30.53252244269287
1.731075756208042,1.4853684759452308,1271,10,20.823175527131163,30.53252244269287
1.745925654096352,1.4853536257518396,1271,10,20.823175527131163,30.53252244269287
1.760775403496106,1.4853387757069443,1271,10,20.823175527131163,30.53252244269287
1.775625004410673,1.485323925810541,1271,10,20.823175527131163,30.53252244269287
1.7904744568432764,1.4853090760626262,1271,10,20.823175527131163,30.53252244269287
1.8053237607970054,1.4852942264631965,1271,10,20.823175527131163,30.53252244269287
1.820172916274827,1.485279377012249,1271,10,20.823175527131163,30.53252244269287
1.8350219232795928,1.4852645277097802,1271,10,20.823175527131163,30.53252244269287
1.849870781814049,1.4852496785557874,1271,10,20.823175527131163,30.53252244269287
1.8647194918808458,1.4852348295502675,1271,10,20.823175527131163,30.53252244269287
1.8795680534825434,1.485219980693218,1271,10,20.823175527131163,30.53252244269287
1.8944164666216188,1.485205131984636,1271,10,20.823175527131163,30.53252244269287
1.9092647313004727,1.4851902834245192,1271,10,20.823175527131163,30.53252244269287
1.9241128475214353,1.485175435012865,1271,10,20.823175527131163,30.53252244269287
1.9389608152867719,1.485160586749671,1271,10,20.823175527131163,30.53252244269287
1.9538086345986874,1.485145738634935,1271,10,20.823175527131163,30.53252244269287
1.9686563054593316,1.4851308906686544,1271,10,20.823175527131163,30.53252244269287
1.9835038278708024,1.4851160428508274,1271,10,20.823175527131163,30.53252244269287
1.998351201835151,1.4851011951814515,1271,10,20.823175527131163,30.53252244269287
2.013198427354385,1.4850863476605247,1271,10,20.823175527131163,30.53252244269287
2.028045504430471,1.4850715002880452,1271,10,20.823175527131163,30.53252244269287
2.042892433065339,1.4850566530640108,1271,10,20.823175527131163,30.53252244269287
2.057739213260885,1.4850418059884194,1271,10,20.823175527131163,30.53252244269287
2.0725858450189736,1.4850269590612692,1271,10,20.823175527131163,30.53252244269287
2.087432328341438,1.4850121122825584,1271,10,20.823175527131163,30.53252244269287
2.102278663230086,1.484997265652285,1271,10,20.823175527131163,30.53252244269287
2.117124849686702,1.4849824191704473,1271,10,20.823175527131163,30.53252244269287
2.131970887713044,1.4849675728370433,1271,10,20.823175527131163,30.53252244269287
2.146816777310852,1.4849527266520712,1271,10,20.823175527131163,30.53252244269287
2.1616625184818434,1.4849378806155296,1271,10,20.823175527131163,30.53252244269287
2.1765081112277205,1.4849230347274163,1271,10,20.823175527131163,30.53252244269287
2.191353555550166,1.48490818898773,1271,10,20.823175527131163,30.53252244269287
2.2061988514508495,1.4848933433964686,1271,10,20.823175527131163,30.53252244269287
2.2210439989314255,1.484878497953631,1271,10,20.823175527131163,30.53252244269287
2.2358889979935346,1.4848636526592147,1271,10,20.823175527131163,30.53252244269287
2.250733848638806,1.4848488075132187,1271,10,20.823175527131163,30.53252244269287
2.265578550868858,1.484833962515641,1271,10,20.823175527131163,30.53252244269287
2.2804231046852994,1.4848191176664802,1271,10,20.823175527131163,30.53252244269287
2.2952675100897264,1.4848042729657347,1271,10,20.823175527131163,30.53252244269287
2.310111767083729,1.484789428413403,1271,10,20.823175527131163,30.53252244269287
2.3249558756688886,1.4847745840094828,1271,10,20.823175527131163,30.53252244269287
2.339799835846779,1.4847597397539734,1271,10,20.823175527131163,30.53252244269287
2.3546436476189663,1.4847448956468725,1271,10,20.823175527131163,30.53252244269287
2.3694873109870116,1.4847300516881792,1271,10,20.823175527131163,30.53252244269287
2.384330825952469,1.4847152078778914,1271,10,20.823175527131163,30.53252244269287
2.3991741925168864,1.4847003642160077,1271,10,20.823175527131163,30.53252244269287
2.4140174106818084,1.4846855207025267,1271,10,20.823175527131163,30.53252244269287
2.428860480448775,1.4846706773374465,1271,10,20.823175527131163,30.53252244269287
2.44370340181932,1.484655834120766,1271,10,20.823175527131163,30.53252244269287
2.4585461747949755,1.4846409910524834,1271,10,20.823175527131163,30.53252244269287
2.4733887993772687,1.484626148132597,1271,10,20.823175527131163,30.53252244269287
2.4882312755677223,1.4846113053611059,1271,10,20.823175527131163,30.53252244269287
2.5030736033678584,1.4845964627380077,1271,10,20.823175527131163,30.53252244269287
2.5179157827791943,1.4845816202633015,1271,10,20.823175527131163,30.53252244269287
2.532757813803246,1.4845667779369858,1271,10,20.823175527131163,30.53252244269287
2.547599696441526,1.4845519357590586,1271,10,20.823175527131163,30.53252244269287
2.5624414306955443,1.4845370937295188,1271,10,20.823175527131163,30.53252244269287
2.5772830165668097,1.4845222518483647,1271,10,20.823175527131163,30.53252244269287
2.5921244540568296,1.484507410115595,1271,10,20.823175527131163,30.53252244269287
2.6069657431671076,1.4844925685312078,1271,10,20.823175527131163,30.53252244269287
2.6218068838991466,1.484477727095202,1271,10,20.823175527131163,30.53252244269287
2.63664787625445,1.484462885807576,1271,10,20.823175527131163,30.53252244269287
2.6514887202345157,1.4844480446683281,1271,10,20.823175527131163,30.53252244269287
2.6663294158408437,1.4844332036774568,1271,10,20.823175527131163,30.53252244269287
2.681169963074932,1.484418362834961,1271,10,20.823175527131163,30.53252244269287
2.6960103619382756,1.4844035221408387,1271,10,20.823175527131163,30.53252244269287
2.7108506124323712,1.4843886815950886,1271,10,20.823175527131163,30.53252244269287
2.7256907145587137,1.4843738411977094,1271,10,20.823175527131163,30.53252244269287
2.740530668318796,1.4843590009486993,1271,10,20.823175527131163,30.53252244269287
2.755370473714112,1.484344160848057,1271,10,20.823175527131163,30.53252244269287
2.7702101307461513,1.484329320895781,1271,10,20.823175527131163,30.53252244269287
2.7850496394164086,1.4843144810918696,1271,10,20.823175527131163,30.53252244269287
2.7998889997263725,1.4842996414363216,1271,10,20.823175527131163,30.53252244269287
2.8147282116775334,1.4842848019291355,1271,10,20.823175527131163,30.53252244269287
2.8295672752713825,1.4842699625703093,1271,10,20.823175527131163,30.53252244269287
2.8444061905094076,1.4842551233598422,1271,10,20.823175527131163,30.53252244269287
2.859244957393097,1.4842402842977322,1271,10,20.823175527131163,30.53252244269287
2.87408357592394,1.484225445383978,1271,10,20.823175527131163,30.53252244269287
2.888922046103424,1.4842106066185783,1271,10,20.823175527131163,30.53252244269287
2.903760367933036,1.4841957680015314,1271,10,20.823175527131163,30.53252244269287
2.9185985414142626,1.4841809295328359,1271,10,20.823175527131163,30.53252244269287
2.9334365665485924,1.48416609121249,1271,10,20.823175527131163,30.53252244269287
2.948274443337511,1.4841512530404928,1271,10,20.823175527131163,30.53252244269287
2.9631121717825053,1.4841364150168421,1271,10,20.823175527131163,30.53252244269287
2.9779497518850593,1.484121577141537,1271,10,20.823175527131163,30.53252244269287
2.99278718364666,1.484106739414576,1271,10,20.823175527131163,30.53252244269287
3.007624467068794,1.484091901835957,1271,10,20.823175527131163,30.53252244269287
3.0224616021529442,1.4840770644056793,1271,10,20.823175527131163,30.53252244269287
3.0372985889005975,1.484062227123741,1271,10,20.823175527131163,30.53252244269287
3.0521354273132384,1.4840473899901405,1271,10,20.823175527131163,30.53252244269287
3.0669721173923525,1.4840325530048766,1271,10,20.823175527131163,30.53252244269287
3.0818086591394223,1.4840177161679478,1271,10,20.823175527131163,30.53252244269287
3.096645052555934,1.4840028794793523,1271,10,20.823175527131163,30.53252244269287
3.1114812976433712,1.4839880429390888,1271,10,20.823175527131163,30.53252244269287
3.1263173944032188,1.483973206547156,1271,10,20.823175527131163,30.53252244269287
3.1411533428369616,1.4839583703035522,1271,10,20.823175527131163,30.53252244269287
3.155989142946082,1.483943534208276,1271,10,20.823175527131163,30.53252244269287
3.170824794732064,1.483928698261326,1271,10,20.823175527131163,30.53252244269287
3.185660298196392,1.4839138624627004,1271,10,20.823175527131163,30.53252244269287
3.20049565334055,1.483899026812398,1271,10,20.823175527131163,30.53252244269287
3.215330860166022,1.4838841913104173,1271,10,20.823175527131163,30.53252244269287
3.2301659186742904,1.4838693559567566,1271,10,20.823175527131163,30.53252244269287
3.2450008288668384,1.4838545207514147,1271,10,20.823175527131163,30.53252244269287
3.259835590745151,1.48383968569439,1271,10,20.823175527131163,30.53252244269287
3.2746702043107105,1.483824850785681,1271,10,20.823175527131163,30.53252244269287
3.2895046695650003,1.483810016025286,1271,10,20.823175527131163,30.53252244269287
3.3043389865095047,1.4837951814132042,1271,10,20.823175527131163,30.53252244269287
3.319173155145705,1.4837803469494333,1271,10,20.823175527131163,30.53252244269287
3.334007175475086,1.4837655126339722,1271,10,20.823175527131163,30.53252244269287
3.3488410474991306,1.4837506784668195,1271,10,20.823175527131163,30.53252244269287
3.3636747712193213,1.4837358444479736,1271,10,20.823175527131163,30.53252244269287
3.3785083466371417,1.483721010577433,1271,10,20.823175527131163,30.53252244269287
3.393341773754074,1.4837061768551962,1271,10,20.823175527131163,30.53252244269287
3.4081750525716012,1.4836913432812617,1271,10,20.823175527131163,30.53252244269287
3.4230081830912065,1.4836765098556282,1271,10,20.823175527131163,30.53252244269287
3.437841165314373,1.483661676578294,1271,10,20.823175527131163,30.53252244269287
3.4526739992425832,1.4836468434492578,1271,10,20.823175527131163,30.53252244269287
3.46750668487732,1.483632010468518,1271,10,20.823175527131163,30.53252244269287
3.4823392222200664,1.483617177636073,1271,10,20.823175527131163,30.53252244269287
3.4971716112723055,1.4836023449519216,1271,10,20.823175527131163,30.53252244269287
3.512003852035518,1.483587512416062,1271,10,20.823175527131163,30.53252244269287
3.5268359445111894,1.4835726800284932,1271,10,20.823175527131163,30.53252244269287
