Vout,Iout,Irradiance,Temperature,MaxVoltage,MaxPower
0.011103273237757331,2.220676,1921,3,20.320939294528387,44.71417121231763
0.033309614403241,2.220676,1921,3,20.320939294528387,44.71417121231763
0.05551550411937863,2.2206646746591625,1921,3,20.320939294528387,44.71417121231763
0.07772086173489409,2.220642468317997,1921,3,20.320939294528387,44.71417121231763
0.09992566089155108,2.220620262429413,1921,3,20.320939294528387,44.71417121231763
0.12212992748151599,2.2205980570740183,1921,3,20.320939294528387,44.71417121231763
0.14433368540567987,2.2205758522770824,1921,3,20.320939294528387,44.71417121231763
0.16653695672637847,2.220553648012713,1921,3,20.320939294528387,44.71417121231763
0.18873976180860746,2.220531444257009,1921,3,20.320939294528387,44.71417121231763
0.21094211945061847,2.220509240987909,1921,3,20.320939294528387,44.71417121231763
0.23314404700446698,2.220487038185047,1921,3,20.320939294528387,44.71417121231763
0.2553455604872846,2.2204648358296253,1921,3,20.320939294528387,44.71417121231763
0.2775466746839903,2.220442633904292,1921,3,20.320939294528387,44.71417121231763
0.29974740324209925,2.220420432393029,1921,3,20.320939294528387,44.71417121231763
0.3219477587592357,2.220398231281053,1921,3,20.320939294528387,44.71417121231763
0.34414775286391375,2.2203760305547147,1921,3,20.320939294528387,44.71417121231763
0.366347396290102,2.2203538302014176,1921,3,20.320939294528387,44.71417121231763
0.3885466989460514,2.2203316302095333,1921,3,20.320939294528387,44.71417121231763
0.4107456699778273,2.220309430568327,1921,3,20.320939294528387,44.71417121231763
0.4329443178279529,2.220287231267891,1921,3,20.320939294528387,44.71417121231763
0.45514265028954126,2.2202650322990793,1921,3,20.320939294528387,44.71417121231763
0.47734067455626167,2.220242833653449,1921,3,20.320939294528387,44.71417121231763
0.49953839726846194,2.2202206353232072,1921,3,20.320939294528387,44.71417121231763
0.5217358245557417,2.2201984373011605,1921,3,20.320939294528387,44.71417121231763
0.5439329620762505,2.220176239580668,1921,3,20.320939294528387,44.71417121231763
0.5661298150529613,2.2201540421556007,1921,3,20.320939294528387,44.71417121231763
0.5883263883071543,2.2201318450203,1921,3,20.320939294528387,44.71417121231763
0.6105226862893233,2.220109648169543,1921,3,20.320939294528387,44.71417121231763
0.6327187131077048,2.2200874515985083,1921,3,20.320939294528387,44.71417121231763
0.654914472554612,2.220065255302746,1921,3,20.320939294528387,44.71417121231763
0.6771099681307422,2.2200430592781473,1921,3,20.320939294528387,44.71417121231763
0.699305203067614,2.22002086352092,1921,3,20.320939294528387,44.71417121231763
0.7215001803482789,2.2199986680275634,1921,3,20.320939294528387,44.71417121231763
0.7436949027264378,2.2199764727948463,1921,3,20.320939294528387,44.71417121231763
0.765889372744089,2.219954277819785,1921,3,20.320939294528387,44.71417121231763
0.7880835927478156,2.2199320830996263,1921,3,20.320939294528387,44.71417121231763
0.8102775649038216,2.219909888631828,1921,3,20.320939294528387,44.71417121231763
0.8324712912118107,2.219887694414044,1921,3,20.320939294528387,44.71417121231763
0.8546647735177968,2.2198655004441075,1921,3,20.320939294528387,44.71417121231763
0.8768580135259296,2.2198433067200187,1921,3,20.320939294528387,44.71417121231763
0.8990510128094087,2.219821113239932,1921,3,20.320939294528387,44.71417121231763
0.9212437728205608,2.2197989200021433,1921,3,20.320939294528387,44.71417121231763
0.9434362949001383,2.219776727005079,1921,3,20.320939294528387,44.71417121231763
0.9656285802859049,2.2197545342472877,1921,3,20.320939294528387,44.71417121231763
0.9878206301205597,2.2197323417274273,1921,3,20.320939294528387,44.71417121231763
1.010012445459051,2.2197101494442606,1921,3,20.320939294528387,44.71417121231763
1.0322040272753286,2.2196879573966455,1921,3,20.320939294528387,44.71417121231763
1.054395376468576,2.219665765583526,1921,3,20.320939294528387,44.71417121231763
1.0765864938689618,2.219643574003929,1921,3,20.320939294528387,44.71417121231763
1.0987773802429517,2.219621382656955,1921,3,20.320939294528387,44.71417121231763
1.1209680362982084,2.2195991915417737,1921,3,20.320939294528387,44.71417121231763
1.1431584626881173,2.219577000657619,1921,3,20.320939294528387,44.71417121231763
1.1653486600159608,2.2195548100037827,1921,3,20.320939294528387,44.71417121231763
1.1875386288387757,2.219532619579612,1921,3,20.320939294528387,44.71417121231763
1.2097283696709094,2.219510429384503,1921,3,20.320939294528387,44.71417121231763
1.2319178829873043,2.2194882394178994,1921,3,20.320939294528387,44.71417121231763
1.2541071692265333,2.219466049679286,1921,3,20.320939294528387,44.71417121231763
1.2762962287935928,2.2194438601681887,1921,3,20.320939294528387,44.71417121231763
1.2984850620624901,2.2194216708841688,1921,3,20.320939294528387,44.71417121231763
1.3206736693786258,2.2193994818268203,1921,3,20.320939294528387,44.71417121231763
1.3428620510609963,2.2193772929957705,1921,3,20.320939294528387,44.71417121231763
1.365050207404224,2.219355104390673,1921,3,20.320939294528387,44.71417121231763
1.3872381386804327,2.2193329160112096,1921,3,20.320939294528387,44.71417121231763
1.4094258451409796,2.2193107278570854,1921,3,20.320939294528387,44.71417121231763
1.4316133270180533,2.219288539928028,1921,3,20.320939294528387,44.71417121231763
1.4538005845261472,2.2192663522237863,1921,3,20.320939294528387,44.71417121231763
1.4759876178634226,2.219244164744128,1921,3,20.320939294528387,44.71417121231763
1.4981744272129636,2.219221977488839,1921,3,20.320939294528387,44.71417121231763
1.520361012743939,2.2191997904577203,1921,3,20.320939294528387,44.71417121231763
1.542547374612672,2.2191776036505892,1921,3,20.320939294528387,44.71417121231763
1.5647335129636282,2.219155417067277,1921,3,20.320939294528387,44.71417121231763
1.5869194279303287,2.219133230707627,1921,3,20.320939294528387,44.71417121231763
1.609105119636192,2.2191110445714948,1921,3,20.320939294528387,44.71417121231763
1.6312905881953106,2.2190888586587465,1921,3,20.320939294528387,44.71417121231763
1.6534758337131699,2.2190666729692596,1921,3,20.320939294528387,44.71417121231763
1.6756608562873092,2.2190444875029187,1921,3,20.320939294528387,44.71417121231763
1.6978456560079336,2.21902230225962,1921,3,20.320939294528387,44.71417121231763
1.7200302329584785,2.219000117239264,1921,3,20.320939294528387,44.71417121231763
1.7422145872161303,2.218977932441762,1921,3,20.320939294528387,44.71417121231763
1.764398718852307,2.21895574786703,1921,3,20.320939294528387,44.71417121231763
1.7865826279331016,2.218933563514991,1921,3,20.320939294528387,44.71417121231763
1.8087663145196933,2.218911379385573,1921,3,20.320939294528387,44.71417121231763
1.8309497786687248,2.2188891954787104,1921,3,20.320939294528387,44.71417121231763
1.85313302043265,2.2188670117943423,1921,3,20.320939294528387,44.71417121231763
1.8753160398600581,2.218844828332412,1921,3,20.320939294528387,44.71417121231763
1.897498836995971,2.218822645092866,1921,3,20.320939294528387,44.71417121231763
1.9196814118821166,2.218800462075657,1921,3,20.320939294528387,44.71417121231763
1.9418637645571821,2.21877827928074,1921,3,20.320939294528387,44.71417121231763
1.9640458950570499,2.2187560967080717,1921,3,20.320939294528387,44.71417121231763
1.9862278034150112,2.218733914357615,1921,3,20.320939294528387,44.71417121231763
2.008409489661966,2.2187117322293335,1921,3,20.320939294528387,44.71417121231763
2.030590953826609,2.2186895503231936,1921,3,20.320939294528387,44.71417121231763
2.052772195935596,2.218667368639165,1921,3,20.320939294528387,44.71417121231763
2.074953216013703,2.2186451871772186,1921,3,20.320939294528387,44.71417121231763
2.0971340140839714,2.2186230059373275,1921,3,20.320939294528387,44.71417121231763
2.119314590167838,2.2186008249194678,1921,3,20.320939294528387,44.71417121231763
2.141494944285262,2.2185786441236157,1921,3,20.320939294528387,44.71417121231763
2.163675076454838,2.2185564635497497,1921,3,20.320939294528387,44.71417121231763
2.1858549866939003,2.2185342831978505,1921,3,20.320939294528387,44.71417121231763
2.2080346750186184,2.2185121030678987,1921,3,20.320939294528387,44.71417121231763
2.230214141444091,2.218489923159878,1921,3,20.320939294528387,44.71417121231763
2.2523933859844223,2.218467743473771,1921,3,20.320939294528387,44.71417121231763
2.274572408652806,2.2184455640095635,1921,3,20.320939294528387,44.71417121231763
2.2967512094615867,2.218423384767241,1921,3,20.320939294528387,44.71417121231763
2.3189297884223334,2.218401205746791,1921,3,20.320939294528387,44.71417121231763
2.3411081455458933,2.2183790269482,1921,3,20.320939294528387,44.71417121231763
2.363286280842451,2.218356848371457,1921,3,20.320939294528387,44.71417121231763
2.385464194321577,2.2183346700165516,1921,3,20.320939294528387,44.71417121231763
2.407641885992275,2.2183124918834727,1921,3,20.320939294528387,44.71417121231763
2.42981935586303,2.2182903139722114,1921,3,20.320939294528387,44.71417121231763
2.4519966039418413,2.2182681362827585,1921,3,20.320939294528387,44.71417121231763
2.4741736302362645,2.2182459588151056,1921,3,20.320939294528387,44.71417121231763
2.4963504347534444,2.2182237815692445,1921,3,20.320939294528387,44.71417121231763
2.518527017500146,2.218201604545168,1921,3,20.320939294528387,44.71417121231763
2.5407033784827857,2.2181794277428684,1921,3,20.320939294528387,44.71417121231763
2.5628795177074557,2.2181572511623395,1921,3,20.320939294528387,44.71417121231763
2.58505543517995,2.2181350748035746,1921,3,20.320939294528387,44.71417121231763
2.607231130905787,2.2181128986665675,1921,3,20.320939294528387,44.71417121231763
2.629406604890232,2.2180907227513127,1921,3,20.320939294528387,44.71417121231763
2.651581857138315,2.2180685470578045,1921,3,20.320939294528387,44.71417121231763
2.67375688765485,2.2180463715860377,1921,3,20.320939294528387,44.71417121231763
2.69593169644445,2.2180241963360072,1921,3,20.320939294528387,44.71417121231763
2.7181062835115455,2.2180020213077083,1921,3,20.320939294528387,44.71417121231763
2.7402806488603955,2.217979846501136,1921,3,20.320939294528387,44.71417121231763
2.762454792495101,2.2179576719162863,1921,3,20.320939294528387,44.71417121231763
2.78462871441962,2.217935497553155,1921,3,20.320939294528387,44.71417121231763
2.8068024146377746,2.2179133234117376,1921,3,20.320939294528387,44.71417121231763
2.828975893153264,2.2178911494920306,1921,3,20.320939294528387,44.71417121231763
2.851149149969674,2.21786897579403,1921,3,20.320939294528387,44.71417121231763
2.8733221850904833,2.217846802317732,1921,3,20.320939294528387,44.71417121231763
2.8954949985190757,2.217824629063133,1921,3,20.320939294528387,44.71417121231763
2.917667590258743,2.2178024560302294,1921,3,20.320939294528387,44.71417121231763
2.9398399603126957,2.2177802832190183,1921,3,20.320939294528387,44.71417121231763
2.9620121086840667,2.2177581106294957,1921,3,20.320939294528387,44.71417121231763
2.9841840353759195,2.2177359382616593,1921,3,20.320939294528387,44.71417121231763
3.006355740391251,2.217713766115505,1921,3,20.320939294528387,44.71417121231763
3.028527223733,2.2176915941910305,1921,3,20.320939294528387,44.71417121231763
3.0506984854040473,2.2176694224882323,1921,3,20.320939294528387,44.71417121231763
3.0728695254072247,2.2176472510071075,1921,3,20.320939294528387,44.71417121231763
3.0950403437453153,2.2176250797476538,1921,3,20.320939294528387,44.71417121231763
3.1172109404210584,2.2176029087098676,1921,3,20.320939294528387,44.71417121231763
3.1393813154371535,2.217580737893747,1921,3,20.320939294528387,44.71417121231763
3.161551468796264,2.2175585672992884,1921,3,20.320939294528387,44.71417121231763
3.183721400501016,2.217536396926489,1921,3,20.320939294528387,44.71417121231763
3.205891110554007,2.217514226775347,1921,3,20.320939294528387,44.71417121231763
3.2280605989578035,2.2174920568458596,1921,3,20.320939294528387,44.71417121231763
3.250229865714944,2.2174698871380234,1921,3,20.320939294528387,44.71417121231763
3.272398910827946,2.2174477176518366,1921,3,20.320939294528387,44.71417121231763
3.2945677342992994,2.2174255483872964,1921,3,20.320939294528387,44.71417121231763
3.316736336131476,2.2174033793444003,1921,3,20.320939294528387,44.71417121231763
3.3389047163269256,2.217381210523146,1921,3,20.320939294528387,44.71417121231763
3.361072874888083,2.2173590419235305,1921,3,20.320939294528387,44.71417121231763
3.383240811817362,2.2173368735455523,1921,3,20.320939294528387,44.71417121231763
3.4054085271171664,2.217314705389208,1921,3,20.320939294528387,44.71417121231763
3.4275760207898793,2.217292537454495,1921,3,20.320939294528387,44.71417121231763
3.4497432928378755,2.2172703697414122,1921,3,20.320939294528387,44.71417121231763
3.4719103432635166,2.2172482022499564,1921,3,20.320939294528387,44.71417121231763
3.494077172069152,2.217226034980125,1921,3,20.320939294528387,44.71417121231763
3.5162437792571217,2.217203867931916,1921,3,20.320939294528387,44.71417121231763
3.5384101648297555,2.2171817011053276,1921,3,20.320939294528387,44.71417121231763
3.560576328789374,2.217159534500356,1921,3,20.320939294528387,44.71417121231763
3.5827422711382915,2.217137368117,1921,3,20.320939294528387,44.71417121231763
3.6049079918788136,2.217115201955257,1921,3,20.320939294528387,44.71417121231763
3.6270734910132374,2.217093036015125,1921,3,20.320939294528387,44.71417121231763
3.649238768543856,2.217070870296601,1921,3,20.320939294528387,44.71417121231763
3.6714038244729563,2.217048704799683,1921,3,20.320939294528387,44.71417121231763
3.693568658802818,2.2170265395243693,1921,3,20.320939294528387,44.71417121231763
3.715733271535718,2.2170043744706565,1921,3,20.320939294528387,44.71417121231763
3.7378976626739266,2.216982209638543,1921,3,20.320939294528387,44.71417121231763
3.76006183221971,2.216960045028027,1921,3,20.320939294528387,44.71417121231763
3.7822257801753314,2.2169378806391054,1921,3,20.320939294528387,44.71417121231763
3.804389506543051,2.216915716471776,1921,3,20.320939294528387,44.71417121231763
3.826553011325123,2.2168935525260367,1921,3,20.320939294528387,44.71417121231763
3.8487162945238014,2.2168713888018856,1921,3,20.320939294528387,44.71417121231763
3.870879356141335,2.21684922529932,1921,3,20.320939294528387,44.71417121231763
3.8930421961799726,2.2168270620183375,1921,3,20.320939294528387,44.71417121231763
3.9152048146419567,2.2168048989589364,1921,3,20.320939294528387,44.71417121231763
3.9373672115295295,2.216782736121114,1921,3,20.320939294528387,44.71417121231763
3.9595293868449333,2.2167605735048683,1921,3,20.320939294528387,44.71417121231763
3.981691340590404,2.216738411110197,1921,3,20.320939294528387,44.71417121231763
4.003853072768179,2.216716248937098,1921,3,20.320939294528387,44.71417121231763
4.026014583380495,2.2166940869855685,1921,3,20.320939294528387,44.71417121231763
4.048175872429582,2.216671925255607,1921,3,20.320939294528387,44.71417121231763
4.0703369399176745,2.216649763747211,1921,3,20.320939294528387,44.71417121231763
4.092497785847001,2.216627602460378,1921,3,20.320939294528387,44.71417121231763
4.114658410219793,2.216605441395106,1921,3,20.320939294528387,44.71417121231763
4.1368188130382775,2.2165832805513928,1921,3,20.320939294528387,44.71417121231763
4.158978994304681,2.2165611199292363,1921,3,20.320939294528387,44.71417121231763
4.181138954021231,2.216538959528634,1921,3,20.320939294528387,44.71417121231763
4.203298692190152,2.2165167993495833,1921,3,20.320939294528387,44.71417121231763
4.225458208813668,2.216494639392083,1921,3,20.320939294528387,44.71417121231763
4.247617503894004,2.21647247965613,1921,3,20.320939294528387,44.71417121231763
4.269776577433382,2.2164503201417225,1921,3,20.320939294528387,44.71417121231763
4.291935429434027,2.2164281608488583,1921,3,20.320939294528387,44.71417121231763
4.314094059898157,2.2164060017775347,1921,3,20.320939294528387,44.71417121231763
4.336252468827997,2.21638384292775,1921,3,20.320939294528387,44.71417121231763
4.358410656225764,2.216361684299502,1921,3,20.320939294528387,44.71417121231763
4.380568622093681,2.2163395258927876,1921,3,20.320939294528387,44.71417121231763
4.402726366433965,2.216317367707606,1921,3,20.320939294528387,44.71417121231763
4.4248838892488385,2.216295209743954,1921,3,20.320939294528387,44.71417121231763
4.447041190540521,2.2162730520018292,1921,3,20.320939294528387,44.71417121231763
4.469198270311228,2.2162508944812305,1921,3,20.320939294528387,44.71417121231763
4.49135512856318,2.2162287371821545,1921,3,20.320939294528387,44.71417121231763
4.513511765298593,2.2162065801045996,1921,3,20.320939294528387,44.71417121231763
4.535668180519688,2.216184423248563,1921,3,20.320939294528387,44.71417121231763
4.55782437422868,2.2161622666140435,1921,3,20.320939294528387,44.71417121231763
4.579980346427787,2.2161401102010383,1921,3,20.320939294528387,44.71417121231763
4.602136097119226,2.216117954009545,1921,3,20.320939294528387,44.71417121231763
4.6242916263052125,2.2160957980395612,1921,3,20.320939294528387,44.71417121231763
4.646446933987965,2.2160736422910854,1921,3,20.320939294528387,44.71417121231763
4.6686020201697,2.216051486764115,1921,3,20.320939294528387,44.71417121231763
4.690756884852632,2.216029331458648,1921,3,20.320939294528387,44.71417121231763
4.712911528038979,2.216007176374682,1921,3,20.320939294528387,44.71417121231763
4.735065949730955,2.215985021512214,1921,3,20.320939294528387,44.71417121231763
4.757220149930779,2.2159628668712434,1921,3,20.320939294528387,44.71417121231763
4.779374128640662,2.215940712451767,1921,3,20.320939294528387,44.71417121231763
4.801527885862824,2.2159185582537826,1921,3,20.320939294528387,44.71417121231763
4.823681421599479,2.2158964042772884,1921,3,20.320939294528387,44.71417121231763
4.845834735852842,2.2158742505222815,1921,3,20.320939294528387,44.71417121231763
4.867987828625128,2.21585209698876,1921,3,20.320939294528387,44.71417121231763
4.890140699918551,2.2158299436767224,1921,3,20.320939294528387,44.71417121231763
4.91229334973533,2.2158077905861653,1921,3,20.320939294528387,44.71417121231763
4.934445778077676,2.215785637717087,1921,3,20.320939294528387,44.71417121231763
4.9565979849478055,2.215763485069486,1921,3,20.320939294528387,44.71417121231763
4.978749970347933,2.2157413326433586,1921,3,20.320939294528387,44.71417121231763
5.000901734280275,2.215719180438704,1921,3,20.320939294528387,44.71417121231763
5.023053276747042,2.215697028455519,1921,3,20.320939294528387,44.71417121231763
5.045204597750453,2.215674876693802,1921,3,20.320939294528387,44.71417121231763
5.067355697292721,2.21565272515355,1921,3,20.320939294528387,44.71417121231763
5.08950657537606,2.215630573834762,1921,3,20.320939294528387,44.71417121231763
5.111657232002686,2.215608422737435,1921,3,20.320939294528387,44.71417121231763
5.1338076671748105,2.2155862718615666,1921,3,20.320939294528387,44.71417121231763
5.155957880894651,2.215564121207155,1921,3,20.320939294528387,44.71417121231763
5.17810787316442,2.215541970774198,1921,3,20.320939294528387,44.71417121231763
5.200257643986332,2.2155198205626934,1921,3,20.320939294528387,44.71417121231763
5.222407193362602,2.215497670572639,1921,3,20.320939294528387,44.71417121231763
5.2445565212954435,2.2154755208040315,1921,3,20.320939294528387,44.71417121231763
5.26670562778707,2.2154533712568703,1921,3,20.320939294528387,44.71417121231763
5.288854512839697,2.2154312219311527,1921,3,20.320939294528387,44.71417121231763
5.311003176455536,2.215409072826876,1921,3,20.320939294528387,44.71417121231763
5.333151618636804,2.2153869239440382,1921,3,20.320939294528387,44.71417121231763
5.355299839385714,2.2153647752826373,1921,3,20.320939294528387,44.71417121231763
5.377447838704481,2.215342626842671,1921,3,20.320939294528387,44.71417121231763
