Vout,Iout,Irradiance,Temperature,MaxVoltage,MaxPower
0.005092131037201565,1.018436,881,3,20.306527284321707,20.26894662570369
0.015276298953282304,1.018436,881,3,20.306527284321707,20.26894662570369
0.025460259827783736,1.0184308060253626,881,3,20.306527284321707,20.26894662570369
0.035643976672796285,1.0184206218574465,881,3,20.306527284321707,20.26894662570369
0.045827437400029404,1.0184104378970915,881,3,20.306527284321707,20.26894662570369
0.056010653884026845,1.018400254181265,881,3,20.306527284321707,20.26894662570369
0.06619363708610304,1.018390070721556,881,3,20.306527284321707,20.26894662570369
0.07637639712438282,1.0183798875060905,881,3,20.306527284321707,20.26894662570369
0.08655894333856488,1.0183697045239066,881,3,20.306527284321707,20.26894662570369
0.09674128434981513,1.0183595217648869,881,3,20.306527284321707,20.26894662570369
0.10692342811605171,1.018349339219691,881,3,20.306527284321707,20.26894662570369
0.11710538198297638,1.018339156879698,881,3,20.306527284321707,20.26894662570369
0.1272871527311793,1.01832897473695,881,3,20.306527284321707,20.26894662570369
0.1374687466196197,1.0183187927841013,881,3,20.306527284321707,20.26894662570369
0.14765016942576087,1.0183086110143713,881,3,20.306527284321707,20.26894662570369
0.15783142648261736,1.018298429421501,881,3,20.306527284321707,20.26894662570369
0.1680125227129515,1.018288247999713,881,3,20.306527284321707,20.26894662570369
0.17819346266083877,1.0182780667436744,881,3,20.306527284321707,20.26894662570369
0.1883742505208047,1.0182678856484622,881,3,20.306527284321707,20.26894662570369
0.19855489016471972,1.0182577047095325,881,3,20.306527284321707,20.26894662570369
0.20873538516662465,1.0182475239226905,881,3,20.306527284321707,20.26894662570369
0.21891573882564633,1.0182373432840648,881,3,20.306527284321707,20.26894662570369
0.22909595418714992,1.018227162790081,881,3,20.306527284321707,20.26894662570369
0.2392760340622637,1.0182169824374399,881,3,20.306527284321707,20.26894662570369
0.24945598104590147,1.0182068022230966,881,3,20.306527284321707,20.26894662570369
0.2596357975333987,1.0181966221442393,881,3,20.306527284321707,20.26894662570369
0.2698154857358683,1.0181864421982738,881,3,20.306527284321707,20.26894662570369
0.2799950476943747,1.0181762623828043,881,3,20.306527284321707,20.26894662570369
0.29017448529301826,1.0181660826956198,881,3,20.306527284321707,20.26894662570369
0.30035380027101155,1.0181559031346792,881,3,20.306527284321707,20.26894662570369
0.31053299423382813,1.0181457236980986,881,3,20.306527284321707,20.26894662570369
0.32071206866349194,1.0181355443841387,881,3,20.306527284321707,20.26894662570369
0.3308910249280758,1.0181253651911937,881,3,20.306527284321707,20.26894662570369
0.34106986429046937,1.018115186117782,881,3,20.306527284321707,20.26894662570369
0.3512485879164719,1.0181050071625353,881,3,20.306527284321707,20.26894662570369
0.3614271968822621,1.0180948283241908,881,3,20.306527284321707,20.26894662570369
0.3716056921812946,1.0180846496015827,881,3,20.306527284321707,20.26894662570369
0.38178407473066384,1.018074470993635,881,3,20.306527284321707,20.26894662570369
0.3919623453769802,1.0180642924993537,881,3,20.306527284321707,20.26894662570369
0.4021405049017927,1.018054114117822,881,3,20.306527284321707,20.26894662570369
0.412318554026595,1.0180439358481936,881,3,20.306527284321707,20.26894662570369
0.422496493417446,1.0180337576896867,881,3,20.306527284321707,20.26894662570369
0.43267432368923564,1.0180235796415797,881,3,20.306527284321707,20.26894662570369
0.4428520454096211,1.0180134017032068,881,3,20.306527284321707,20.26894662570369
0.45302965910266174,1.0180032238739527,881,3,20.306527284321707,20.26894662570369
0.46320716525217276,1.01799304615325,881,3,20.306527284321707,20.26894662570369
0.47338456430482273,1.0179828685405747,881,3,20.306527284321707,20.26894662570369
0.48356185667299073,1.0179726910354432,881,3,20.306527284321707,20.26894662570369
0.4937390427374051,1.0179625136374082,881,3,20.306527284321707,20.26894662570369
0.5039161228495784,1.0179523363460579,881,3,20.306527284321707,20.26894662570369
0.514093097334056,1.0179421591610112,881,3,20.306527284321707,20.26894662570369
0.5242699664904898,1.0179319820819166,881,3,20.306527284321707,20.26894662570369
0.5344467305955551,1.01792180510845,881,3,20.306527284321707,20.26894662570369
0.5446233899047169,1.0179116282403111,881,3,20.306527284321707,20.26894662570369
0.554799944653863,1.0179014514772238,881,3,20.306527284321707,20.26894662570369
0.5649763950608095,1.0178912748189324,881,3,20.306527284321707,20.26894662570369
0.5751527413266923,1.017881098265201,881,3,20.306527284321707,20.26894662570369
0.5853289836372488,1.0178709218158115,881,3,20.306527284321707,20.26894662570369
0.595505122164005,1.0178607454705635,881,3,20.306527284321707,20.26894662570369
0.6056811570653667,1.0178505692292705,881,3,20.306527284321707,20.26894662570369
0.6158570884876304,1.0178403930917614,881,3,20.306527284321707,20.26894662570369
0.6260329165659141,1.0178302170578777,881,3,20.306527284321707,20.26894662570369
0.6362086414250187,1.017820041127473,881,3,20.306527284321707,20.26894662570369
0.64638426318022,1.0178098653004122,881,3,20.306527284321707,20.26894662570369
0.6565597819380035,1.0177996895765709,881,3,20.306527284321707,20.26894662570369
0.6667351977967388,1.017789513955833,881,3,20.306527284321707,20.26894662570369
0.6769105108473059,1.0177793384380929,881,3,20.306527284321707,20.26894662570369
0.6870857211736702,1.0177691630232517,881,3,20.306527284321707,20.26894662570369
0.6972608288534149,1.0177589877112188,881,3,20.306527284321707,20.26894662570369
0.707435833958232,1.0177488125019098,881,3,20.306527284321707,20.26894662570369
0.717610736554376,1.0177386373952477,881,3,20.306527284321707,20.26894662570369
0.7277855367030812,1.0177284623911604,881,3,20.306527284321707,20.26894662570369
0.7379602344609497,1.0177182874895818,881,3,20.306527284321707,20.26894662570369
0.7481348298803062,1.0177081126904506,881,3,20.306527284321707,20.26894662570369
0.7583093230095276,1.0176979379937101,881,3,20.306527284321707,20.26894662570369
0.7684837138933469,1.0176877633993082,881,3,20.306527284321707,20.26894662570369
0.7786580025731337,1.0176775889071965,881,3,20.306527284321707,20.26894662570369
0.7888321890871525,1.0176674145173301,881,3,20.306527284321707,20.26894662570369
0.7990062734708021,1.017657240229668,881,3,20.306527284321707,20.26894662570369
0.8091802557568364,1.0176470660441712,881,3,20.306527284321707,20.26894662570369
0.8193541359755663,1.017636891960805,881,3,20.306527284321707,20.26894662570369
0.8295279141550497,1.0176267179795364,881,3,20.306527284321707,20.26894662570369
0.8397015903212633,1.017616544100335,881,3,20.306527284321707,20.26894662570369
0.8498751644982638,1.017606370323173,881,3,20.306527284321707,20.26894662570369
0.8600486367083351,1.0175961966480243,881,3,20.306527284321707,20.26894662570369
0.8702220069721244,1.0175860230748646,881,3,20.306527284321707,20.26894662570369
0.8803952753087687,1.017575849603672,881,3,20.306527284321707,20.26894662570369
0.8905684417360114,1.0175656762344254,881,3,20.306527284321707,20.26894662570369
0.9007415062703077,1.0175555029671062,881,3,20.306527284321707,20.26894662570369
0.9109144689269263,1.0175453298016963,881,3,20.306527284321707,20.26894662570369
0.921087329720038,1.0175351567381794,881,3,20.306527284321707,20.26894662570369
0.9312600886628024,1.0175249837765399,881,3,20.306527284321707,20.26894662570369
0.9414327457674446,1.0175148109167642,881,3,20.306527284321707,20.26894662570369
0.9516053010453273,1.0175046381588386,881,3,20.306527284321707,20.26894662570369
0.961777754507017,1.0174944655027514,881,3,20.306527284321707,20.26894662570369
0.9719501061623457,1.0174842929484909,881,3,20.306527284321707,20.26894662570369
0.9821223560204669,1.0174741204960462,881,3,20.306527284321707,20.26894662570369
0.9922945040899083,1.0174639481454082,881,3,20.306527284321707,20.26894662570369
1.002466550378619,1.0174537758965674,881,3,20.306527284321707,20.26894662570369
1.0126384948940157,1.0174436037495151,881,3,20.306527284321707,20.26894662570369
1.0228103376430218,1.0174334317042437,881,3,20.306527284321707,20.26894662570369
1.032982078632107,1.0174232597607455,881,3,20.306527284321707,20.26894662570369
1.0431537178673205,1.0174130879190137,881,3,20.306527284321707,20.26894662570369
1.0533252553543253,1.0174029161790419,881,3,20.306527284321707,20.26894662570369
1.063496691098426,1.0173927445408237,881,3,20.306527284321707,20.26894662570369
1.073668025104598,1.017382573004354,881,3,20.306527284321707,20.26894662570369
1.0838392573775117,1.017372401569627,881,3,20.306527284321707,20.26894662570369
1.0940103879215564,1.017362230236638,881,3,20.306527284321707,20.26894662570369
1.104181416740862,1.0173520590053822,881,3,20.306527284321707,20.26894662570369
1.1143523438393186,1.0173418878758553,881,3,20.306527284321707,20.26894662570369
1.1245231692205953,1.0173317168480531,881,3,20.306527284321707,20.26894662570369
1.1346938928881574,1.0173215459219718,881,3,20.306527284321707,20.26894662570369
1.1448645148452816,1.0173113750976077,881,3,20.306527284321707,20.26894662570369
1.1550350350950704,1.0173012043749572,881,3,20.306527284321707,20.26894662570369
1.1652054536404663,1.017291033754017,881,3,20.306527284321707,20.26894662570369
1.1753757704842631,1.0172808632347843,881,3,20.306527284321707,20.26894662570369
1.1855459856291184,1.0172706928172561,881,3,20.306527284321707,20.26894662570369
1.195716099077563,1.0172605225014293,881,3,20.306527284321707,20.26894662570369
1.2058861108320118,1.0172503522873015,881,3,20.306527284321707,20.26894662570369
1.2160560208947713,1.01724018217487,881,3,20.306527284321707,20.26894662570369
1.2262258292680495,1.0172300121641327,881,3,20.306527284321707,20.26894662570369
1.236395535953962,1.0172198422550869,881,3,20.306527284321707,20.26894662570369
1.2465651409545404,1.0172096724477306,881,3,20.306527284321707,20.26894662570369
1.256734644271738,1.0171995027420617,881,3,20.306527284321707,20.26894662570369
1.2669040459074363,1.0171893331380781,881,3,20.306527284321707,20.26894662570369
1.2770733458634493,1.0171791636357779,881,3,20.306527284321707,20.26894662570369
1.2872425441415307,1.0171689942351592,881,3,20.306527284321707,20.26894662570369
1.2974116407433767,1.01715882493622,881,3,20.306527284321707,20.26894662570369
1.307580635670632,1.0171486557389589,881,3,20.306527284321707,20.26894662570369
1.317749528924892,1.017138486643374,881,3,20.306527284321707,20.26894662570369
1.3279183205077079,1.0171283176494637,881,3,20.306527284321707,20.26894662570369
1.3380870104205902,1.0171181487572263,881,3,20.306527284321707,20.26894662570369
1.3482555986650107,1.0171079799666605,881,3,20.306527284321707,20.26894662570369
1.3584240852424068,1.0170978112777644,881,3,20.306527284321707,20.26894662570369
1.3685924701541832,1.0170876426905369,881,3,20.306527284321707,20.26894662570369
1.3787607534017146,1.0170774742049764,881,3,20.306527284321707,20.26894662570369
1.3889289349863478,1.0170673058210815,881,3,20.306527284321707,20.26894662570369
1.3990970149094053,1.0170571375388509,881,3,20.306527284321707,20.26894662570369
1.4092649931721846,1.0170469693582829,881,3,20.306527284321707,20.26894662570369
1.4194328697759626,1.0170368012793767,881,3,20.306527284321707,20.26894662570369
1.4296006447219956,1.0170266333021307,881,3,20.306527284321707,20.26894662570369
1.4397683180115222,1.017016465426544,881,3,20.306527284321707,20.26894662570369
1.4499358896457626,1.0170062976526146,881,3,20.306527284321707,20.26894662570369
1.4601033596259225,1.0169961299803418,881,3,20.306527284321707,20.26894662570369
1.4702707279531921,1.0169859624097244,881,3,20.306527284321707,20.26894662570369
1.480437994628749,1.016975794940761,881,3,20.306527284321707,20.26894662570369
1.490605159653758,1.0169656275734504,881,3,20.306527284321707,20.26894662570369
1.5007722230293716,1.0169554603077917,881,3,20.306527284321707,20.26894662570369
1.5109391847567337,1.0169452931437835,881,3,20.306527284321707,20.26894662570369
1.5211060448369769,1.0169351260814246,881,3,20.306527284321707,20.26894662570369
1.5312728032712257,1.016924959120714,881,3,20.306527284321707,20.26894662570369
1.5414394600605954,1.0169147922616504,881,3,20.306527284321707,20.26894662570369
1.5516060152061946,1.0169046255042327,881,3,20.306527284321707,20.26894662570369
1.561772468709124,1.01689445884846,881,3,20.306527284321707,20.26894662570369
1.5719388205704776,1.016884292294331,881,3,20.306527284321707,20.26894662570369
1.5821050707913447,1.0168741258418448,881,3,20.306527284321707,20.26894662570369
1.5922712193728072,1.0168639594910003,881,3,20.306527284321707,20.26894662570369
1.6024372663159436,1.016853793241796,881,3,20.306527284321707,20.26894662570369
1.6126032116218263,1.0168436270942312,881,3,20.306527284321707,20.26894662570369
1.6227690552915248,1.0168334610483045,881,3,20.306527284321707,20.26894662570369
1.632934797326103,1.0168232951040153,881,3,20.306527284321707,20.26894662570369
1.643100437726622,1.0168131292613622,881,3,20.306527284321707,20.26894662570369
1.6532659764941384,1.0168029635203444,881,3,20.306527284321707,20.26894662570369
1.6634314136297073,1.0167927978809603,881,3,20.306527284321707,20.26894662570369
1.6735967491343795,1.0167826323432094,881,3,20.306527284321707,20.26894662570369
1.6837619830092032,1.0167724669070903,881,3,20.306527284321707,20.26894662570369
1.6939271152552253,1.0167623015726024,881,3,20.306527284321707,20.26894662570369
1.704092145873489,1.016752136339744,881,3,20.306527284321707,20.26894662570369
1.7142570748650354,1.0167419712085146,881,3,20.306527284321707,20.26894662570369
1.7244219022309049,1.0167318061789128,881,3,20.306527284321707,20.26894662570369
1.7345866279721347,1.0167216412509377,881,3,20.306527284321707,20.26894662570369
1.7447512520897615,1.0167114764245884,881,3,20.306527284321707,20.26894662570369
1.7549157745848192,1.0167013116998636,881,3,20.306527284321707,20.26894662570369
1.7650801954583408,1.0166911470767626,881,3,20.306527284321707,20.26894662570369
1.7752445147113587,1.0166809825552838,881,3,20.306527284321707,20.26894662570369
1.7854087323449033,1.016670818135427,881,3,20.306527284321707,20.26894662570369
1.795572848360004,1.0166606538171903,881,3,20.306527284321707,20.26894662570369
1.8057368627576886,1.0166504896005732,881,3,20.306527284321707,20.26894662570369
1.8159007755389849,1.0166403254855745,881,3,20.306527284321707,20.26894662570369
1.8260645867049194,1.0166301614721933,881,3,20.306527284321707,20.26894662570369
1.836228296256518,1.0166199975604284,881,3,20.306527284321707,20.26894662570369
1.8463919041948047,1.016609833750279,881,3,20.306527284321707,20.26894662570369
1.856555410520805,1.0165996700417437,881,3,20.306527284321707,20.26894662570369
1.8667188152355418,1.0165895064348218,881,3,20.306527284321707,20.26894662570369
1.876882118340038,1.016579342929512,881,3,20.306527284321707,20.26894662570369
1.8870453198353156,1.0165691795258136,881,3,20.306527284321707,20.26894662570369
1.8972084197223977,1.0165590162237255,881,3,20.306527284321707,20.26894662570369
1.9073714180023051,1.0165488530232467,881,3,20.306527284321707,20.26894662570369
1.9175343146760586,1.0165386899243758,881,3,20.306527284321707,20.26894662570369
1.927697109744679,1.0165285269271123,881,3,20.306527284321707,20.26894662570369
1.9378598032091858,1.0165183640314548,881,3,20.306527284321707,20.26894662570369
1.9480223950706,1.0165082012374025,881,3,20.306527284321707,20.26894662570369
1.9581848853299404,1.0164980385449542,881,3,20.306527284321707,20.26894662570369
1.9683472739882262,1.0164878759541092,881,3,20.306527284321707,20.26894662570369
1.978509561046477,1.0164777134648662,881,3,20.306527284321707,20.26894662570369
1.9886717465057104,1.016467551077224,881,3,20.306527284321707,20.26894662570369
1.9988338303669455,1.016457388791182,881,3,20.306527284321707,20.26894662570369
2.008995812631201,1.016447226606739,881,3,20.306527284321707,20.26894662570369
2.0191576932994946,1.016437064523894,881,3,20.306527284321707,20.26894662570369
2.0293194723728436,1.016426902542646,881,3,20.306527284321707,20.26894662570369
2.0394811498522665,1.016416740662994,881,3,20.306527284321707,20.26894662570369
2.0496427257387806,1.0164065788849368,881,3,20.306527284321707,20.26894662570369
2.059804200033403,1.0163964172084736,881,3,20.306527284321707,20.26894662570369
2.069965572737151,1.0163862556336032,881,3,20.306527284321707,20.26894662570369
2.080126843851042,1.0163760941603248,881,3,20.306527284321707,20.26894662570369
2.090288013376092,1.0163659327886372,881,3,20.306527284321707,20.26894662570369
2.1004490813133185,1.0163557715185394,881,3,20.306527284321707,20.26894662570369
2.1106100476637386,1.0163456103500306,881,3,20.306527284321707,20.26894662570369
2.1207709124283687,1.0163354492831094,881,3,20.306527284321707,20.26894662570369
2.1309316756082257,1.0163252883177751,881,3,20.306527284321707,20.26894662570369
2.1410923372043262,1.0163151274540265,881,3,20.306527284321707,20.26894662570369
2.1512528972176854,1.0163049666918629,881,3,20.306527284321707,20.26894662570369
2.1614133556493207,1.0162948060312829,881,3,20.306527284321707,20.26894662570369
2.171573712500249,1.0162846454722856,881,3,20.306527284321707,20.26894662570369
2.1817339677714847,1.01627448501487,881,3,20.306527284321707,20.26894662570369
2.1918941214640446,1.016264324659035,881,3,20.306527284321707,20.26894662570369
2.202054173578946,1.01625416440478,881,3,20.306527284321707,20.26894662570369
2.212214124117203,1.0162440042521035,881,3,20.306527284321707,20.26894662570369
2.222373973079833,1.0162338442010046,881,3,20.306527284321707,20.26894662570369
2.2325337204678517,1.0162236842514822,881,3,20.306527284321707,20.26894662570369
2.242693366282275,1.0162135244035357,881,3,20.306527284321707,20.26894662570369
2.2528529105241186,1.0162033646571635,881,3,20.306527284321707,20.26894662570369
2.2630123531943984,1.0161932050123652,881,3,20.306527284321707,20.26894662570369
2.27317169429413,1.0161830454691394,881,3,20.306527284321707,20.26894662570369
2.283330933824329,1.016172886027485,881,3,20.306527284321707,20.26894662570369
2.293490071786011,1.0161627266874012,881,3,20.306527284321707,20.26894662570369
2.303649108180193,1.016152567448887,881,3,20.306527284321707,20.26894662570369
2.313808043007889,1.0161424083119412,881,3,20.306527284321707,20.26894662570369
2.3239668762701156,1.016132249276563,881,3,20.306527284321707,20.26894662570369
2.334125607967889,1.0161220903427512,881,3,20.306527284321707,20.26894662570369
2.3442842381022233,1.016111931510505,881,3,20.306527284321707,20.26894662570369
2.3544427666741354,1.016101772779823,881,3,20.306527284321707,20.26894662570369
2.36460119368464,1.0160916141507046,881,3,20.306527284321707,20.26894662570369
2.374759519134752,1.0160814556231486,881,3,20.306527284321707,20.26894662570369
2.3849177430254884,1.016071297197154,881,3,20.306527284321707,20.26894662570369
2.3950758653578648,1.0160611388727196,881,3,20.306527284321707,20.26894662570369
2.405233886132895,1.0160509806498448,881,3,20.306527284321707,20.26894662570369
2.4153918053515953,1.0160408225285282,881,3,20.306527284321707,20.26894662570369
2.425549623014981,1.0160306645087689,881,3,20.306527284321707,20.26894662570369
2.435707339124068,1.016020506590566,881,3,20.306527284321707,20.26894662570369
2.4458649536798704,1.0160103487739185,881,3,20.306527284321707,20.26894662570369
2.4560224666834056,1.0160001910588252,881,3,20.306527284321707,20.26894662570369
2.4661798781356867,1.0159900334452852,881,3,20.306527284321707,20.26894662570369
2.4763371880377307,1.0159798759332974,881,3,20.306527284321707,20.26894662570369
