Vout,Iout,Irradiance,Temperature,MaxVoltage,MaxPower
0.0038066933971788734,0.761346,621,38,22.876420199544025,16.893876519123246
0.011420009802172813,0.761346,621,38,22.876420199544025,16.893876519123246
0.019033171430353837,0.7613421171720028,621,38,22.876420199544025,16.893876519123246
0.02664615063089558,0.7613345038555978,621,38,22.876420199544025,16.893876519123246
0.03425893836702825,0.7613268906943579,621,38,22.876420199544025,16.893876519123246
0.041871543515732274,0.7613192777159187,621,38,22.876420199544025,16.893876519123246
0.0494839742712907,0.7613116649289439,621,38,22.876420199544025,16.893876519123246
0.05709623819764852,0.7613040523245564,621,38,22.876420199544025,16.893876519123246
0.06470834227682744,0.7612964398945622,621,38,22.876420199544025,16.893876519123246
0.07232029295369995,0.761288827631397,621,38,22.876420199544025,16.893876519123246
0.07993209617731849,0.7612812155280791,621,38,22.876420199544025,16.893876519123246
0.08754375743906459,0.7612736035781635,621,38,22.876420199544025,16.893876519123246
0.09515528180786272,0.7612659917757011,621,38,22.876420199544025,16.893876519123246
0.10276667396268495,0.7612583801152005,621,38,22.876420199544025,16.893876519123246
0.11037793822255434,0.7612507685915929,621,38,22.876420199544025,16.893876519123246
0.11798907857424014,0.7612431572001993,621,38,22.876420199544025,16.893876519123246
0.12560009869782177,0.7612355459367005,621,38,22.876420199544025,16.893876519123246
0.1332110019902861,0.76122793479711,621,38,22.876420199544025,16.893876519123246
0.14082179158730898,0.7612203237777475,621,38,22.876420199544025,16.893876519123246
0.14843247038336108,0.7612127128752162,621,38,22.876420199544025,16.893876519123246
0.1560430410502663,0.7612051020863803,621,38,22.876420199544025,16.893876519123246
0.16365350605433285,0.7611974914083454,621,38,22.876420199544025,16.893876519123246
0.1712638676721658,0.7611898808384395,621,38,22.876420199544025,16.893876519123246
0.1788741280052632,0.7611822703741965,621,38,22.876420199544025,16.893876519123246
0.18648428899348898,0.7611746600133397,621,38,22.876420199544025,16.893876519123246
0.19409435242750947,0.7611670497537677,621,38,22.876420199544025,16.893876519123246
0.20170431996027285,0.7611594395935405,621,38,22.876420199544025,16.893876519123246
0.2093141931176053,0.7611518295308675,621,38,22.876420199544025,16.893876519123246
0.2169239733079921,0.7611442195640957,621,38,22.876420199544025,16.893876519123246
0.22453366183160609,0.7611366096916994,621,38,22.876420199544025,16.893876519123246
0.23214325988864118,0.76112899991227,621,38,22.876420199544025,16.893876519123246
0.2397527685870049,0.7611213902245074,621,38,22.876420199544025,16.893876519123246
0.2473621889494193,0.7611137806272114,621,38,22.876420199544025,16.893876519123246
0.2549715219199751,0.7611061711192739,621,38,22.876420199544025,16.893876519123246
0.26258076837018146,0.7610985616996725,621,38,22.876420199544025,16.893876519123246
0.27018992910455114,0.7610909523674628,621,38,22.876420199544025,16.893876519123246
0.27779900486575476,0.7610833431217736,621,38,22.876420199544025,16.893876519123246
0.28540799633937913,0.7610757339618002,621,38,22.876420199544025,16.893876519123246
0.2930169041583196,0.7610681248867999,621,38,22.876420199544025,16.893876519123246
0.3006257289068339,0.7610605158960871,621,38,22.876420199544025,16.893876519123246
0.3082344711242847,0.7610529069890292,621,38,22.876420199544025,16.893876519123246
0.3158431313085937,0.7610452981650415,621,38,22.876420199544025,16.893876519123246
0.32345170991943023,0.761037689423585,621,38,22.876420199544025,16.893876519123246
0.3310602073811545,0.7610300807641616,621,38,22.876420199544025,16.893876519123246
0.3386686240855342,0.7610224721863116,621,38,22.876420199544025,16.893876519123246
0.3462769603942524,0.7610148636896107,621,38,22.876420199544025,16.893876519123246
0.35388521664122213,0.7610072552736672,621,38,22.876420199544025,16.893876519123246
0.3614933931347232,0.7609996469381194,621,38,22.876420199544025,16.893876519123246
0.3691014901593743,0.7609920386826332,621,38,22.876420199544025,16.893876519123246
0.3767095079779537,0.7609844305069006,621,38,22.876420199544025,16.893876519123246
0.38431744683307967,0.7609768224106367,621,38,22.876420199544025,16.893876519123246
0.3919253069487613,0.760969214393579,621,38,22.876420199544025,16.893876519123246
0.39953308853183084,0.7609616064554846,621,38,22.876420199544025,16.893876519123246
0.40714079177326484,0.7609539985961298,621,38,22.876420199544025,16.893876519123246
0.41474841684940444,0.7609463908153075,621,38,22.876420199544025,16.893876519123246
0.42235596392308133,0.7609387831128268,621,38,22.876420199544025,16.893876519123246
0.4299634331446571,0.7609311754885115,621,38,22.876420199544025,16.893876519123246
0.43757082465298275,0.7609235679421986,621,38,22.876420199544025,16.893876519123246
0.44517813857628447,0.7609159604737378,621,38,22.876420199544025,16.893876519123246
0.4527853750329809,0.7609083530829902,621,38,22.876420199544025,16.893876519123246
0.4603925341324381,0.7609007457698276,621,38,22.876420199544025,16.893876519123246
0.46799961597566536,0.7608931385341317,621,38,22.876420199544025,16.893876519123246
0.47560662065595916,0.760885531375793,621,38,22.876420199544025,16.893876519123246
0.483213548259496,0.7608779242947105,621,38,22.876420199544025,16.893876519123246
0.4908203988658801,0.7608703172907909,621,38,22.876420199544025,16.893876519123246
0.49842717254864927,0.760862710363948,621,38,22.876420199544025,16.893876519123246
0.506033869375742,0.7608551035141023,621,38,22.876420199544025,16.893876519123246
0.5136404894099279,0.7608474967411802,621,38,22.876420199544025,16.893876519123246
0.5212470327092055,0.7608398900451139,621,38,22.876420199544025,16.893876519123246
0.5288534993271686,0.7608322834258404,621,38,22.876420199544025,16.893876519123246
0.5364598893133472,0.7608246768833018,621,38,22.876420199544025,16.893876519123246
0.544066202713518,0.7608170704174445,621,38,22.876420199544025,16.893876519123246
0.551672439569994,0.7608094640282189,621,38,22.876420199544025,16.893876519123246
0.5592785999218918,0.7608018577155794,621,38,22.876420199544025,16.893876519123246
0.5668846838053758,0.7607942514794835,621,38,22.876420199544025,16.893876519123246
0.5744906912538873,0.7607866453198923,621,38,22.876420199544025,16.893876519123246
0.5820966222983524,0.7607790392367695,621,38,22.876420199544025,16.893876519123246
0.5897024769673764,0.7607714332300816,621,38,22.876420199544025,16.893876519123246
0.5973082552874223,0.7607638272997977,621,38,22.876420199544025,16.893876519123246
0.6049139572829753,0.7607562214458893,621,38,22.876420199544025,16.893876519123246
0.612519582976695,0.7607486156683299,621,38,22.876420199544025,16.893876519123246
0.6201251323895565,0.7607410099670948,621,38,22.876420199544025,16.893876519123246
0.6277306055409789,0.7607334043421617,621,38,22.876420199544025,16.893876519123246
0.6353360024489464,0.7607257987935094,621,38,22.876420199544025,16.893876519123246
0.6429413231301171,0.7607181933211186,621,38,22.876420199544025,16.893876519123246
0.6505465675999266,0.7607105879249711,621,38,22.876420199544025,16.893876519123246
0.658151735872681,0.7607029826050505,621,38,22.876420199544025,16.893876519123246
0.6657568279616441,0.7606953773613413,621,38,22.876420199544025,16.893876519123246
0.673361843879118,0.760687772193829,621,38,22.876420199544025,16.893876519123246
0.6809667836365165,0.7606801671025006,621,38,22.876420199544025,16.893876519123246
0.6885716472444334,0.7606725620873437,621,38,22.876420199544025,16.893876519123246
0.6961764347127062,0.7606649571483467,621,38,22.876420199544025,16.893876519123246
0.7037811460504741,0.7606573522854994,621,38,22.876420199544025,16.893876519123246
0.7113857812662313,0.7606497474987916,621,38,22.876420199544025,16.893876519123246
0.7189903403678771,0.7606421427882143,621,38,22.876420199544025,16.893876519123246
0.7265948233627613,0.760634538153759,621,38,22.876420199544025,16.893876519123246
0.7341992302577267,0.7606269335954178,621,38,22.876420199544025,16.893876519123246
0.7418035610591487,0.7606193291131834,621,38,22.876420199544025,16.893876519123246
0.7494078157729692,0.7606117247070489,621,38,22.876420199544025,16.893876519123246
0.7570119944047332,0.7606041203770079,621,38,22.876420199544025,16.893876519123246
0.7646160969596163,0.7605965161230546,621,38,22.876420199544025,16.893876519123246
0.7722201234424546,0.7605889119451832,621,38,22.876420199544025,16.893876519123246
0.7798240738577709,0.7605813078433887,621,38,22.876420199544025,16.893876519123246
0.7874279482097981,0.7605737038176663,621,38,22.876420199544025,16.893876519123246
0.7950317465025021,0.7605660998680114,621,38,22.876420199544025,16.893876519123246
0.8026354687396018,0.7605584959944198,621,38,22.876420199544025,16.893876519123246
0.8102391149245892,0.7605508921968874,621,38,22.876420199544025,16.893876519123246
0.8178426850607453,0.7605432884754108,621,38,22.876420199544025,16.893876519123246
0.8254461791511575,0.7605356848299861,621,38,22.876420199544025,16.893876519123246
0.8330495971987338,0.7605280812606103,621,38,22.876420199544025,16.893876519123246
0.8406529392062174,0.7605204777672804,621,38,22.876420199544025,16.893876519123246
0.8482562051761986,0.7605128743499932,621,38,22.876420199544025,16.893876519123246
0.8558593951111267,0.760505271008746,621,38,22.876420199544025,16.893876519123246
0.8634625090133217,0.7604976677435363,621,38,22.876420199544025,16.893876519123246
0.8710655468849827,0.7604900645543617,621,38,22.876420199544025,16.893876519123246
0.8786685087281987,0.7604824614412199,621,38,22.876420199544025,16.893876519123246
0.8862713945449561,0.7604748584041086,621,38,22.876420199544025,16.893876519123246
0.8938742043371469,0.7604672554430256,621,38,22.876420199544025,16.893876519123246
0.9014769381065761,0.7604596525579692,621,38,22.876420199544025,16.893876519123246
0.9090795958549686,0.7604520497489373,621,38,22.876420199544025,16.893876519123246
0.9166821775839745,0.7604444470159282,621,38,22.876420199544025,16.893876519123246
0.9242846832951758,0.76043684435894,621,38,22.876420199544025,16.893876519123246
0.9318871129900907,0.7604292417779713,621,38,22.876420199544025,16.893876519123246
0.9394894666701799,0.7604216392730203,621,38,22.876420199544025,16.893876519123246
0.9470917443368492,0.7604140368440857,621,38,22.876420199544025,16.893876519123246
0.9546939459914556,0.7604064344911659,621,38,22.876420199544025,16.893876519123246
0.9622960716353098,0.7603988322142594,621,38,22.876420199544025,16.893876519123246
0.9698981212696798,0.7603912300133651,621,38,22.876420199544025,16.893876519123246
0.9775000948957946,0.7603836278884815,621,38,22.876420199544025,16.893876519123246
0.9851019925148476,0.7603760258396073,621,38,22.876420199544025,16.893876519123246
0.9927038141279982,0.7603684238667414,621,38,22.876420199544025,16.893876519123246
1.0003055597363757,0.7603608219698825,621,38,22.876420199544025,16.893876519123246
1.00790722934108,0.7603532201490296,621,38,22.876420199544025,16.893876519123246
1.015508822943186,0.7603456184041814,621,38,22.876420199544025,16.893876519123246
1.0231103405437432,0.7603380167353369,621,38,22.876420199544025,16.893876519123246
1.0307117821437801,0.7603304151424949,621,38,22.876420199544025,16.893876519123246
1.0383131477443035,0.7603228136256546,621,38,22.876420199544025,16.893876519123246
1.045914437346301,0.7603152121848147,621,38,22.876420199544025,16.893876519123246
1.0535156509507433,0.7603076108199743,621,38,22.876420199544025,16.893876519123246
1.061116788558585,0.7603000095311324,621,38,22.876420199544025,16.893876519123246
1.0687178501707655,0.7602924083182881,621,38,22.876420199544025,16.893876519123246
1.07631883578821,0.7602848071814404,621,38,22.876420199544025,16.893876519123246
1.0839197454118314,0.7602772061205884,621,38,22.876420199544025,16.893876519123246
1.0915205790425304,0.760269605135731,621,38,22.876420199544025,16.893876519123246
1.0991213366811972,0.7602620042268675,621,38,22.876420199544025,16.893876519123246
1.1067220183287123,0.760254403393997,621,38,22.876420199544025,16.893876519123246
1.1143226239859456,0.7602468026371183,621,38,22.876420199544025,16.893876519123246
1.12192315365376,0.760239201956231,621,38,22.876420199544025,16.893876519123246
1.1295236073330097,0.7602316013513337,621,38,22.876420199544025,16.893876519123246
1.1371239850245414,0.760224000822426,621,38,22.876420199544025,16.893876519123246
1.1447242867291958,0.7602164003695068,621,38,22.876420199544025,16.893876519123246
1.152324512447807,0.7602087999925753,621,38,22.876420199544025,16.893876519123246
1.1599246621812032,0.7602011996916307,621,38,22.876420199544025,16.893876519123246
1.1675247359302074,0.7601935994666722,621,38,22.876420199544025,16.893876519123246
1.1751247336956383,0.7601859993176988,621,38,22.876420199544025,16.893876519123246
1.182724655478309,0.7601783992447099,621,38,22.876420199544025,16.893876519123246
1.1903245012790293,0.7601707992477044,621,38,22.876420199544025,16.893876519123246
1.1979242710986047,0.7601631993266817,621,38,22.876420199544025,16.893876519123246
1.2055239649378373,0.760155599481641,621,38,22.876420199544025,16.893876519123246
1.2131235827975262,0.7601479997125814,621,38,22.876420199544025,16.893876519123246
1.220723124678467,0.7601404000195022,621,38,22.876420199544025,16.893876519123246
1.228322590581453,0.7601328004024025,621,38,22.876420199544025,16.893876519123246
1.2359219805072743,0.7601252008612815,621,38,22.876420199544025,16.893876519123246
1.243521294456719,0.7601176013961385,621,38,22.876420199544025,16.893876519123246
1.2511205324305732,0.7601100020069727,621,38,22.876420199544025,16.893876519123246
1.2587196944296204,0.7601024026937832,621,38,22.876420199544025,16.893876519123246
1.2663187804546432,0.7600948034565692,621,38,22.876420199544025,16.893876519123246
1.273917790506421,0.76008720429533,621,38,22.876420199544025,16.893876519123246
1.281516724585733,0.760079605210065,621,38,22.876420199544025,16.893876519123246
1.2891155826933562,0.7600720062007731,621,38,22.876420199544025,16.893876519123246
1.2967143648300663,0.7600644072674537,621,38,22.876420199544025,16.893876519123246
1.3043130709966377,0.760056808410106,621,38,22.876420199544025,16.893876519123246
1.3119117011938444,0.7600492096287291,621,38,22.876420199544025,16.893876519123246
1.319510255422458,0.7600416109233225,621,38,22.876420199544025,16.893876519123246
1.32710873368325,0.7600340122938851,621,38,22.876420199544025,16.893876519123246
1.3347071359769913,0.7600264137404165,621,38,22.876420199544025,16.893876519123246
1.3423054623044508,0.7600188152629155,621,38,22.876420199544025,16.893876519123246
1.3499037126663973,0.7600112168613816,621,38,22.876420199544025,16.893876519123246
1.3575018870635995,0.760003618535814,621,38,22.876420199544025,16.893876519123246
1.3650999854968242,0.7599960202862119,621,38,22.876420199544025,16.893876519123246
1.3726980079668383,0.7599884221125746,621,38,22.876420199544025,16.893876519123246
1.3802959544744078,0.7599808240149011,621,38,22.876420199544025,16.893876519123246
1.3878938250202986,0.759973225993191,621,38,22.876420199544025,16.893876519123246
1.3954916196052758,0.7599656280474432,621,38,22.876420199544025,16.893876519123246
1.4030893382301037,0.7599580301776571,621,38,22.876420199544025,16.893876519123246
1.4106869808955476,0.7599504323838319,621,38,22.876420199544025,16.893876519123246
1.4182845476023709,0.7599428346659668,621,38,22.876420199544025,16.893876519123246
1.425882038351337,0.7599352370240612,621,38,22.876420199544025,16.893876519123246
1.4334794531432096,0.7599276394581141,621,38,22.876420199544025,16.893876519123246
1.4410767919787517,0.7599200419681249,621,38,22.876420199544025,16.893876519123246
1.4486740548587251,0.7599124445540928,621,38,22.876420199544025,16.893876519123246
1.4562712417838926,0.759904847216017,621,38,22.876420199544025,16.893876519123246
1.4638683527550167,0.7598972499538967,621,38,22.876420199544025,16.893876519123246
1.4714653877728592,0.7598896527677313,621,38,22.876420199544025,16.893876519123246
1.4790623468381818,0.75988205565752,621,38,22.876420199544025,16.893876519123246
1.486659229951746,0.7598744586232619,621,38,22.876420199544025,16.893876519123246
1.4942560371143132,0.7598668616649562,621,38,22.876420199544025,16.893876519123246
1.5018527683266443,0.7598592647826024,621,38,22.876420199544025,16.893876519123246
1.5094494235895008,0.7598516679761995,621,38,22.876420199544025,16.893876519123246
1.5170460029036439,0.7598440712457468,621,38,22.876420199544025,16.893876519123246
1.5246425062698334,0.7598364745912437,621,38,22.876420199544025,16.893876519123246
1.532238933688831,0.7598288780126892,621,38,22.876420199544025,16.893876519123246
1.5398352851613963,0.7598212815100827,621,38,22.876420199544025,16.893876519123246
1.54743156068829,0.7598136850834233,621,38,22.876420199544025,16.893876519123246
1.5550277602702727,0.7598060887327104,621,38,22.876420199544025,16.893876519123246
1.5626238839081046,0.7597984924579432,621,38,22.876420199544025,16.893876519123246
1.5702199316025456,0.7597908962591208,621,38,22.876420199544025,16.893876519123246
1.5778159033543566,0.7597833001362426,621,38,22.876420199544025,16.893876519123246
1.5854117991642969,0.7597757040893078,621,38,22.876420199544025,16.893876519123246
1.5930076190331266,0.7597681081183156,621,38,22.876420199544025,16.893876519123246
1.6006033629616054,0.7597605122232652,621,38,22.876420199544025,16.893876519123246
1.6081990309504932,0.759752916404156,621,38,22.876420199544025,16.893876519123246
1.6157946230005504,0.7597453206609871,621,38,22.876420199544025,16.893876519123246
1.6233901391125365,0.7597377249937578,621,38,22.876420199544025,16.893876519123246
1.6309855792872106,0.7597301294024673,621,38,22.876420199544025,16.893876519123246
1.638580943525333,0.759722533887115,621,38,22.876420199544025,16.893876519123246
1.6461762318276623,0.7597149384476998,621,38,22.876420199544025,16.893876519123246
1.653771444194959,0.7597073430842213,621,38,22.876420199544025,16.893876519123246
1.6613665806279823,0.7596997477966785,621,38,22.876420199544025,16.893876519123246
1.668961641127492,0.7596921525850707,621,38,22.876420199544025,16.893876519123246
1.676556625694247,0.7596845574493972,621,38,22.876420199544025,16.893876519123246
1.684151534329007,0.7596769623896572,621,38,22.876420199544025,16.893876519123246
1.6917463670325317,0.75966936740585,621,38,22.876420199544025,16.893876519123246
1.6993411238055798,0.7596617724979747,621,38,22.876420199544025,16.893876519123246
1.706935804648911,0.7596541776660307,621,38,22.876420199544025,16.893876519123246
1.7145304095632847,0.7596465829100172,621,38,22.876420199544025,16.893876519123246
1.7221249385494606,0.7596389882299333,621,38,22.876420199544025,16.893876519123246
1.729719391608197,0.7596313936257784,621,38,22.876420199544025,16.893876519123246
1.7373137687402538,0.7596237990975517,621,38,22.876420199544025,16.893876519123246
1.7449080699463895,0.7596162046452524,621,38,22.876420199544025,16.893876519123246
1.7525022952273643,0.7596086102688798,621,38,22.876420199544025,16.893876519123246
1.760096444583937,0.7596010159684331,621,38,22.876420199544025,16.893876519123246
1.7676905180168672,0.7595934217439115,621,38,22.876420199544025,16.893876519123246
1.7752845155269132,0.7595858275953145,621,38,22.876420199544025,16.893876519123246
1.782878437114835,0.759578233522641,621,38,22.876420199544025,16.893876519123246
1.7904722827813913,0.7595706395258903,621,38,22.876420199544025,16.893876519123246
1.7980660525273406,0.7595630456050618,621,38,22.876420199544025,16.893876519123246
1.8056597463534432,0.7595554517601546,621,38,22.876420199544025,16.893876519123246
