Vout,Iout,Irradiance,Temperature,MaxVoltage,MaxPower
0.012044554186978975,2.4089340000000004,1921,52,22.95021995552221,54.65668239049519
0.03613343984573028,2.4089340000000004,1921,52,22.95021995552221,54.65668239049519
0.06022183578347821,2.4089217145524136,1921,52,22.95021995552221,54.65668239049519
0.08430965451172767,2.4088976256667545,1921,52,22.95021995552221,54.65668239049519
0.10839686743772062,2.4088735372720453,1921,52,22.95021995552221,54.65668239049519
0.13248350264863415,2.408849449455726,1921,52,22.95021995552221,54.65668239049519
0.15656958607155935,2.4088253622452087,1921,52,22.95021995552221,54.65668239049519
0.1806551416391684,2.4088012756124066,1921,52,22.95021995552221,54.65668239049519
0.20474019144290126,2.4087771895313925,1921,52,22.95021995552221,54.65668239049519
0.22882475587463297,2.4087531039782335,1921,52,22.95021995552221,54.65668239049519
0.2529088537574409,2.4087290189308384,1921,52,22.95021995552221,54.65668239049519
0.2769925024663105,2.4087049343688154,1921,52,22.95021995552221,54.65668239049519
0.30107571803955363,2.408680850273341,1921,52,22.95021995552221,54.65668239049519
0.32515851528165446,2.4086567666270406,1921,52,22.95021995552221,54.65668239049519
0.3492409078582021,2.4086326834138756,1921,52,22.95021995552221,54.65668239049519
0.37332290838351906,2.408608600619042,1921,52,22.95021995552221,54.65668239049519
0.3974045285015468,2.408584518228874,1921,52,22.95021995552221,54.65668239049519
0.4214857789605093,2.408560436230757,1921,52,22.95021995552221,54.65668239049519
0.44556666968183023,2.408536354613047,1921,52,22.95021995552221,54.65668239049519
0.4696472098237485,2.4085122733649964,1921,52,22.95021995552221,54.65668239049519
0.493727407840039,2.408488192476683,1921,52,22.95021995552221,54.65668239049519
0.5178072715342149,2.408464111938949,1921,52,22.95021995552221,54.65668239049519
0.5418868081095601,2.408440031743341,1921,52,22.95021995552221,54.65668239049519
0.5659660242153118,2.408415951882055,1921,52,22.95021995552221,54.65668239049519
0.5900449259892893,2.4083918723478877,1921,52,22.95021995552221,54.65668239049519
0.6141235190972438,2.40836779313419,1921,52,22.95021995552221,54.65668239049519
0.6382018087691799,2.4083437142348236,1921,52,22.95021995552221,54.65668239049519
0.6622797998328821,2.4083196356441237,1921,52,22.95021995552221,54.65668239049519
0.6863574967448636,2.4082955573568596,1921,52,22.95021995552221,54.65668239049519
0.7104349036189308,2.408271479368204,1921,52,22.95021995552221,54.65668239049519
0.7345120242525528,2.4082474016737,1921,52,22.95021995552221,54.65668239049519
0.7585888621512011,2.4082233242692337,1921,52,22.95021995552221,54.65668239049519
0.7826654205508149,2.4081992471510074,1921,52,22.95021995552221,54.65668239049519
0.806741702438541,2.4081751703155168,1921,52,22.95021995552221,54.65668239049519
0.8308177105718755,2.4081510937595247,1921,52,22.95021995552221,54.65668239049519
0.8548934474963331,2.408127017480045,1921,52,22.95021995552221,54.65668239049519
0.8789689155617583,2.408102941474319,1921,52,22.95021995552221,54.65668239049519
0.9030441169373796,2.4080788657398022,1921,52,22.95021995552221,54.65668239049519
0.9271190536257071,2.4080547902741443,1921,52,22.95021995552221,54.65668239049519
0.9511937274753596,2.4080307150751765,1921,52,22.95021995552221,54.65668239049519
0.9752681401929053,2.4080066401408957,1921,52,22.95021995552221,54.65668239049519
0.9993422933537918,2.4079825654694536,1921,52,22.95021995552221,54.65668239049519
1.0234161884124338,2.4079584910591434,1921,52,22.95021995552221,54.65668239049519
1.047489826711527,2.40793441690839,1921,52,22.95021995552221,54.65668239049519
1.071563209490642,2.4079103430157387,1921,52,22.95021995552221,54.65668239049519
1.095636337894161,2.4078862693798473,1921,52,22.95021995552221,54.65668239049519
1.1197092129786006,2.4078621959994755,1921,52,22.95021995552221,54.65668239049519
1.1437818357193723,2.4078381228734793,1921,52,22.95021995552221,54.65668239049519
1.1678542070170228,2.4078140500008023,1921,52,22.95021995552221,54.65668239049519
1.1919263277029948,2.4077899773804687,1921,52,22.95021995552221,54.65668239049519
1.2159981985449426,2.4077659050115785,1921,52,22.95021995552221,54.65668239049519
1.240069820251643,2.4077418328933,1921,52,22.95021995552221,54.65668239049519
1.2641411934775217,2.407717761024865,1921,52,22.95021995552221,54.65668239049519
1.2882123188268382,2.4076936894055656,1921,52,22.95021995552221,54.65668239049519
1.3122831968575432,2.4076696180347468,1921,52,22.95021995552221,54.65668239049519
1.3363538280848446,2.4076455469118048,1921,52,22.95021995552221,54.65668239049519
1.3604242129844926,2.407621476036181,1921,52,22.95021995552221,54.65668239049519
1.3844943519958182,2.407597405407361,1921,52,22.95021995552221,54.65668239049519
1.4085642455245355,2.4075733350248685,1921,52,22.95021995552221,54.65668239049519
1.432633893945327,2.407549264888264,1921,52,22.95021995552221,54.65668239049519
1.4567032976042302,2.407525194997142,1921,52,22.95021995552221,54.65668239049519
1.4807724568208456,2.4075011253511285,1921,52,22.95021995552221,54.65668239049519
1.5048413718903655,2.407477055949877,1921,52,22.95021995552221,54.65668239049519
1.5289100430854574,2.407452986793067,1921,52,22.95021995552221,54.65668239049519
1.552978470657992,2.4074289178804045,1921,52,22.95021995552221,54.65668239049519
1.577046654840648,2.4074048492116162,1921,52,22.95021995552221,54.65668239049519
1.6011145958483843,2.4073807807864505,1921,52,22.95021995552221,54.65668239049519
1.6251822938798068,2.407356712604675,1921,52,22.95021995552221,54.65668239049519
1.6492497491184253,2.407332644666074,1921,52,22.95021995552221,54.65668239049519
1.6733169617338155,2.407308576970449,1921,52,22.95021995552221,54.65668239049519
1.69738393188269,2.4072845095176176,1921,52,22.95021995552221,54.65668239049519
1.7214506597098893,2.407260442307409,1921,52,22.95021995552221,54.65668239049519
1.7455171453492946,2.4072363753396666,1921,52,22.95021995552221,54.65668239049519
1.7695833889246706,2.407212308614246,1921,52,22.95021995552221,54.65668239049519
1.7936493905504456,2.4071882421310136,1921,52,22.95021995552221,54.65668239049519
1.817715150332427,2.4071641758898448,1921,52,22.95021995552221,54.65668239049519
1.8417806683684679,2.4071401098906255,1921,52,22.95021995552221,54.65668239049519
1.865845944749076,2.40711604413325,1921,52,22.95021995552221,54.65668239049519
1.8899109795579823,2.407091978617621,1921,52,22.95021995552221,54.65668239049519
1.9139757728726585,2.407067913343647,1921,52,22.95021995552221,54.65668239049519
1.9380403247648013,2.4070438483112446,1921,52,22.95021995552221,54.65668239049519
1.9621046353007754,2.407019783520336,1921,52,22.95021995552221,54.65668239049519
1.9861687045420258,2.4069957189708506,1921,52,22.95021995552221,54.65668239049519
2.010232532545453,2.4069716546627213,1921,52,22.95021995552221,54.65668239049519
2.0342961193637663,2.4069475905958866,1921,52,22.95021995552221,54.65668239049519
2.0583594650458035,2.4069235267702895,1921,52,22.95021995552221,54.65668239049519
2.0824225696368295,2.4068994631858773,1921,52,22.95021995552221,54.65668239049519
2.1064854331788125,2.406875399842602,1921,52,22.95021995552221,54.65668239049519
2.130548055710676,2.4068513367404174,1921,52,22.95021995552221,54.65668239049519
2.1546104372685337,2.4068272738792817,1921,52,22.95021995552221,54.65668239049519
2.178672577885905,2.406803211259156,1921,52,22.95021995552221,54.65668239049519
2.2027344775939177,2.4067791488800045,1921,52,22.95021995552221,54.65668239049519
2.226796136421487,2.4067550867417933,1921,52,22.95021995552221,54.65668239049519
2.250857554395489,2.4067310248444915,1921,52,22.95021995552221,54.65668239049519
2.274918731540918,2.40670696318807,1921,52,22.95021995552221,54.65668239049519
2.2989796678810293,2.4066829017725024,1921,52,22.95021995552221,54.65668239049519
2.3230403634374737,2.406658840597763,1921,52,22.95021995552221,54.65668239049519
2.3471008182304223,2.406634779663829,1921,52,22.95021995552221,54.65668239049519
2.3711610322786782,2.4066107189706787,1921,52,22.95021995552221,54.65668239049519
2.3952210055997827,2.406586658518292,1921,52,22.95021995552221,54.65668239049519
2.4192807382101136,2.4065625983066496,1921,52,22.95021995552221,54.65668239049519
2.4433402301249716,2.4065385383357345,1921,52,22.95021995552221,54.65668239049519
2.4673994813586675,2.4065144786055304,1921,52,22.95021995552221,54.65668239049519
2.4914584919245946,2.4064904191160217,1921,52,22.95021995552221,54.65668239049519
2.5155172618353006,2.406466359867194,1921,52,22.95021995552221,54.65668239049519
2.5395757911025534,2.406442300859034,1921,52,22.95021995552221,54.65668239049519
2.5636340797374007,2.406418242091529,1921,52,22.95021995552221,54.65668239049519
2.5876921277502234,2.4063941835646676,1921,52,22.95021995552221,54.65668239049519
2.6117499351507916,2.4063701252784386,1921,52,22.95021995552221,54.65668239049519
2.635807501948305,2.406346067232832,1921,52,22.95021995552221,54.65668239049519
2.6598648281514454,2.406322009427837,1921,52,22.95021995552221,54.65668239049519
2.6839219137684056,2.4062979518634453,1921,52,22.95021995552221,54.65668239049519
2.7079787588069375,2.406273894539648,1921,52,22.95021995552221,54.65668239049519
2.7320353632743806,2.406249837456437,1921,52,22.95021995552221,54.65668239049519
2.7560917271776946,2.406225780613804,1921,52,22.95021995552221,54.65668239049519
2.7801478505234867,2.4062017240117424,1921,52,22.95021995552221,54.65668239049519
2.8042037333180434,2.4061776676502444,1921,52,22.95021995552221,54.65668239049519
2.828259375567351,2.4061536115293043,1921,52,22.95021995552221,54.65668239049519
2.8523147772771202,2.4061295556489157,1921,52,22.95021995552221,54.65668239049519
2.876369938452809,2.4061055000090716,1921,52,22.95021995552221,54.65668239049519
2.9004248590996387,2.4060814446097676,1921,52,22.95021995552221,54.65668239049519
2.9244795392226135,2.4060573894509973,1921,52,22.95021995552221,54.65668239049519
2.9485339788265392,2.4060333345327565,1921,52,22.95021995552221,54.65668239049519
2.9725881779160357,2.4060092798550388,1921,52,22.95021995552221,54.65668239049519
2.996642136495552,2.40598522541784,1921,52,22.95021995552221,54.65668239049519
3.0206958545693814,2.4059611712211564,1921,52,22.95021995552221,54.65668239049519
3.0447493321416705,2.4059371172649824,1921,52,22.95021995552221,54.65668239049519
3.0688025692164316,2.405913063549314,1921,52,22.95021995552221,54.65668239049519
3.0928555657975543,2.405889010074147,1921,52,22.95021995552221,54.65668239049519
3.1169083218888134,2.4058649568394777,1921,52,22.95021995552221,54.65668239049519
3.140960837493878,2.4058409038453017,1921,52,22.95021995552221,54.65668239049519
3.1650131126163203,2.405816851091616,1921,52,22.95021995552221,54.65668239049519
3.189065147259622,2.405792798578416,1921,52,22.95021995552221,54.65668239049519
3.2131169414271814,2.4057687463056987,1921,52,22.95021995552221,54.65668239049519
3.237168495122323,2.405744694273461,1921,52,22.95021995552221,54.65668239049519
3.2612198083482977,2.4057206424816986,1921,52,22.95021995552221,54.65668239049519
3.285270881108292,2.4056965909304084,1921,52,22.95021995552221,54.65668239049519
3.309321713405432,2.4056725396195877,1921,52,22.95021995552221,54.65668239049519
3.3333723052427886,2.405648488549233,1921,52,22.95021995552221,54.65668239049519
3.3574226566233816,2.4056244377193408,1921,52,22.95021995552221,54.65668239049519
3.381472767550182,2.4056003871299088,1921,52,22.95021995552221,54.65668239049519
3.405522638026119,2.4055763367809333,1921,52,22.95021995552221,54.65668239049519
3.429572268054082,2.4055522866724113,1921,52,22.95021995552221,54.65668239049519
3.453621657636918,2.4055282368043405,1921,52,22.95021995552221,54.65668239049519
3.4776708067774464,2.4055041871767178,1921,52,22.95021995552221,54.65668239049519
3.5017197154784494,2.4054801377895396,1921,52,22.95021995552221,54.65668239049519
3.525768383742684,2.4054560886428042,1921,52,22.95021995552221,54.65668239049519
3.549816811572878,2.405432039736508,1921,52,22.95021995552221,54.65668239049519
3.573864998971734,2.405407991070649,1921,52,22.95021995552221,54.65668239049519
3.597912945941932,2.4053839426452237,1921,52,22.95021995552221,54.65668239049519
3.621960652486132,2.4053598944602297,1921,52,22.95021995552221,54.65668239049519
3.6460081186069715,2.4053358465156642,1921,52,22.95021995552221,54.65668239049519
3.6700553443070727,2.4053117988115247,1921,52,22.95021995552221,54.65668239049519
3.6941023295890387,2.405287751347809,1921,52,22.95021995552221,54.65668239049519
3.7181490744554604,2.4052637041245135,1921,52,22.95021995552221,54.65668239049519
3.7421955789089094,2.405239657141636,1921,52,22.95021995552221,54.65668239049519
3.7662418429519495,2.4052156103991744,1921,52,22.95021995552221,54.65668239049519
3.7902878665871294,2.4051915638971257,1921,52,22.95021995552221,54.65668239049519
3.814333649816985,2.4051675176354874,1921,52,22.95021995552221,54.65668239049519
3.8383791926440467,2.405143471614257,1921,52,22.95021995552221,54.65668239049519
3.862424495070831,2.4051194258334316,1921,52,22.95021995552221,54.65668239049519
3.8864695570998475,2.4050953802930093,1921,52,22.95021995552221,54.65668239049519
3.9105143787335965,2.405071334992987,1921,52,22.95021995552221,54.65668239049519
3.934558959974572,2.4050472899333624,1921,52,22.95021995552221,54.65668239049519
3.9586033008252612,2.4050232451141333,1921,52,22.95021995552221,54.65668239049519
3.9826474012881428,2.404999200535297,1921,52,22.95021995552221,54.65668239049519
4.006691261365692,2.4049751561968504,1921,52,22.95021995552221,54.65668239049519
4.030734881060377,2.404951112098792,1921,52,22.95021995552221,54.65668239049519
4.054778260374662,2.4049270682411192,1921,52,22.95021995552221,54.65668239049519
4.078821399311005,2.4049030246238288,1921,52,22.95021995552221,54.65668239049519
4.102864297871861,2.404878981246919,1921,52,22.95021995552221,54.65668239049519
4.126906956059681,2.404854938110387,1921,52,22.95021995552221,54.65668239049519
4.150949373876911,2.4048308952142303,1921,52,22.95021995552221,54.65668239049519
4.174991551325998,2.4048068525584467,1921,52,22.95021995552221,54.65668239049519
4.199033488409378,2.404782810143034,1921,52,22.95021995552221,54.65668239049519
4.22307518512949,2.404758767967989,1921,52,22.95021995552221,54.65668239049519
4.247116641488771,2.40473472603331,1921,52,22.95021995552221,54.65668239049519
4.2711578574896505,2.404710684338994,1921,52,22.95021995552221,54.65668239049519
4.2951988331345605,2.404686642885039,1921,52,22.95021995552221,54.65668239049519
4.319239568425928,2.404662601671442,1921,52,22.95021995552221,54.65668239049519
4.34328006336618,2.4046385606982015,1921,52,22.95021995552221,54.65668239049519
4.36732031795774,2.4046145199653144,1921,52,22.95021995552221,54.65668239049519
4.391360332203029,2.404590479472778,1921,52,22.95021995552221,54.65668239049519
4.415400106104472,2.4045664392205905,1921,52,22.95021995552221,54.65668239049519
4.439439639664486,2.4045423992087493,1921,52,22.95021995552221,54.65668239049519
4.463478932885491,2.404518359437252,1921,52,22.95021995552221,54.65668239049519
4.487517985769902,2.404494319906096,1921,52,22.95021995552221,54.65668239049519
4.511556798320135,2.404470280615279,1921,52,22.95021995552221,54.65668239049519
4.535595370538607,2.4044462415647985,1921,52,22.95021995552221,54.65668239049519
4.559633702427731,2.404422202754652,1921,52,22.95021995552221,54.65668239049519
4.58367179398992,2.4043981641848378,1921,52,22.95021995552221,54.65668239049519
4.607709645227585,2.404374125855352,1921,52,22.95021995552221,54.65668239049519
4.631747256143139,2.404350087766194,1921,52,22.95021995552221,54.65668239049519
4.655784626738995,2.40432604991736,1921,52,22.95021995552221,54.65668239049519
4.679821757017558,2.4043020123088485,1921,52,22.95021995552221,54.65668239049519
4.7038586469812405,2.404277974940656,1921,52,22.95021995552221,54.65668239049519
4.727895296632452,2.4042539378127814,1921,52,22.95021995552221,54.65668239049519
4.751931705973601,2.4042299009252215,1921,52,22.95021995552221,54.65668239049519
4.775967875007093,2.4042058642779742,1921,52,22.95021995552221,54.65668239049519
4.80000380373534,2.4041818278710365,1921,52,22.95021995552221,54.65668239049519
4.824039492160745,2.404157791704407,1921,52,22.95021995552221,54.65668239049519
4.848074940285716,2.404133755778082,1921,52,22.95021995552221,54.65668239049519
4.872110148112661,2.4041097200920603,1921,52,22.95021995552221,54.65668239049519
4.896145115643983,2.404085684646339,1921,52,22.95021995552221,54.65668239049519
4.920179842882091,2.4040616494409157,1921,52,22.95021995552221,54.65668239049519
4.944214329829388,2.404037614475788,1921,52,22.95021995552221,54.65668239049519
4.968248576488281,2.4040135797509534,1921,52,22.95021995552221,54.65668239049519
4.992282582861174,2.4039895452664095,1921,52,22.95021995552221,54.65668239049519
5.016316348950471,2.4039655110221543,1921,52,22.95021995552221,54.65668239049519
5.040349874758579,2.4039414770181846,1921,52,22.95021995552221,54.65668239049519
5.0643831602879,2.4039174432544987,1921,52,22.95021995552221,54.65668239049519
5.088416205540839,2.403893409731094,1921,52,22.95021995552221,54.65668239049519
5.1124490105198,2.403869376447968,1921,52,22.95021995552221,54.65668239049519
5.136481575227186,2.4038453434051186,1921,52,22.95021995552221,54.65668239049519
5.1605138996654025,2.403821310602543,1921,52,22.95021995552221,54.65668239049519
5.184545983836853,2.403797278040239,1921,52,22.95021995552221,54.65668239049519
5.208577827743938,2.4037732457182037,1921,52,22.95021995552221,54.65668239049519
5.232609431389064,2.4037492136364356,1921,52,22.95021995552221,54.65668239049519
5.256640794774631,2.4037251817949317,1921,52,22.95021995552221,54.65668239049519
5.280671917903045,2.40370115019369,1921,52,22.95021995552221,54.65668239049519
5.304702800776709,2.4036771188327077,1921,52,22.95021995552221,54.65668239049519
5.328733443398025,2.4036530877119824,1921,52,22.95021995552221,54.65668239049519
5.352763845769394,2.403629056831512,1921,52,22.95021995552221,54.65668239049519
5.37679400789322,2.4036050261912933,1921,52,22.95021995552221,54.65668239049519
5.400823929771906,2.4035809957913252,1921,52,22.95021995552221,54.65668239049519
5.424853611407854,2.4035569656316045,1921,52,22.95021995552221,54.65668239049519
5.448883052803467,2.403532935712129,1921,52,22.95021995552221,54.65668239049519
5.472912253961146,2.403508906032896,1921,52,22.95021995552221,54.65668239049519
5.496941214883295,2.4034848765939034,1921,52,22.95021995552221,54.65668239049519
5.520969935572316,2.4034608473951486,1921,52,22.95021995552221,54.65668239049519
5.544998416030611,2.4034368184366293,1921,52,22.95021995552221,54.65668239049519
5.569026656260582,2.4034127897183435,1921,52,22.95021995552221,54.65668239049519
5.593054656264629,2.4033887612402878,1921,52,22.95021995552221,54.65668239049519
5.617082416045156,2.403364733002461,1921,52,22.95021995552221,54.65668239049519
5.641109935604566,2.4033407050048594,1921,52,22.95021995552221,54.65668239049519
5.665137214945259,2.403316677247482,1921,52,22.95021995552221,54.65668239049519
5.68916425406964,2.403292649730325,1921,52,22.95021995552221,54.65668239049519
5.7131910529801075,2.4032686224533872,1921,52,22.95021995552221,54.65668239049519
5.737217611679064,2.4032445954166657,1921,52,22.95021995552221,54.65668239049519
5.761243930168911,2.403220568620158,1921,52,22.95021995552221,54.65668239049519
5.785270008452052,2.4031965420638617,1921,52,22.95021995552221,54.65668239049519
5.809295846530888,2.403172515747775,1921,52,22.95021995552221,54.65668239049519
