Vout,Iout,Irradiance,Temperature,MaxVoltage,MaxPower
0.00839190930856434,1.6783979999999998,1401,24,21.863526664074957,36.21840620012119
0.025175572751347276,1.6783979999999998,1401,24,21.863526664074957,36.21840620012119
0.04195889498646216,1.6783894402508912,1401,24,21.863526664074957,36.21840620012119
0.05874181505727207,1.6783726565874484,1401,24,21.863526664074957,36.21840620012119
0.07552431304209056,1.6783558732660693,1401,24,21.863526664074957,36.21840620012119
0.09230640851034616,1.678339090347677,1401,24,21.863526664074957,36.21840620012119
0.10908811952645152,1.6783223078513705,1401,24,21.863526664074957,36.21840620012119
0.12586946276523012,1.6783055257575805,1401,24,21.863526664074957,36.21840620012119
0.14265045361864725,1.6782887440482426,1401,24,21.863526664074957,36.21840620012119
0.15943110629451537,1.678271962706682,1401,24,21.863526664074957,36.21840620012119
0.1762114339076044,1.6782551817175069,1401,24,21.863526664074957,36.21840620012119
0.19299144856374245,1.678238401066509,1401,24,21.863526664074957,36.21840620012119
0.20977116143744517,1.678221620740574,1401,24,21.863526664074957,36.21840620012119
0.22655058284357232,1.678204840727596,1401,24,21.863526664074957,36.21840620012119
0.2433297223034714,1.6781880610164004,1401,24,21.863526664074957,36.21840620012119
0.26010858860603125,1.6781712815966723,1401,24,21.863526664074957,36.21840620012119
0.276887189864039,1.6781545024588902,1401,24,21.863526664074957,36.21840620012119
0.2936655335662001,1.6781377235942656,1401,24,21.863526664074957,36.21840620012119
0.3104436266251563,1.6781209449946854,1401,24,21.863526664074957,36.21840620012119
0.32722147542180885,1.6781041666526613,1401,24,21.863526664074957,36.21840620012119
0.3439990858462313,1.6780873885612801,1401,24,21.863526664074957,36.21840620012119
0.36077646333543506,1.6780706107141614,1401,24,21.863526664074957,36.21840620012119
0.3775536129082279,1.6780538331054147,1401,24,21.863526664074957,36.21840620012119
0.3943305391973922,1.6780370557296034,1401,24,21.863526664074957,36.21840620012119
0.41110724647938507,1.6780202785817082,1401,24,21.863526664074957,36.21840620012119
0.4278837387017559,1.6780035016570969,1401,24,21.863526664074957,36.21840620012119
0.444660019508452,1.6779867249514926,1401,24,21.863526664074957,36.21840620012119
0.4614360922631791,1.6779699484609478,1401,24,21.863526664074957,36.21840620012119
0.4782119600709629,1.6779531721818188,1401,24,21.863526664074957,36.21840620012119
0.49498762579805244,1.6779363961107419,1401,24,21.863526664074957,36.21840620012119
0.5117630920902921,1.6779196202446116,1401,24,21.863526664074957,36.21840620012119
0.5285383613900798,1.6779028445805622,1401,24,21.863526664074957,36.21840620012119
0.5453134359520211,1.6778860691159476,1401,24,21.863526664074957,36.21840620012119
0.5620883178573767,1.6778692938483253,1401,24,21.863526664074957,36.21840620012119
0.5788630090274013,1.677852518775441,1401,24,21.863526664074957,36.21840620012119
0.5956375112356544,1.6778357438952132,1401,24,21.863526664074957,36.21840620012119
0.6124118261193638,1.6778189692057206,1401,24,21.863526664074957,36.21840620012119
0.6291859551899155,1.6778021947051898,1401,24,21.863526664074957,36.21840620012119
0.645959899842536,1.6777854203919835,1401,24,21.863526664074957,36.21840620012119
0.6627336613652299,1.6777686462645904,1401,24,21.863526664074957,36.21840620012119
0.6795072409470299,1.6777518723216152,1401,24,21.863526664074957,36.21840620012119
0.696280639685611,1.67773509856177,1401,24,21.863526664074957,36.21840620012119
0.713053858594321,1.6777183249838656,1401,24,21.863526664074957,36.21840620012119
0.7298268986086681,1.6777015515868043,1401,24,21.863526664074957,36.21840620012119
0.7465997605923095,1.677684778369573,1401,24,21.863526664074957,36.21840620012119
0.7633724453425806,1.677668005331236,1401,24,21.863526664074957,36.21840620012119
0.7801449535955978,1.6776512324709296,1401,24,21.863526664074957,36.21840620012119
0.7969172860309678,1.6776344597878567,1401,24,21.863526664074957,36.21840620012119
0.8136894432761367,1.677617687281281,1401,24,21.863526664074957,36.21840620012119
0.8304614259104031,1.6776009149505229,1401,24,21.863526664074957,36.21840620012119
0.8472332344686219,1.677584142794955,1401,24,21.863526664074957,36.21840620012119
0.8640048694446247,1.677567370813998,1401,24,21.863526664074957,36.21840620012119
0.8807763312943759,1.677550599007117,1401,24,21.863526664074957,36.21840620012119
0.8975476204388861,1.677533827373818,1401,24,21.863526664074957,36.21840620012119
0.9143187372669019,1.6775170559136456,1401,24,21.863526664074957,36.21840620012119
0.9310896821373882,1.6775002846261782,1401,24,21.863526664074957,36.21840620012119
0.9478604553818186,1.6774835135110273,1401,24,21.863526664074957,36.21840620012119
0.9646310573062928,1.677466742567834,1401,24,21.863526664074957,36.21840620012119
0.9814014881934869,1.6774499717962668,1401,24,21.863526664074957,36.21840620012119
0.9981717483044568,1.6774332011960194,1401,24,21.863526664074957,36.21840620012119
1.0149418378803008,1.6774164307668091,1401,24,21.863526664074957,36.21840620012119
1.0317117571436962,1.6773996605083752,1401,24,21.863526664074957,36.21840620012119
1.0484815063003161,1.6773828904204764,1401,24,21.863526664074957,36.21840620012119
1.0652510855401374,1.67736612050289,1401,24,21.863526664074957,36.21840620012119
1.082020495038649,1.6773493507554105,1401,24,21.863526664074957,36.21840620012119
1.0987897349579663,1.6773325811778477,1401,24,21.863526664074957,36.21840620012119
1.1155588054478602,1.6773158117700262,1401,24,21.863526664074957,36.21840620012119
1.1323277066467077,1.6772990425317837,1401,24,21.863526664074957,36.21840620012119
1.149096438682366,1.6772822734629709,1401,24,21.863526664074957,36.21840620012119
1.165865001672986,1.6772655045634488,1401,24,21.863526664074957,36.21840620012119
1.1826333957277548,1.67724873583309,1401,24,21.863526664074957,36.21840620012119
1.199401620947589,1.6772319672717764,1401,24,21.863526664074957,36.21840620012119
1.2161696774257682,1.6772151988793984,1401,24,21.863526664074957,36.21840620012119
1.2329375652485248,1.6771984306558556,1401,24,21.863526664074957,36.21840620012119
1.2497052844955847,1.6771816626010543,1401,24,21.863526664074957,36.21840620012119
1.266472835240669,1.6771648947149083,1401,24,21.863526664074957,36.21840620012119
1.2832402175519544,1.677148126997338,1401,24,21.863526664074957,36.21840620012119
1.3000074314925028,1.6771313594482697,1401,24,21.863526664074957,36.21840620012119
1.3167744771206513,1.6771145920676351,1401,24,21.863526664074957,36.21840620012119
1.3335413544903778,1.6770978248553714,1401,24,21.863526664074957,36.21840620012119
1.350308063651637,1.67708105781142,1401,24,21.863526664074957,36.21840620012119
1.367074604650667,1.677064290935727,1401,24,21.863526664074957,36.21840620012119
1.3838409775302791,1.6770475242282423,1401,24,21.863526664074957,36.21840620012119
1.4006071823301185,1.67703075768892,1401,24,21.863526664074957,36.21840620012119
1.4173732190869097,1.6770139913177171,1401,24,21.863526664074957,36.21840620012119
1.4341390878346791,1.676997225114594,1401,24,21.863526664074957,36.21840620012119
1.4509047886049655,1.6769804590795139,1401,24,21.863526664074957,36.21840620012119
1.4676703214270093,1.6769636932124425,1401,24,21.863526664074957,36.21840620012119
1.48443568632793,1.676946927513349,1401,24,21.863526664074957,36.21840620012119
1.5012008833328894,1.6769301619822035,1401,24,21.863526664074957,36.21840620012119
1.5179659124652427,1.676913396618979,1401,24,21.863526664074957,36.21840620012119
1.5347307737466755,1.6768966314236506,1401,24,21.863526664074957,36.21840620012119
1.5514954671973367,1.676879866396195,1401,24,21.863526664074957,36.21840620012119
1.5682599928359509,1.67686310153659,1401,24,21.863526664074957,36.21840620012119
1.5850243506799324,1.6768463368448159,1401,24,21.863526664074957,36.21840620012119
1.6017885407454842,1.6768295723208537,1401,24,21.863526664074957,36.21840620012119
1.6185525630476916,1.6768128079646862,1401,24,21.863526664074957,36.21840620012119
1.6353164176006083,1.6767960437762972,1401,24,21.863526664074957,36.21840620012119
1.6520801044173345,1.6767792797556713,1401,24,21.863526664074957,36.21840620012119
1.6688436235100934,1.6767625159027948,1401,24,21.863526664074957,36.21840620012119
1.6856069748902944,1.6767457522176545,1401,24,21.863526664074957,36.21840620012119
1.7023701585685997,1.6767289887002381,1401,24,21.863526664074957,36.21840620012119
1.7191331745549792,1.6767122253505342,1401,24,21.863526664074957,36.21840620012119
1.7358960228587643,1.6766954621685324,1401,24,21.863526664074957,36.21840620012119
1.7526587034886982,1.6766786991542224,1401,24,21.863526664074957,36.21840620012119
1.76942121645298,1.6766619363075947,1401,24,21.863526664074957,36.21840620012119
1.7861835617593063,1.6766451736286412,1401,24,21.863526664074957,36.21840620012119
1.8029457394149109,1.6766284111173533,1401,24,21.863526664074957,36.21840620012119
1.8197077494265999,1.6766116487737233,1401,24,21.863526664074957,36.21840620012119
1.8364695918007845,1.6765948865977438,1401,24,21.863526664074957,36.21840620012119
1.8532312665435118,1.6765781245894082,1401,24,21.863526664074957,36.21840620012119
1.869992773660492,1.6765613627487104,1401,24,21.863526664074957,36.21840620012119
1.8867541131571253,1.676544601075644,1401,24,21.863526664074957,36.21840620012119
1.9035152850385246,1.676527839570203,1401,24,21.863526664074957,36.21840620012119
1.9202762893095398,1.6765110782323827,1401,24,21.863526664074957,36.21840620012119
1.9370371259747745,1.6764943170621773,1401,24,21.863526664074957,36.21840620012119
1.9537977950386085,1.6764775560595824,1401,24,21.863526664074957,36.21840620012119
1.970558296505213,1.6764607952245933,1401,24,21.863526664074957,36.21840620012119
1.9873186303785668,1.6764440345572056,1401,24,21.863526664074957,36.21840620012119
2.0040787966624722,1.676427274057415,1401,24,21.863526664074957,36.21840620012119
2.020838795360568,1.6764105137252179,1401,24,21.863526664074957,36.21840620012119
2.0375986264763397,1.67639375356061,1401,24,21.863526664074957,36.21840620012119
2.054358290013136,1.676376993563588,1401,24,21.863526664074957,36.21840620012119
2.071117785974176,1.676360233734148,1401,24,21.863526664074957,36.21840620012119
2.0878771143625605,1.6763434740722873,1401,24,21.863526664074957,36.21840620012119
2.1046362751812784,1.6763267145780023,1401,24,21.863526664074957,36.21840620012119
2.1213952684332216,1.67630995525129,1401,24,21.863526664074957,36.21840620012119
2.138154094121184,1.676293196092147,1401,24,21.863526664074957,36.21840620012119
2.154912752247875,1.6762764371005712,1401,24,21.863526664074957,36.21840620012119
2.1716712428159255,1.676259678276559,1401,24,21.863526664074957,36.21840620012119
2.1884295658278927,1.6762429196201083,1401,24,21.863526664074957,36.21840620012119
2.2051877212862636,1.6762261611312161,1401,24,21.863526664074957,36.21840620012119
2.221945709193466,1.67620940280988,1401,24,21.863526664074957,36.21840620012119
2.238703529551868,1.6761926446560975,1401,24,21.863526664074957,36.21840620012119
2.255461182363783,1.6761758866698662,1401,24,21.863526664074957,36.21840620012119
2.2722186676314773,1.6761591288511835,1401,24,21.863526664074957,36.21840620012119
2.2889759853571716,1.6761423712000474,1401,24,21.863526664074957,36.21840620012119
2.3057331355430444,1.6761256137164555,1401,24,21.863526664074957,36.21840620012119
2.3224901181912347,1.6761088564004056,1401,24,21.863526664074957,36.21840620012119
2.339246933303847,1.6760920992518955,1401,24,21.863526664074957,36.21840620012119
2.35600358088295,1.676075342270923,1401,24,21.863526664074957,36.21840620012119
2.3727600609305872,1.676058585457486,1401,24,21.863526664074957,36.21840620012119
2.3895163734487674,1.6760418288115826,1401,24,21.863526664074957,36.21840620012119
2.406272518439479,1.6760250723332106,1401,24,21.863526664074957,36.21840620012119
2.4230284959046817,1.6760083160223682,1401,24,21.863526664074957,36.21840620012119
2.439784305846319,1.6759915598790531,1401,24,21.863526664074957,36.21840620012119
2.456539948266309,1.6759748039032636,1401,24,21.863526664074957,36.21840620012119
2.4732954231665514,1.6759580480949976,1401,24,21.863526664074957,36.21840620012119
2.490050730548931,1.6759412924542532,1401,24,21.863526664074957,36.21840620012119
2.506805870415315,1.6759245369810285,1401,24,21.863526664074957,36.21840620012119
2.523560842767555,1.6759077816753216,1401,24,21.863526664074957,36.21840620012119
2.5403156476074904,1.6758910265371307,1401,24,21.863526664074957,36.21840620012119
2.5570702849369478,1.675874271566454,1401,24,21.863526664074957,36.21840620012119
2.5738247547577404,1.6758575167632896,1401,24,21.863526664074957,36.21840620012119
2.5905790570716727,1.6758407621276357,1401,24,21.863526664074957,36.21840620012119
2.6073331918805382,1.6758240076594904,1401,24,21.863526664074957,36.21840620012119
2.624087159186123,1.675807253358852,1401,24,21.863526664074957,36.21840620012119
2.640840958990201,1.6757904992257184,1401,24,21.863526664074957,36.21840620012119
2.6575945912945422,1.6757737452600883,1401,24,21.863526664074957,36.21840620012119
2.6743480561009063,1.6757569914619597,1401,24,21.863526664074957,36.21840620012119
2.6911013534110486,1.6757402378313309,1401,24,21.863526664074957,36.21840620012119
2.707854483226717,1.6757234843681998,1401,24,21.863526664074957,36.21840620012119
2.724607445549654,1.675706731072565,1401,24,21.863526664074957,36.21840620012119
2.7413602403815966,1.6756899779444248,1401,24,21.863526664074957,36.21840620012119
2.758112867724278,1.6756732249837771,1401,24,21.863526664074957,36.21840620012119
2.7748653275794255,1.6756564721906204,1401,24,21.863526664074957,36.21840620012119
2.791617619948763,1.675639719564953,1401,24,21.863526664074957,36.21840620012119
2.808369744834011,1.6756229671067733,1401,24,21.863526664074957,36.21840620012119
2.8251217022368853,1.675606214816079,1401,24,21.863526664074957,36.21840620012119
2.8418734921591,1.6755894626928691,1401,24,21.863526664074957,36.21840620012119
2.858625114602365,1.6755727107371414,1401,24,21.863526664074957,36.21840620012119
2.8753765695683886,1.6755559589488944,1401,24,21.863526664074957,36.21840620012119
2.892127857058874,1.6755392073281263,1401,24,21.863526664074957,36.21840620012119
2.9088789770755255,1.6755224558748356,1401,24,21.863526664074957,36.21840620012119
2.925629929620041,1.6755057045890203,1401,24,21.863526664074957,36.21840620012119
2.942380714694121,1.6754889534706787,1401,24,21.863526664074957,36.21840620012119
2.9591313322994615,1.6754722025198094,1401,24,21.863526664074957,36.21840620012119
2.975881782437757,1.6754554517364104,1401,24,21.863526664074957,36.21840620012119
2.9926320651107003,1.67543870112048,1401,24,21.863526664074957,36.21840620012119
3.0093821803199843,1.675421950672017,1401,24,21.863526664074957,36.21840620012119
3.026132128067299,1.675405200391019,1401,24,21.863526664074957,36.21840620012119
3.0428819083543335,1.6753884502774847,1401,24,21.863526664074957,36.21840620012119
3.059631521182774,1.6753717003314126,1401,24,21.863526664074957,36.21840620012119
3.0763809665543085,1.6753549505528005,1401,24,21.863526664074957,36.21840620012119
3.0931302444706237,1.675338200941647,1401,24,21.863526664074957,36.21840620012119
3.109879354933403,1.6753214514979504,1401,24,21.863526664074957,36.21840620012119
3.126628297944332,1.6753047022217091,1401,24,21.863526664074957,36.21840620012119
3.1433770735050928,1.6752879531129212,1401,24,21.863526664074957,36.21840620012119
3.160125681617369,1.6752712041715854,1401,24,21.863526664074957,36.21840620012119
3.1768741222828427,1.6752544553976993,1401,24,21.863526664074957,36.21840620012119
3.193622395503194,1.675237706791262,1401,24,21.863526664074957,36.21840620012119
3.2103705012801047,1.6752209583522715,1401,24,21.863526664074957,36.21840620012119
3.227118439615254,1.675204210080726,1401,24,21.863526664074957,36.21840620012119
3.243866210510322,1.6751874619766238,1401,24,21.863526664074957,36.21840620012119
3.2606138139669887,1.6751707140399636,1401,24,21.863526664074957,36.21840620012119
3.2773612499869316,1.6751539662707433,1401,24,21.863526664074957,36.21840620012119
3.294108518571831,1.6751372186689615,1401,24,21.863526664074957,36.21840620012119
3.310855619723362,1.6751204712346164,1401,24,21.863526664074957,36.21840620012119
3.327602553443206,1.6751037239677062,1401,24,21.863526664074957,36.21840620012119
3.344349319733037,1.6750869768682293,1401,24,21.863526664074957,36.21840620012119
3.3610959185945353,1.6750702299361842,1401,24,21.863526664074957,36.21840620012119
3.377842350029375,1.675053483171569,1401,24,21.863526664074957,36.21840620012119
3.394588614039234,1.6750367365743823,1401,24,21.863526664074957,36.21840620012119
3.41133471062579,1.675019990144622,1401,24,21.863526664074957,36.21840620012119
3.4280806397907164,1.675003243882287,1401,24,21.863526664074957,36.21840620012119
3.4448264015356918,1.674986497787375,1401,24,21.863526664074957,36.21840620012119
3.46157199586239,1.6749697518598847,1401,24,21.863526664074957,36.21840620012119
3.4783174227724882,1.6749530060998143,1401,24,21.863526664074957,36.21840620012119
3.4950626822676614,1.6749362605071623,1401,24,21.863526664074957,36.21840620012119
3.511807774349584,1.6749195150819267,1401,24,21.863526664074957,36.21840620012119
3.5285526990199325,1.6749027698241061,1401,24,21.863526664074957,36.21840620012119
3.545297456280381,1.6748860247336987,1401,24,21.863526664074957,36.21840620012119
3.562042046132605,1.674869279810703,1401,24,21.863526664074957,36.21840620012119
3.5787864685782798,1.6748525350551169,1401,24,21.863526664074957,36.21840620012119
3.595530723619079,1.6748357904669393,1401,24,21.863526664074957,36.21840620012119
3.612274811256679,1.674819046046168,1401,24,21.863526664074957,36.21840620012119
3.629018731492752,1.6748023017928018,1401,24,21.863526664074957,36.21840620012119
3.6457624843289733,1.6747855577068385,1401,24,21.863526664074957,36.21840620012119
3.662506069767018,1.6747688137882768,1401,24,21.863526664074957,36.21840620012119
3.6792494878085593,1.674752070037115,1401,24,21.863526664074957,36.21840620012119
3.6959927384552733,1.6747353264533515,1401,24,21.863526664074957,36.21840620012119
3.712735821708832,1.6747185830369842,1401,24,21.863526664074957,36.21840620012119
3.7294787375709104,1.674701839788012,1401,24,21.863526664074957,36.21840620012119
3.746221486043183,1.6746850967064326,1401,24,21.863526664074957,36.21840620012119
3.762964067127324,1.6746683537922449,1401,24,21.863526664074957,36.21840620012119
3.779706480825005,1.674651611045447,1401,24,21.863526664074957,36.21840620012119
3.796448727137903,1.674634868466037,1401,24,21.863526664074957,36.21840620012119
3.8131908060676896,1.6746181260540138,1401,24,21.863526664074957,36.21840620012119
3.8299327176160385,1.6746013838093752,1401,24,21.863526664074957,36.21840620012119
3.846674461784626,1.6745846417321195,1401,24,21.863526664074957,36.21840620012119
3.863416038575123,1.6745678998222455,1401,24,21.863526664074957,36.21840620012119
3.880157447989204,1.674551158079751,1401,24,21.863526664074957,36.21840620012119
3.896898690028544,1.6745344165046347,1401,24,21.863526664074957,36.21840620012119
3.9136397646948144,1.6745176750968949,1401,24,21.863526664074957,36.21840620012119
3.9303806719896905,1.6745009338565295,1401,24,21.863526664074957,36.21840620012119
3.947121411914845,1.6744841927835374,1401,24,21.863526664074957,36.21840620012119
3.9638619844719503,1.6744674518779168,1401,24,21.863526664074957,36.21840620012119
3.9806023896626823,1.6744507111396658,1401,24,21.863526664074957,36.21840620012119
3.997342627488713,1.6744339705687827,1401,24,21.863526664074957,36.21840620012119
