Vout,Iout,Irradiance,Temperature,MaxVoltage,MaxPower
0.005560446534167941,1.1120999999999999,1011,-25,18.255125035027216,19.968672242107942
0.01668123678458465,1.1120999999999999,1011,-25,18.255125035027216,19.968672242107942
0.027801800952124922,1.1120943283434657,1011,-25,18.255125035027216,19.968672242107942
0.03892209864715776,1.1120832075532152,1011,-25,18.255125035027216,19.968672242107942
0.05004211666965101,1.112072086989615,1011,-25,18.255125035027216,19.968672242107942
0.061161867986232084,1.112060966693032,1011,-25,18.255125035027216,19.968672242107942
0.0722813645663107,1.1120498466761215,1011,-25,18.255125035027216,19.968672242107942
0.08340061745856012,1.1120387269259169,1011,-25,18.255125035027216,19.968672242107942
0.09451963686163688,1.112027607430449,1011,-25,18.255125035027216,19.968672242107942
0.10563843218958227,1.1120164881786687,1011,-25,18.255125035027216,19.968672242107942
0.11675701213219204,1.1120053691603775,1011,-25,18.255125035027216,19.968672242107942
0.1278753847107408,1.1119942503661615,1011,-25,18.255125035027216,19.968672242107942
0.13899355732941934,1.1119831317873308,1011,-25,18.255125035027216,19.968672242107942
0.15011153682281367,1.1119720134158642,1011,-25,18.255125035027216,19.968672242107942
0.16122932949973162,1.1119608952443574,1011,-25,18.255125035027216,19.968672242107942
0.1723469411836569,1.1119497772659757,1011,-25,18.255125035027216,19.968672242107942
0.1834643772500907,1.1119386594744105,1011,-25,18.255125035027216,19.968672242107942
0.19458164266102027,1.1119275418638386,1011,-25,18.255125035027216,19.968672242107942
0.20569874199673513,1.1119164244288837,1011,-25,18.255125035027216,19.968672242107942
0.21681567948519567,1.1119053071645846,1011,-25,18.255125035027216,19.968672242107942
0.22793245902914192,1.1118941900663606,1011,-25,18.255125035027216,19.968672242107942
0.23904908423111634,1.111883073129984,1011,-25,18.255125035027216,19.968672242107942
0.25016555841656163,1.1118719563515518,1011,-25,18.255125035027216,19.968672242107942
0.26128188465514124,1.1118608397274614,1011,-25,18.255125035027216,19.968672242107942
0.27239806578041914,1.1118497232543876,1011,-25,18.255125035027216,19.968672242107942
0.2835141044080263,1.1118386069292607,1011,-25,18.255125035027216,19.968672242107942
0.2946300029524281,1.1118274907492471,1011,-25,18.255125035027216,19.968672242107942
0.3057457636424027,1.1118163747117311,1011,-25,18.255125035027216,19.968672242107942
0.3168613885353281,1.1118052588142984,1011,-25,18.255125035027216,19.968672242107942
0.32797687953036997,1.11179414305472,1011,-25,18.255125035027216,19.968672242107942
0.3390922383806545,1.1117830274309386,1011,-25,18.255125035027216,19.968672242107942
0.35020746670450503,1.1117719119410552,1011,-25,18.255125035027216,19.968672242107942
0.36132256599581414,1.1117607965833165,1011,-25,18.255125035027216,19.968672242107942
0.37243753763361753,1.111749681356104,1011,-25,18.255125035027216,19.968672242107942
0.3835523828909311,1.1117385662579244,1011,-25,18.255125035027216,19.968672242107942
0.3946671029429082,1.111727451287398,1011,-25,18.255125035027216,19.968672242107942
0.40578169887436977,1.1117163364432523,1011,-25,18.255125035027216,19.968672242107942
0.41689617168675436,1.1117052217243117,1011,-25,18.255125035027216,19.968672242107942
0.42801052230453346,1.111694107129492,1011,-25,18.255125035027216,19.968672242107942
0.43912475158113407,1.111682992657791,1011,-25,18.255125035027216,19.968672242107942
0.4502388603044044,1.1116718783082846,1011,-25,18.255125035027216,19.968672242107942
0.46135284920166014,1.1116607640801195,1011,-25,18.255125035027216,19.968672242107942
0.4724667189443413,1.1116496499725077,1011,-25,18.255125035027216,19.968672242107942
0.48358047015231176,1.1116385359847218,1011,-25,18.255125035027216,19.968672242107942
0.49469410339782777,1.1116274221160904,1011,-25,18.255125035027216,19.968672242107942
0.5058076192092007,1.111616308365994,1011,-25,18.255125035027216,19.968672242107942
0.516921018074178,1.1116051947338599,1011,-25,18.255125035027216,19.968672242107942
0.5280343004430648,1.1115940812191598,1011,-25,18.255125035027216,19.968672242107942
0.5391474667316045,1.1115829678214062,1011,-25,18.255125035027216,19.968672242107942
0.5502605173236378,1.1115718545401487,1011,-25,18.255125035027216,19.968672242107942
0.5613734525735578,1.1115607413749715,1011,-25,18.255125035027216,19.968672242107942
0.5724862728085751,1.1115496283254909,1011,-25,18.255125035027216,19.968672242107942
0.5835989783308102,1.1115385153913522,1011,-25,18.255125035027216,19.968672242107942
0.5947115694192231,1.1115274025722284,1011,-25,18.255125035027216,19.968672242107942
0.6058240463313956,1.1115162898678175,1011,-25,18.255125035027216,19.968672242107942
0.6169364093051763,1.1115051772778404,1011,-25,18.255125035027216,19.968672242107942
0.6280486585601989,1.1114940648020395,1011,-25,18.255125035027216,19.968672242107942
0.6391607942992832,1.111482952440177,1011,-25,18.255125035027216,19.968672242107942
0.6502728167097298,1.1114718401920332,1011,-25,18.255125035027216,19.968672242107942
0.6613847259645129,1.1114607280574054,1011,-25,18.255125035027216,19.968672242107942
0.6724965222233837,1.111449616036106,1011,-25,18.255125035027216,19.968672242107942
0.6836082056338872,1.1114385041279626,1011,-25,18.255125035027216,19.968672242107942
0.6947197763323013,1.1114273923328148,1011,-25,18.255125035027216,19.968672242107942
0.7058312344445044,1.1114162806505157,1011,-25,18.255125035027216,19.968672242107942
0.7169425800867744,1.1114051690809283,1011,-25,18.255125035027216,19.968672242107942
0.7280538133665285,1.1113940576239274,1011,-25,18.255125035027216,19.968672242107942
0.7391649343830045,1.1113829462793963,1011,-25,18.255125035027216,19.968672242107942
0.7502759432278897,1.1113718350472275,1011,-25,18.255125035027216,19.968672242107942
0.7613868399859031,1.1113607239273222,1011,-25,18.255125035027216,19.968672242107942
0.7724976247353298,1.1113496129195886,1011,-25,18.255125035027216,19.968672242107942
0.7836082975485174,1.1113385020239415,1011,-25,18.255125035027216,19.968672242107942
0.7947188584923326,1.1113273912403032,1011,-25,18.255125035027216,19.968672242107942
0.8058293076285821,1.1113162805686012,1011,-25,18.255125035027216,19.968672242107942
0.8169396450144033,1.1113051700087684,1011,-25,18.255125035027216,19.968672242107942
0.8280498707026224,1.1112940595607432,1011,-25,18.255125035027216,19.968672242107942
0.839159984742086,1.1112829492244685,1011,-25,18.255125035027216,19.968672242107942
0.8502699871779689,1.1112718389998912,1011,-25,18.255125035027216,19.968672242107942
0.8613798780520545,1.111260728886963,1011,-25,18.255125035027216,19.968672242107942
0.8724896574029976,1.111249618885638,1011,-25,18.255125035027216,19.968672242107942
0.8835993252665635,1.111238508995875,1011,-25,18.255125035027216,19.968672242107942
0.8947088816758515,1.111227399217635,1011,-25,18.255125035027216,19.968672242107942
0.9058183266614993,1.1112162895508824,1011,-25,18.255125035027216,19.968672242107942
0.9169276602518733,1.111205179995584,1011,-25,18.255125035027216,19.968672242107942
0.9280368824732426,1.1111940705517094,1011,-25,18.255125035027216,19.968672242107942
0.93914599334994,1.11118296121923,1011,-25,18.255125035027216,19.968672242107942
0.9502549929045121,1.1111718519981195,1011,-25,18.255125035027216,19.968672242107942
0.9613638811578558,1.1111607428883539,1011,-25,18.255125035027216,19.968672242107942
0.9724726581293457,1.11114963388991,1011,-25,18.255125035027216,19.968672242107942
0.9835813238369514,1.1111385250027677,1011,-25,18.255125035027216,19.968672242107942
0.9946898782973448,1.1111274162269071,1011,-25,18.255125035027216,19.968672242107942
1.0057983215260007,1.1111163075623105,1011,-25,18.255125035027216,19.968672242107942
1.016906653537289,1.1111051990089609,1011,-25,18.255125035027216,19.968672242107942
1.0280148743445587,1.1110940905668432,1011,-25,18.255125035027216,19.968672242107942
1.0391229839602178,1.1110829822359427,1011,-25,18.255125035027216,19.968672242107942
1.0502309823958045,1.1110718740162462,1011,-25,18.255125035027216,19.968672242107942
1.061338869662055,1.1110607659077414,1011,-25,18.255125035027216,19.968672242107942
1.0724466457689645,1.1110496579104168,1011,-25,18.255125035027216,19.968672242107942
1.0835543107258452,1.1110385500242612,1011,-25,18.255125035027216,19.968672242107942
1.0946618645413775,1.1110274422492652,1011,-25,18.255125035027216,19.968672242107942
1.1057693072236592,1.111016334585419,1011,-25,18.255125035027216,19.968672242107942
1.1168766387802516,1.1110052270327142,1011,-25,18.255125035027216,19.968672242107942
1.1279838592182188,1.1109941195911428,1011,-25,18.255125035027216,19.968672242107942
1.139090968544167,1.110983012260697,1011,-25,18.255125035027216,19.968672242107942
1.150197966764279,1.1109719050413698,1011,-25,18.255125035027216,19.968672242107942
1.1613048538843478,1.1109607979331544,1011,-25,18.255125035027216,19.968672242107942
1.1724116299098066,1.110949690936045,1011,-25,18.255125035027216,19.968672242107942
1.1835182948457545,1.1109385840500356,1011,-25,18.255125035027216,19.968672242107942
1.1946248486969853,1.110927477275121,1011,-25,18.255125035027216,19.968672242107942
1.2057312914680085,1.1109163706112957,1011,-25,18.255125035027216,19.968672242107942
1.2168376231630718,1.110905264058555,1011,-25,18.255125035027216,19.968672242107942
1.2279438437861818,1.1108941576168947,1011,-25,18.255125035027216,19.968672242107942
1.2390499533411226,1.1108830512863104,1011,-25,18.255125035027216,19.968672242107942
1.2501559518314722,1.1108719450667979,1011,-25,18.255125035027216,19.968672242107942
1.261261839260619,1.1108608389583536,1011,-25,18.255125035027216,19.968672242107942
1.272367615631775,1.110849732960974,1011,-25,18.255125035027216,19.968672242107942
1.2834732809479918,1.1108386270746553,1011,-25,18.255125035027216,19.968672242107942
1.2945788352121712,1.1108275212993948,1011,-25,18.255125035027216,19.968672242107942
1.3056842784270766,1.1108164156351892,1011,-25,18.255125035027216,19.968672242107942
1.3167896105953447,1.1108053100820356,1011,-25,18.255125035027216,19.968672242107942
1.327894831719495,1.1107942046399313,1011,-25,18.255125035027216,19.968672242107942
1.3389999418019378,1.1107830993088734,1011,-25,18.255125035027216,19.968672242107942
1.3501049408449837,1.1107719940888598,1011,-25,18.255125035027216,19.968672242107942
1.3612098288508507,1.110760888979888,1011,-25,18.255125035027216,19.968672242107942
1.3723146058216724,1.1107497839819556,1011,-25,18.255125035027216,19.968672242107942
1.383419271759502,1.1107386790950602,1011,-25,18.255125035027216,19.968672242107942
1.3945238266663222,1.1107275743191998,1011,-25,18.255125035027216,19.968672242107942
1.4056282705440464,1.1107164696543725,1011,-25,18.255125035027216,19.968672242107942
1.4167326033945282,1.110705365100576,1011,-25,18.255125035027216,19.968672242107942
1.4278368252195623,1.110694260657809,1011,-25,18.255125035027216,19.968672242107942
1.4389409360208913,1.1106831563260688,1011,-25,18.255125035027216,19.968672242107942
1.4500449358002092,1.1106720521053541,1011,-25,18.255125035027216,19.968672242107942
1.4611488245591655,1.1106609479956633,1011,-25,18.255125035027216,19.968672242107942
1.4722526022993676,1.1106498439969945,1011,-25,18.255125035027216,19.968672242107942
1.4833562690223843,1.1106387401093458,1011,-25,18.255125035027216,19.968672242107942
1.4944598247297496,1.110627636332716,1011,-25,18.255125035027216,19.968672242107942
1.5055632694229648,1.1106165326671034,1011,-25,18.255125035027216,19.968672242107942
1.5166666031035014,1.1106054291125065,1011,-25,18.255125035027216,19.968672242107942
1.5277698257728025,1.1105943256689237,1011,-25,18.255125035027216,19.968672242107942
1.5388729374322851,1.1105832223363534,1011,-25,18.255125035027216,19.968672242107942
1.5499759380833436,1.1105721191147946,1011,-25,18.255125035027216,19.968672242107942
1.5610788277273504,1.1105610160042454,1011,-25,18.255125035027216,19.968672242107942
1.5721816063656568,1.1105499130047045,1011,-25,18.255125035027216,19.968672242107942
1.5832842739995963,1.1105388101161708,1011,-25,18.255125035027216,19.968672242107942
1.5943868306304847,1.1105277073386428,1011,-25,18.255125035027216,19.968672242107942
1.6054892762596227,1.1105166046721193,1011,-25,18.255125035027216,19.968672242107942
1.6165916108882952,1.1105055021165986,1011,-25,18.255125035027216,19.968672242107942
1.6276938345177745,1.1104943996720797,1011,-25,18.255125035027216,19.968672242107942
1.6387959471493196,1.1104832973385614,1011,-25,18.255125035027216,19.968672242107942
1.6498979487841787,1.1104721951160421,1011,-25,18.255125035027216,19.968672242107942
1.660999839423589,1.110461093004521,1011,-25,18.255125035027216,19.968672242107942
1.6721016190687783,1.1104499910039962,1011,-25,18.255125035027216,19.968672242107942
1.6832032877209646,1.110438889114467,1011,-25,18.255125035027216,19.968672242107942
1.694304845381358,1.110427787335932,1011,-25,18.255125035027216,19.968672242107942
1.7054062920511608,1.11041668566839,1011,-25,18.255125035027216,19.968672242107942
1.7165076277315685,1.1104055841118399,1011,-25,18.255125035027216,19.968672242107942
1.7276088524237692,1.1103944826662802,1011,-25,18.255125035027216,19.968672242107942
1.7387099661289454,1.1103833813317099,1011,-25,18.255125035027216,19.968672242107942
1.7498109688482737,1.110372280108128,1011,-25,18.255125035027216,19.968672242107942
1.7609118605829261,1.1103611789955328,1011,-25,18.255125035027216,19.968672242107942
1.7720126413340695,1.1103500779939235,1011,-25,18.255125035027216,19.968672242107942
1.7831133111028663,1.110338977103299,1011,-25,18.255125035027216,19.968672242107942
1.7942138698904744,1.110327876323658,1011,-25,18.255125035027216,19.968672242107942
1.8053143176980493,1.1103167756549992,1011,-25,18.255125035027216,19.968672242107942
1.8164146545267417,1.1103056750973217,1011,-25,18.255125035027216,19.968672242107942
1.8275148803776993,1.1102945746506243,1011,-25,18.255125035027216,19.968672242107942
1.8386149952520674,1.1102834743149057,1011,-25,18.255125035027216,19.968672242107942
1.8497149991509878,1.1102723740901648,1011,-25,18.255125035027216,19.968672242107942
1.8608148920756007,1.1102612739764004,1011,-25,18.255125035027216,19.968672242107942
1.8719146740270431,1.1102501739736115,1011,-25,18.255125035027216,19.968672242107942
1.88301434500645,1.110239074081797,1011,-25,18.255125035027216,19.968672242107942
1.8941139050149556,1.1102279743009553,1011,-25,18.255125035027216,19.968672242107942
1.9052133540536902,1.110216874631086,1011,-25,18.255125035027216,19.968672242107942
1.9163126921237834,1.1102057750721874,1011,-25,18.255125035027216,19.968672242107942
1.9274119192263641,1.1101946756242587,1011,-25,18.255125035027216,19.968672242107942
1.938511035362558,1.1101835762872985,1011,-25,18.255125035027216,19.968672242107942
1.9496100405334917,1.110172477061306,1011,-25,18.255125035027216,19.968672242107942
1.9607089347402884,1.1101613779462798,1011,-25,18.255125035027216,19.968672242107942
1.971807717984071,1.1101502789422186,1011,-25,18.255125035027216,19.968672242107942
1.9829063902659614,1.1101391800491218,1011,-25,18.255125035027216,19.968672242107942
1.994004951587081,1.1101280812669878,1011,-25,18.255125035027216,19.968672242107942
2.0051034019485496,1.110116982595816,1011,-25,18.255125035027216,19.968672242107942
2.016201741351486,1.1101058840356046,1011,-25,18.255125035027216,19.968672242107942
2.0272999697970095,1.110094785586353,1011,-25,18.255125035027216,19.968672242107942
2.038398087286237,1.11008368724806,1011,-25,18.255125035027216,19.968672242107942
2.049496093820285,1.1100725890207244,1011,-25,18.255125035027216,19.968672242107942
2.060593989400271,1.110061490904345,1011,-25,18.255125035027216,19.968672242107942
2.0716917740273106,1.1100503928989207,1011,-25,18.255125035027216,19.968672242107942
2.082789447702519,1.1100392950044504,1011,-25,18.255125035027216,19.968672242107942
2.0938870104270118,1.1100281972209332,1011,-25,18.255125035027216,19.968672242107942
2.1049844622019016,1.1100170995483678,1011,-25,18.255125035027216,19.968672242107942
2.116081803028305,1.110006001986753,1011,-25,18.255125035027216,19.968672242107942
2.1271790329073332,1.109994904536088,1011,-25,18.255125035027216,19.968672242107942
2.1382761518401012,1.1099838071963715,1011,-25,18.255125035027216,19.968672242107942
2.149373159827721,1.109972709967602,1011,-25,18.255125035027216,19.968672242107942
2.160470056871306,1.1099616128497791,1011,-25,18.255125035027216,19.968672242107942
2.1715668429719677,1.109950515842901,1011,-25,18.255125035027216,19.968672242107942
2.1826635181308194,1.1099394189469673,1011,-25,18.255125035027216,19.968672242107942
2.1937600823489722,1.1099283221619762,1011,-25,18.255125035027216,19.968672242107942
2.2048565356275374,1.1099172254879273,1011,-25,18.255125035027216,19.968672242107942
2.215952877967627,1.1099061289248187,1011,-25,18.255125035027216,19.968672242107942
2.2270491093703524,1.1098950324726498,1011,-25,18.255125035027216,19.968672242107942
2.238145229836825,1.1098839361314194,1011,-25,18.255125035027216,19.968672242107942
2.249241239368155,1.1098728399011262,1011,-25,18.255125035027216,19.968672242107942
2.2603371379654535,1.1098617437817695,1011,-25,18.255125035027216,19.968672242107942
2.27143292562983,1.1098506477733476,1011,-25,18.255125035027216,19.968672242107942
2.282528602362397,1.1098395518758601,1011,-25,18.255125035027216,19.968672242107942
2.293624168164264,1.1098284560893052,1011,-25,18.255125035027216,19.968672242107942
2.304719623036541,1.1098173604136823,1011,-25,18.255125035027216,19.968672242107942
2.3158149669803385,1.10980626484899,1011,-25,18.255125035027216,19.968672242107942
2.3269101999967665,1.1097951693952273,1011,-25,18.255125035027216,19.968672242107942
2.3380053220869343,1.109784074052393,1011,-25,18.255125035027216,19.968672242107942
2.3491003332519536,1.1097729788204862,1011,-25,18.255125035027216,19.968672242107942
2.360195233492932,1.1097618836995056,1011,-25,18.255125035027216,19.968672242107942
2.3712900228109812,1.10975078868945,1011,-25,18.255125035027216,19.968672242107942
2.38238470120721,1.1097396937903186,1011,-25,18.255125035027216,19.968672242107942
2.3934792686827273,1.10972859900211,1011,-25,18.255125035027216,19.968672242107942
2.4045737252386434,1.1097175043248233,1011,-25,18.255125035027216,19.968672242107942
2.4156680708760683,1.1097064097584572,1011,-25,18.255125035027216,19.968672242107942
2.4267623055961107,1.1096953153030107,1011,-25,18.255125035027216,19.968672242107942
2.4378564293998797,1.1096842209584827,1011,-25,18.255125035027216,19.968672242107942
2.4489504422884854,1.1096731267248723,1011,-25,18.255125035027216,19.968672242107942
2.4600443442630366,1.109662032602178,1011,-25,18.255125035027216,19.968672242107942
2.471138135324643,1.1096509385903988,1011,-25,18.255125035027216,19.968672242107942
2.482231815474413,1.1096398446895335,1011,-25,18.255125035027216,19.968672242107942
2.4933253847134567,1.1096287508995815,1011,-25,18.255125035027216,19.968672242107942
2.504418843042883,1.109617657220541,1011,-25,18.255125035027216,19.968672242107942
2.5155121904638,1.1096065636524113,1011,-25,18.255125035027216,19.968672242107942
2.5266054269773184,1.1095954701951913,1011,-25,18.255125035027216,19.968672242107942
2.537698552584546,1.1095843768488798,1011,-25,18.255125035027216,19.968672242107942
2.548791567286592,1.1095732836134755,1011,-25,18.255125035027216,19.968672242107942
2.559884471084566,1.1095621904889776,1011,-25,18.255125035027216,19.968672242107942
2.570977263979577,1.1095510974753848,1011,-25,18.255125035027216,19.968672242107942
