Vout,Iout,Irradiance,Temperature,MaxVoltage,MaxPower
0.0020865599369236836,0.41731599999999996,361,3,20.298574490030003,8.059048121916419
0.006259641228302965,0.41731599999999996,361,3,20.298574490030003,8.059048121916419
0.0104326376819863,0.417313871708463,361,3,20.298574490030003,8.059048121916419
0.0146055341417474,0.41730969862717165,361,3,20.298574490030003,8.059048121916419
0.018778325654268572,0.4173055256309308,361,3,20.298574490030003,8.059048121916419
0.022951017085282285,0.41730135273488833,361,3,20.298574490030003,8.059048121916419
0.02712361292631465,0.4172971799437931,361,3,20.298574490030003,8.059048121916419
0.03129611732338502,0.4172930072527794,361,3,20.298574490030003,8.059048121916419
0.035468534103543614,0.41728883465735567,361,3,20.298574490030003,8.059048121916419
0.03964086679941348,0.41728466215337584,361,3,20.298574490030003,8.059048121916419
0.04381311867184413,0.417280489737013,361,3,20.298574490030003,8.059048121916419
0.04798529273082234,0.4172763174047343,361,3,20.298574490030003,8.059048121916419
0.052157391754773824,0.41727214515327915,361,3,20.298574490030003,8.059048121916419
0.05632941830837993,0.4172679729796374,361,3,20.298574490030003,8.059048121916419
0.06050137475902347,0.41726380088103066,361,3,20.298574490030003,8.059048121916419
0.06467326329196922,0.41725962885489426,361,3,20.298574490030003,8.059048121916419
0.06884508592437628,0.41725545689886084,361,3,20.298574490030003,8.059048121916419
0.07301684451823247,0.4172512850107451,361,3,20.298574490030003,8.059048121916419
0.07718854079229343,0.4172471131885299,361,3,20.298574490030003,8.059048121916419
0.08136017633310308,0.41724294143035323,361,3,20.298574490030003,8.059048121916419
0.08553175260516628,0.41723876973449636,361,3,20.298574490030003,8.059048121916419
0.08970327096033859,0.41723459809937274,361,3,20.298574490030003,8.059048121916419
0.09387473264649389,0.41723042652351783,361,3,20.298574490030003,8.059048121916419
0.09804613881552461,0.4172262550055798,361,3,20.298574490030003,8.059048121916419
0.10221749053072694,0.41722208354431084,361,3,20.298574490030003,8.059048121916419
0.10638878877361742,0.41721791213855897,361,3,20.298574490030003,8.059048121916419
0.11056003445022523,0.41721374078726087,361,3,20.298574490030003,8.059048121916419
0.1147312283969004,0.4172095694894351,361,3,20.298574490030003,8.059048121916419
0.11890237138567486,0.4172053982441757,361,3,20.298574490030003,8.059048121916419
0.12307346412921133,0.4172012270506461,361,3,20.298574490030003,8.059048121916419
0.1272445072853711,0.4171970559080745,361,3,20.298574490030003,8.059048121916419
0.13141550146143083,0.41719288481574807,361,3,20.298574490030003,8.059048121916419
0.13558644721797428,0.417188713773009,361,3,20.298574490030003,8.059048121916419
0.13975734507248513,0.41718454277925004,361,3,20.298574490030003,8.059048121916419
0.14392819550266323,0.4171803718339106,361,3,20.298574490030003,8.059048121916419
0.14809899894948536,0.41717620093647323,361,3,20.298574490030003,8.059048121916419
0.152269755820031,0.41717203008646014,361,3,20.298574490030003,8.059048121916419
0.15644046649009036,0.41716785928343036,361,3,20.298574490030003,8.059048121916419
0.1606111313065719,0.41716368852697694,361,3,20.298574490030003,8.059048121916419
0.16478175058972436,0.41715951781672395,361,3,20.298574490030003,8.059048121916419
0.16895232463518814,0.41715534715232455,361,3,20.298574490030003,8.059048121916419
0.17312285371588876,0.41715117653345846,361,3,20.298574490030003,8.059048121916419
0.1772933380837844,0.41714700595983006,361,3,20.298574490030003,8.059048121916419
0.18146377797147922,0.4171428354311664,361,3,20.298574490030003,8.059048121916419
0.18563417359371262,0.4171386649472156,361,3,20.298574490030003,8.059048121916419
0.18980452514873367,0.4171344945077449,361,3,20.298574490030003,8.059048121916419
0.19397483281956981,0.41713032411253975,361,3,20.298574490030003,8.059048121916419
0.1981450967751983,0.4171261537614018,361,3,20.298574490030003,8.059048121916419
0.20231531717162685,0.41712198345414797,361,3,20.298574490030003,8.059048121916419
0.20648549415289197,0.41711781319060937,361,3,20.298574490030003,8.059048121916419
0.21065562785197978,0.41711364297062997,361,3,20.298574490030003,8.059048121916419
0.21482571839167633,0.41710947279406574,361,3,20.298574490030003,8.059048121916419
0.2189957658853523,0.41710530266078366,361,3,20.298574490030003,8.059048121916419
0.22316577043768762,0.417101132570661,361,3,20.298574490030003,8.059048121916419
0.22733573214533997,0.41709696252358436,361,3,20.298574490030003,8.059048121916419
0.23150565109756216,0.41709279251944903,361,3,20.298574490030003,8.059048121916419
0.23567552737677175,0.4170886225581584,361,3,20.298574490030003,8.059048121916419
0.23984536105907703,0.4170844526396231,361,3,20.298574490030003,8.059048121916419
0.24401515221476258,0.4170802827637609,361,3,20.298574490030003,8.059048121916419
0.2481849009087371,0.4170761129304956,361,3,20.298574490030003,8.059048121916419
0.25235460720094727,0.41707194313975693,361,3,20.298574490030003,8.059048121916419
0.2565242711467593,0.41706777339147993,361,3,20.298574490030003,8.059048121916419
0.26069389279731175,0.4170636036856047,361,3,20.298574490030003,8.059048121916419
0.2648634721998404,0.41705943402207585,361,3,20.298574490030003,8.059048121916419
0.2690330093979787,0.4170552644008423,361,3,20.298574490030003,8.059048121916419
0.2732025044320348,0.4170510948218567,361,3,20.298574490030003,8.059048121916419
0.2773719573392479,0.41704692528507553,361,3,20.298574490030003,8.059048121916419
0.28154136815402375,0.41704275579045846,361,3,20.298574490030003,8.059048121916419
0.28571073690815296,0.4170385863379682,361,3,20.298574490030003,8.059048121916419
0.2898800636310122,0.4170344169275704,361,3,20.298574490030003,8.059048121916419
0.29404934834974994,0.4170302475592332,361,3,20.298574490030003,8.059048121916419
0.2982185910894578,0.41702607823292726,361,3,20.298574490030003,8.059048121916419
0.30238779187332904,0.41702190894862545,361,3,20.298574490030003,8.059048121916419
0.3065569507228042,0.4170177397063027,361,3,20.298574490030003,8.059048121916419
0.31072606765770644,0.41701357050593574,361,3,20.298574490030003,8.059048121916419
0.3148951426963656,0.4170094013475032,361,3,20.298574490030003,8.059048121916419
0.3190641758557333,0.41700523223098523,361,3,20.298574490030003,8.059048121916419
0.3232331671514891,0.4170010631563635,361,3,20.298574490030003,8.059048121916419
0.3274021165981378,0.416996894123621,361,3,20.298574490030003,8.059048121916419
0.33157102420910073,0.41699272513274216,361,3,20.298574490030003,8.059048121916419
0.33573988999679816,0.4169885561837124,361,3,20.298574490030003,8.059048121916419
0.3399087139727272,0.4169843872765184,361,3,20.298574490030003,8.059048121916419
0.3440774961475322,0.4169802184111476,361,3,20.298574490030003,8.059048121916419
0.34824623653107034,0.4169760495875885,361,3,20.298574490030003,8.059048121916419
0.3524149351324729,0.4169718808058306,361,3,20.298574490030003,8.059048121916419
0.35658359196020045,0.4169677120658639,361,3,20.298574490030003,8.059048121916419
0.3607522070220945,0.41696354336767943,361,3,20.298574490030003,8.059048121916419
0.3649207803254254,0.41695937471126854,361,3,20.298574490030003,8.059048121916419
0.3690893118769362,0.4169552060966235,361,3,20.298574490030003,8.059048121916419
0.3732578016828831,0.4169510375237371,361,3,20.298574490030003,8.059048121916419
0.37742624974907296,0.4169468689926024,361,3,20.298574490030003,8.059048121916419
0.3815946560808982,0.4169427005032133,361,3,20.298574490030003,8.059048121916419
0.38576302068336804,0.41693853205556397,361,3,20.298574490030003,8.059048121916419
0.3899313435611383,0.41693436364964903,361,3,20.298574490030003,8.059048121916419
0.394099624718539,0.4169301952854634,361,3,20.298574490030003,8.059048121916419
0.39826786415959875,0.41692602696300246,361,3,20.298574490030003,8.059048121916419
0.40243606188806835,0.4169218586822619,361,3,20.298574490030003,8.059048121916419
0.40660421790744217,0.4169176904432377,361,3,20.298574490030003,8.059048121916419
0.4107723322209775,0.41691352224592604,361,3,20.298574490030003,8.059048121916419
0.41494040483171324,0.4169093540903235,361,3,20.298574490030003,8.059048121916419
0.41910843574248646,0.4169051859764268,361,3,20.298574490030003,8.059048121916419
0.4232764249559482,0.41690101790423284,361,3,20.298574490030003,8.059048121916419
0.4274443724745772,0.4168968498737389,361,3,20.298574490030003,8.059048121916419
0.43161227830069376,0.4168926818849422,361,3,20.298574490030003,8.059048121916419
0.43578014243647173,0.4168885139378404,361,3,20.298574490030003,8.059048121916419
0.4399479648839498,0.4168843460324311,361,3,20.298574490030003,8.059048121916419
0.44411574564504147,0.4168801781687121,361,3,20.298574490030003,8.059048121916419
0.4482834847215456,0.4168760103466814,361,3,20.298574490030003,8.059048121916419
0.4524511821151543,0.4168718425663371,361,3,20.298574490030003,8.059048121916419
0.4566188378274617,0.4168676748276774,361,3,20.298574490030003,8.059048121916419
0.46078645185997114,0.41686350713070053,361,3,20.298574490030003,8.059048121916419
0.46495402421410276,0.41685933947540504,361,3,20.298574490030003,8.059048121916419
0.46912155489119894,0.4168551718617893,361,3,20.298574490030003,8.059048121916419
0.47328904389253135,0.4168510042898519,361,3,20.298574490030003,8.059048121916419
0.4774564912193054,0.41684683675959155,361,3,20.298574490030003,8.059048121916419
0.48162389687266594,0.416842669271007,361,3,20.298574490030003,8.059048121916419
0.48579126085370206,0.416838501824097,361,3,20.298574490030003,8.059048121916419
0.48995858316345076,0.41683433441886036,361,3,20.298574490030003,8.059048121916419
0.4941258638029014,0.4168301670552961,361,3,20.298574490030003,8.059048121916419
0.4982931027729992,0.41682599973340306,361,3,20.298574490030003,8.059048121916419
0.502460300074649,0.4168218324531804,361,3,20.298574490030003,8.059048121916419
0.5066274557087175,0.416817665214627,361,3,20.298574490030003,8.059048121916419
0.5107945696760375,0.4168134980177421,361,3,20.298574490030003,8.059048121916419
0.5149616419774091,0.41680933086252475,361,3,20.298574490030003,8.059048121916419
0.5191286726136032,0.41680516374897414,361,3,20.298574490030003,8.059048121916419
0.5232956615853634,0.4168009966770895,361,3,20.298574490030003,8.059048121916419
0.527462608893408,0.41679682964687,361,3,20.298574490030003,8.059048121916419
0.5316295145384323,0.41679266265831494,361,3,20.298574490030003,8.059048121916419
0.5357963785211102,0.41678849571142357,361,3,20.298574490030003,8.059048121916419
0.5399632008420951,0.41678432880619526,361,3,20.298574490030003,8.059048121916419
0.5441299815020234,0.4167801619426293,361,3,20.298574490030003,8.059048121916419
0.5482967205015132,0.416775995120725,361,3,20.298574490030003,8.059048121916419
0.5524634178411681,0.41677182834048176,361,3,20.298574490030003,8.059048121916419
0.5566300735215767,0.41676766160189893,361,3,20.298574490030003,8.059048121916419
0.5607966875433148,0.41676349490497594,361,3,20.298574490030003,8.059048121916419
0.5649632599069457,0.41675932824971224,361,3,20.298574490030003,8.059048121916419
0.5691297906130213,0.41675516163610715,361,3,20.298574490030003,8.059048121916419
0.5732962796620834,0.4167509950641602,361,3,20.298574490030003,8.059048121916419
0.5774627270546637,0.4167468285338708,361,3,20.298574490030003,8.059048121916419
0.5816291327912857,0.41674266204523835,361,3,20.298574490030003,8.059048121916419
0.5857954968724639,0.4167384955982624,361,3,20.298574490030003,8.059048121916419
0.5899618192987057,0.41673432919294245,361,3,20.298574490030003,8.059048121916419
0.5941281000705113,0.41673016282927794,361,3,20.298574490030003,8.059048121916419
0.5982943391883748,0.4167259965072683,361,3,20.298574490030003,8.059048121916419
0.6024605366527838,0.41672183022691317,361,3,20.298574490030003,8.059048121916419
0.6066266924642207,0.4167176639882119,361,3,20.298574490030003,8.059048121916419
0.6107928066231629,0.4167134977911642,361,3,20.298574490030003,8.059048121916419
0.614958879130083,0.41670933163576934,361,3,20.298574490030003,8.059048121916419
0.6191249099854493,0.416705165522027,361,3,20.298574490030003,8.059048121916419
0.6232908991897262,0.4167009994499367,361,3,20.298574490030003,8.059048121916419
0.6274568467433739,0.416696833419498,361,3,20.298574490030003,8.059048121916419
0.6316227526468502,0.4166926674307103,361,3,20.298574490030003,8.059048121916419
0.6357886169006086,0.4166885014835732,361,3,20.298574490030003,8.059048121916419
0.6399544395051004,0.4166843355780864,361,3,20.298574490030003,8.059048121916419
0.6441202204607743,0.4166801697142492,361,3,20.298574490030003,8.059048121916419
0.6482859597680761,0.41667600389206133,361,3,20.298574490030003,8.059048121916419
0.6524516574274495,0.4166718381115222,361,3,20.298574490030003,8.059048121916419
0.6566173134393363,0.4166676723726315,361,3,20.298574490030003,8.059048121916419
0.6607829278041761,0.4166635066753887,361,3,20.298574490030003,8.059048121916419
0.6649485005224066,0.4166593410197934,361,3,20.298574490030003,8.059048121916419
0.669114031594464,0.4166551754058451,361,3,20.298574490030003,8.059048121916419
0.6732795210207833,0.4166510098335435,361,3,20.298574490030003,8.059048121916419
0.6774449688017975,0.41664684430288795,361,3,20.298574490030003,8.059048121916419
0.6816103749379386,0.4166426788138782,361,3,20.298574490030003,8.059048121916419
0.6857757394296373,0.41663851336651375,361,3,20.298574490030003,8.059048121916419
0.6899410622773233,0.4166343479607941,361,3,20.298574490030003,8.059048121916419
0.6941063434814254,0.41663018259671897,361,3,20.298574490030003,8.059048121916419
0.6982715830423711,0.41662601727428783,361,3,20.298574490030003,8.059048121916419
0.7024367809605873,0.41662185199350027,361,3,20.298574490030003,8.059048121916419
0.7066019372364998,0.41661768675435584,361,3,20.298574490030003,8.059048121916419
0.7107670518705339,0.41661352155685416,361,3,20.298574490030003,8.059048121916419
0.7149321248631142,0.4166093564009948,361,3,20.298574490030003,8.059048121916419
0.7190971562146645,0.41660519128677725,361,3,20.298574490030003,8.059048121916419
0.7232621459256083,0.4166010262142012,361,3,20.298574490030003,8.059048121916419
0.7274270939963681,0.41659686118326616,361,3,20.298574490030003,8.059048121916419
0.7315920004273665,0.4165926961939717,361,3,20.298574490030003,8.059048121916419
0.7357568652190251,0.41658853124631745,361,3,20.298574490030003,8.059048121916419
0.7399216883717652,0.416584366340303,361,3,20.298574490030003,8.059048121916419
0.744086469886008,0.41658020147592784,361,3,20.298574490030003,8.059048121916419
0.7482512097621743,0.41657603665319154,361,3,20.298574490030003,8.059048121916419
0.7524159080006839,0.4165718718720938,361,3,20.298574490030003,8.059048121916419
0.7565805646019571,0.41656770713263414,361,3,20.298574490030003,8.059048121916419
0.7607451795664134,0.4165635424348121,361,3,20.298574490030003,8.059048121916419
0.7649097528944724,0.4165593777786273,361,3,20.298574490030003,8.059048121916419
0.7690742845865532,0.4165552131640793,361,3,20.298574490030003,8.059048121916419
0.7732387746430747,0.4165510485911677,361,3,20.298574490030003,8.059048121916419
0.7774032230644556,0.4165468840598921,361,3,20.298574490030003,8.059048121916419
0.7815676298511146,0.416542719570252,361,3,20.298574490030003,8.059048121916419
0.7857319950034698,0.4165385551222471,361,3,20.298574490030003,8.059048121916419
0.7898963185219395,0.4165343907158769,361,3,20.298574490030003,8.059048121916419
0.7940606004069419,0.416530226351141,361,3,20.298574490030003,8.059048121916419
0.7982248406588948,0.41652606202803893,361,3,20.298574490030003,8.059048121916419
0.8023890392782158,0.4165218977465704,361,3,20.298574490030003,8.059048121916419
0.8065531962653227,0.4165177335067349,361,3,20.298574490030003,8.059048121916419
0.8107173116206333,0.41651356930853195,361,3,20.298574490030003,8.059048121916419
0.8148813853445646,0.4165094051519613,361,3,20.298574490030003,8.059048121916419
0.8190454174375338,0.4165052410370224,361,3,20.298574490030003,8.059048121916419
0.8232094078999587,0.4165010769637149,361,3,20.298574490030003,8.059048121916419
0.8273733567322561,0.41649691293203833,361,3,20.298574490030003,8.059048121916419
0.8315372639348431,0.4164927489419923,361,3,20.298574490030003,8.059048121916419
0.8357011295081366,0.41648858499357644,361,3,20.298574490030003,8.059048121916419
0.8398649534525536,0.41648442108679024,361,3,20.298574490030003,8.059048121916419
0.8440287357685111,0.41648025722163334,361,3,20.298574490030003,8.059048121916419
0.8481924764564261,0.4164760933981053,361,3,20.298574490030003,8.059048121916419
0.852356175516715,0.4164719296162057,361,3,20.298574490030003,8.059048121916419
0.8565198329497948,0.4164677658759342,361,3,20.298574490030003,8.059048121916419
0.8606834487560819,0.4164636021772903,361,3,20.298574490030003,8.059048121916419
0.864847022935993,0.41645943852027356,361,3,20.298574490030003,8.059048121916419
0.8690105554899448,0.41645527490488365,361,3,20.298574490030003,8.059048121916419
0.8731740464183536,0.4164511113311201,361,3,20.298574490030003,8.059048121916419
0.8773374957216364,0.4164469477989825,361,3,20.298574490030003,8.059048121916419
0.8815009034002093,0.4164427843084705,361,3,20.298574490030003,8.059048121916419
0.8856642694544888,0.41643862085958355,361,3,20.298574490030003,8.059048121916419
0.8898275938848915,0.4164344574523213,361,3,20.298574490030003,8.059048121916419
0.8939908766918337,0.4164302940866834,361,3,20.298574490030003,8.059048121916419
0.898154117875732,0.4164261307626693,361,3,20.298574490030003,8.059048121916419
0.9023173174370024,0.4164219674802787,361,3,20.298574490030003,8.059048121916419
0.9064804753760615,0.41641780423951114,361,3,20.298574490030003,8.059048121916419
0.9106435916933251,0.4164136410403662,361,3,20.298574490030003,8.059048121916419
0.9148066663892103,0.4164094778828435,361,3,20.298574490030003,8.059048121916419
0.9189696994641326,0.41640531476694254,361,3,20.298574490030003,8.059048121916419
0.923132690918509,0.41640115169266295,361,3,20.298574490030003,8.059048121916419
0.9272956407527553,0.41639698866000435,361,3,20.298574490030003,8.059048121916419
0.9314585489672877,0.4163928256689663,361,3,20.298574490030003,8.059048121916419
0.9356214155625224,0.41638866271954833,361,3,20.298574490030003,8.059048121916419
0.9397842405388758,0.41638449981175013,361,3,20.298574490030003,8.059048121916419
0.943947023896764,0.4163803369455712,361,3,20.298574490030003,8.059048121916419
0.9481097656366033,0.41637617412101113,361,3,20.298574490030003,8.059048121916419
0.9522724657588101,0.4163720113380695,361,3,20.298574490030003,8.059048121916419
0.9564351242637998,0.41636784859674597,361,3,20.298574490030003,8.059048121916419
0.9605977411519893,0.41636368589704004,361,3,20.298574490030003,8.059048121916419
0.9647603164237943,0.4163595232389513,361,3,20.298574490030003,8.059048121916419
0.9689228500796311,0.4163553606224794,361,3,20.298574490030003,8.059048121916419
0.9730853421199157,0.4163511980476238,361,3,20.298574490030003,8.059048121916419
0.9772477925450643,0.4163470355143843,361,3,20.298574490030003,8.059048121916419
0.981410201355493,0.41634287302276024,361,3,20.298574490030003,8.059048121916419
0.9855725685516176,0.41633871057275135,361,3,20.298574490030003,8.059048121916419
0.9897348941338547,0.41633454816435717,361,3,20.298574490030003,8.059048121916419
0.99389717810262,0.4163303857975773,361,3,20.298574490030003,8.059048121916419
0.9980594204583296,0.41632622347241127,361,3,20.298574490030003,8.059048121916419
1.0022216212014,0.4163220611888588,361,3,20.298574490030003,8.059048121916419
