Vout,Iout,Irradiance,Temperature,MaxVoltage,MaxPower
0.00635530889126066,1.2710739999999998,1141,-18,18.77557103825535,23.51308591157909
0.019065809158105518,1.2710739999999998,1141,-18,18.77557103825535,23.51308591157909
0.03177605102366804,1.2710675175837085,1141,-18,18.77557103825535,23.51308591157909
0.04448598832464471,1.2710548070834418,1141,-18,18.77557103825535,23.51308591157909
0.05719560597406707,1.2710420968422245,1141,-18,18.77557103825535,23.51308591157909
0.06990491879213376,1.2710293869061944,1141,-18,18.77557103825535,23.51308591157909
0.08261394045927416,1.2710166772898162,1141,-18,18.77557103825535,23.51308591157909
0.09532268360356248,1.271003967978269,1141,-18,18.77557103825535,23.51308591157909
0.1080311598815468,1.270991258957873,1141,-18,18.77557103825535,23.51308591157909
0.1207393800529998,1.2709785502159994,1141,-18,18.77557103825535,23.51308591157909
0.13344735404991803,1.2709658417409924,1141,-18,18.77557103825535,23.51308591157909
0.14615509104021235,1.2709531335220918,1141,-18,18.77557103825535,23.51308591157909
0.1588625994864979,1.2709404255493657,1141,-18,18.77557103825535,23.51308591157909
0.1715698872003606,1.2709277178136462,1141,-18,18.77557103825535,23.51308591157909
0.18427696139244837,1.2709150103064708,1141,-18,18.77557103825535,23.51308591157909
0.19698382871870826,1.2709023030200277,1141,-18,18.77557103825535,23.51308591157909
0.20969049532306605,1.2708895959471063,1141,-18,18.77557103825535,23.51308591157909
0.22239696687682187,1.270876889081051,1141,-18,18.77557103825535,23.51308591157909
0.23510324861501491,1.2708641824157172,1141,-18,18.77557103825535,23.51308591157909
0.2478093453699898,1.2708514759454341,1141,-18,18.77557103825535,23.51308591157909
0.2605152616023807,1.2708387696649666,1141,-18,18.77557103825535,23.51308591157909
0.27322100142971134,1.2708260635694821,1141,-18,18.77557103825535,23.51308591157909
0.28592656865279437,1.2708133576545204,1141,-18,18.77557103825535,23.51308591157909
0.29863196678009973,1.2708006519159638,1141,-18,18.77557103825535,23.51308591157909
0.31133719905024776,1.2707879463500114,1141,-18,18.77557103825535,23.51308591157909
0.3240422684527719,1.2707752409531545,1141,-18,18.77557103825535,23.51308591157909
0.33674717774728397,1.270762535722155,1141,-18,18.77557103825535,23.51308591157909
0.34945192948116477,1.270749830654023,1141,-18,18.77557103825535,23.51308591157909
0.362156526005893,1.270737125745999,1141,-18,18.77557103825535,23.51308591157909
0.37486096949211883,1.2707244209955355,1141,-18,18.77557103825535,23.51308591157909
0.3875652619435768,1.2707117164002812,1141,-18,18.77557103825535,23.51308591157909
0.40026940520992876,1.2706990119580657,1141,-18,18.77557103825535,23.51308591157909
0.4129734009986181,1.2706863076668846,1141,-18,18.77557103825535,23.51308591157909
0.42567725088581293,1.2706736035248887,1141,-18,18.77557103825535,23.51308591157909
0.43838095632650564,1.2706608995303705,1141,-18,18.77557103825535,23.51308591157909
0.4510845186638375,1.2706481956817537,1141,-18,18.77557103825535,23.51308591157909
0.4637879391377037,1.2706354919775833,1141,-18,18.77557103825535,23.51308591157909
0.47649121889269774,1.2706227884165164,1141,-18,18.77557103825535,23.51308591157909
0.48919435898544383,1.270610084997313,1141,-18,18.77557103825535,23.51308591157909
0.5018973603913658,1.2705973817188283,1141,-18,18.77557103825535,23.51308591157909
0.5146002240109344,1.270584678580006,1141,-18,18.77557103825535,23.51308591157909
0.5273029506754343,1.2705719755798703,1141,-18,18.77557103825535,23.51308591157909
0.5400055411522877,1.270559272717521,1141,-18,18.77557103825535,23.51308591157909
0.5527079961499676,1.2705465699921268,1141,-18,18.77557103825535,23.51308591157909
0.565410316322534,1.2705338674029203,1141,-18,18.77557103825535,23.51308591157909
0.5781125022738198,1.2705211649491928,1141,-18,18.77557103825535,23.51308591157909
0.5908145545612961,1.2705084626302905,1141,-18,18.77557103825535,23.51308591157909
0.6035164736996385,1.2704957604456095,1141,-18,18.77557103825535,23.51308591157909
0.6162182601640205,1.2704830583945923,1141,-18,18.77557103825535,23.51308591157909
0.6289199143931529,1.2704703564767241,1141,-18,18.77557103825535,23.51308591157909
0.6416214367920888,1.27045765469153,1141,-18,18.77557103825535,23.51308591157909
0.654322827734814,1.270444953038571,1141,-18,18.77557103825535,23.51308591157909
0.6670240875666361,1.2704322515174422,1141,-18,18.77557103825535,23.51308591157909
0.6797252166063926,1.2704195501277697,1141,-18,18.77557103825535,23.51308591157909
0.6924262151484865,1.270406848869208,1141,-18,18.77557103825535,23.51308591157909
0.7051270834647668,1.2703941477414384,1141,-18,18.77557103825535,23.51308591157909
0.7178278218062636,1.2703814467441665,1141,-18,18.77557103825535,23.51308591157909
0.7305284304047897,1.2703687458771202,1141,-18,18.77557103825535,23.51308591157909
0.7432289094744199,1.2703560451400489,1141,-18,18.77557103825535,23.51308591157909
0.7559292592128556,1.2703433445327204,1141,-18,18.77557103825535,23.51308591157909
0.7686294798026837,1.270330644054921,1141,-18,18.77557103825535,23.51308591157909
0.7813295714125409,1.2703179437064525,1141,-18,18.77557103825535,23.51308591157909
0.7940295341981862,1.2703052434871327,1141,-18,18.77557103825535,23.51308591157909
0.8067293683034916,1.2702925433967929,1141,-18,18.77557103825535,23.51308591157909
0.8194290738613574,1.2702798434352773,1141,-18,18.77557103825535,23.51308591157909
0.832128650994556,1.270267143602442,1141,-18,18.77557103825535,23.51308591157909
0.8448280998165112,1.270254443898154,1141,-18,18.77557103825535,23.51308591157909
0.8575274204320167,1.2702417443222909,1141,-18,18.77557103825535,23.51308591157909
0.8702266129379019,1.2702290448747389,1141,-18,18.77557103825535,23.51308591157909
0.8829256774236431,1.2702163455553934,1141,-18,18.77557103825535,23.51308591157909
0.8956246139719298,1.2702036463641575,1141,-18,18.77557103825535,23.51308591157909
0.9083234226591872,1.2701909473009416,1141,-18,18.77557103825535,23.51308591157909
0.9210221035560575,1.2701782483656632,1141,-18,18.77557103825535,23.51308591157909
0.9337206567278452,1.2701655495582458,1141,-18,18.77557103825535,23.51308591157909
0.9464190822349283,1.2701528508786188,1141,-18,18.77557103825535,23.51308591157909
0.9591173801331366,1.270140152326717,1141,-18,18.77557103825535,23.51308591157909
0.9718155504741017,1.2701274539024798,1141,-18,18.77557103825535,23.51308591157909
0.9845135933055806,1.2701147556058514,1141,-18,18.77557103825535,23.51308591157909
0.9972115086717532,1.2701020574367803,1141,-18,18.77557103825535,23.51308591157909
1.0099092966134977,1.2700893593952187,1141,-18,18.77557103825535,23.51308591157909
1.0226069571686451,1.2700766614811223,1141,-18,18.77557103825535,23.51308591157909
1.0353044903722128,1.2700639636944504,1141,-18,18.77557103825535,23.51308591157909
1.0480018962566215,1.270051266035165,1141,-18,18.77557103825535,23.51308591157909
1.0606991748518957,1.2700385685032312,1141,-18,18.77557103825535,23.51308591157909
1.073396326185847,1.2700258710986165,1141,-18,18.77557103825535,23.51308591157909
1.086093350284245,1.270013173821291,1141,-18,18.77557103825535,23.51308591157909
1.0987902471709734,1.270000476671227,1141,-18,18.77557103825535,23.51308591157909
1.1114870168681765,1.2699877796483983,1141,-18,18.77557103825535,23.51308591157909
1.1241836593963928,1.2699750827527811,1141,-18,18.77557103825535,23.51308591157909
1.136880174774677,1.2699623859843536,1141,-18,18.77557103825535,23.51308591157909
1.1495765630207166,1.269949689343095,1141,-18,18.77557103825535,23.51308591157909
1.1622728241509355,1.2699369928289865,1141,-18,18.77557103825535,23.51308591157909
1.1749689581805907,1.26992429644201,1141,-18,18.77557103825535,23.51308591157909
1.1876649651238638,1.2699116001821495,1141,-18,18.77557103825535,23.51308591157909
1.200360844993943,1.2698989040493895,1141,-18,18.77557103825535,23.51308591157909
1.2130565978030987,1.2698862080437159,1141,-18,18.77557103825535,23.51308591157909
1.2257522235627551,1.2698735121651155,1141,-18,18.77557103825535,23.51308591157909
1.2384477222835553,1.2698608164135758,1141,-18,18.77557103825535,23.51308591157909
1.2511430939754207,1.269848120789086,1141,-18,18.77557103825535,23.51308591157909
1.2638383386476078,1.2698354252916346,1141,-18,18.77557103825535,23.51308591157909
1.2765334563087571,1.2698227299212124,1141,-18,18.77557103825535,23.51308591157909
1.2892284469669433,1.2698100346778096,1141,-18,18.77557103825535,23.51308591157909
1.3019233106297163,1.2697973395614182,1141,-18,18.77557103825535,23.51308591157909
1.314618047304144,1.2697846445720293,1141,-18,18.77557103825535,23.51308591157909
1.3273126569968465,1.2697719497096362,1141,-18,18.77557103825535,23.51308591157909
1.3400071397140334,1.2697592549742311,1141,-18,18.77557103825535,23.51308591157909
1.3527014954615342,1.269746560365808,1141,-18,18.77557103825535,23.51308591157909
1.3653957242448262,1.2697338658843602,1141,-18,18.77557103825535,23.51308591157909
1.3780898260690646,1.2697211715298822,1141,-18,18.77557103825535,23.51308591157909
1.390783800939104,1.2697084773023684,1141,-18,18.77557103825535,23.51308591157909
1.4034776488595242,1.2696957832018136,1141,-18,18.77557103825535,23.51308591157909
1.4161713698346494,1.269683089228213,1141,-18,18.77557103825535,23.51308591157909
1.42886496386857,1.269670395381562,1141,-18,18.77557103825535,23.51308591157909
1.4415584309651575,1.2696577016618562,1141,-18,18.77557103825535,23.51308591157909
1.4542517711280842,1.2696450080690918,1141,-18,18.77557103825535,23.51308591157909
1.4669449843608375,1.2696323146032644,1141,-18,18.77557103825535,23.51308591157909
1.4796380706667343,1.269619621264371,1141,-18,18.77557103825535,23.51308591157909
1.4923310300489325,1.2696069280524076,1141,-18,18.77557103825535,23.51308591157909
1.5050238625104457,1.269594234967371,1141,-18,18.77557103825535,23.51308591157909
1.5177165680541542,1.269581542009258,1141,-18,18.77557103825535,23.51308591157909
1.5304091466828127,1.269568849178066,1141,-18,18.77557103825535,23.51308591157909
1.5431015983990615,1.2695561564737914,1141,-18,18.77557103825535,23.51308591157909
1.5557939232054365,1.269543463896432,1141,-18,18.77557103825535,23.51308591157909
1.5684861211043757,1.2695307714459851,1141,-18,18.77557103825535,23.51308591157909
1.5811781920982264,1.269518079122448,1141,-18,18.77557103825535,23.51308591157909
1.5938701361892538,1.2695053869258184,1141,-18,18.77557103825535,23.51308591157909
1.6065619533796454,1.2694926948560936,1141,-18,18.77557103825535,23.51308591157909
1.6192536436715192,1.2694800029132718,1141,-18,18.77557103825535,23.51308591157909
1.6319452070669274,1.2694673110973507,1141,-18,18.77557103825535,23.51308591157909
1.644636643567861,1.269454619408328,1141,-18,18.77557103825535,23.51308591157909
1.657327953176257,1.2694419278462017,1141,-18,18.77557103825535,23.51308591157909
1.670019135894,1.26942923641097,1141,-18,18.77557103825535,23.51308591157909
1.6827101917229268,1.2694165451026307,1141,-18,18.77557103825535,23.51308591157909
1.6954011206648312,1.2694038539211823,1141,-18,18.77557103825535,23.51308591157909
1.7080919227214661,1.2693911628666223,1141,-18,18.77557103825535,23.51308591157909
1.720782597894548,1.2693784719389496,1141,-18,18.77557103825535,23.51308591157909
1.7334731461857573,1.269365781138162,1141,-18,18.77557103825535,23.51308591157909
1.7461635675967446,1.269353090464258,1141,-18,18.77557103825535,23.51308591157909
1.7588538621291294,1.269340399917236,1141,-18,18.77557103825535,23.51308591157909
1.7715440297845058,1.269327709497094,1141,-18,18.77557103825535,23.51308591157909
1.7842340705644406,1.2693150192038307,1141,-18,18.77557103825535,23.51308591157909
1.7969239844704803,1.2693023290374443,1141,-18,18.77557103825535,23.51308591157909
1.8096137715041483,1.2692896389979333,1141,-18,18.77557103825535,23.51308591157909
1.822303431666948,1.2692769490852964,1141,-18,18.77557103825535,23.51308591157909
1.8349929649603665,1.2692642592995318,1141,-18,18.77557103825535,23.51308591157909
1.8476823713858728,1.269251569640638,1141,-18,18.77557103825535,23.51308591157909
1.8603716509449202,1.2692388801086134,1141,-18,18.77557103825535,23.51308591157909
1.873060803638948,1.269226190703457,1141,-18,18.77557103825535,23.51308591157909
1.885749829469383,1.2692135014251669,1141,-18,18.77557103825535,23.51308591157909
1.8984387284376394,1.2692008122737417,1141,-18,18.77557103825535,23.51308591157909
1.9111275005451198,1.2691881232491804,1141,-18,18.77557103825535,23.51308591157909
1.9238161457932172,1.269175434351481,1141,-18,18.77557103825535,23.51308591157909
1.9365046641833146,1.2691627455806425,1141,-18,18.77557103825535,23.51308591157909
1.9491930557167854,1.2691500569366632,1141,-18,18.77557103825535,23.51308591157909
1.9618813203949959,1.269137368419542,1141,-18,18.77557103825535,23.51308591157909
1.974569458219305,1.2691246800292773,1141,-18,18.77557103825535,23.51308591157909
1.987257469191064,1.269111991765868,1141,-18,18.77557103825535,23.51308591157909
1.9999453533116178,1.2690993036293126,1141,-18,18.77557103825535,23.51308591157909
2.012633110582305,1.2690866156196097,1141,-18,18.77557103825535,23.51308591157909
2.0253207410044602,1.2690739277367578,1141,-18,18.77557103825535,23.51308591157909
2.0380082445794123,1.269061239980756,1141,-18,18.77557103825535,23.51308591157909
2.0506956213084844,1.2690485523516026,1141,-18,18.77557103825535,23.51308591157909
2.0633828711929953,1.2690358648492963,1141,-18,18.77557103825535,23.51308591157909
2.0760699942342624,1.269023177473836,1141,-18,18.77557103825535,23.51308591157909
2.0887569904335974,1.2690104902252204,1141,-18,18.77557103825535,23.51308591157909
2.1014438597923077,1.268997803103448,1141,-18,18.77557103825535,23.51308591157909
2.1141306023117,1.2689851161085173,1141,-18,18.77557103825535,23.51308591157909
2.1268172179930773,1.2689724292404272,1141,-18,18.77557103825535,23.51308591157909
2.139503706837738,1.2689597424991765,1141,-18,18.77557103825535,23.51308591157909
2.152190068846981,1.2689470558847638,1141,-18,18.77557103825535,23.51308591157909
2.1648763040221004,1.2689343693971877,1141,-18,18.77557103825535,23.51308591157909
2.1775624123643906,1.2689216830364471,1141,-18,18.77557103825535,23.51308591157909
2.1902483938751414,1.2689089968025409,1141,-18,18.77557103825535,23.51308591157909
2.2029342485556422,1.2688963106954672,1141,-18,18.77557103825535,23.51308591157909
2.215619976407182,1.268883624715225,1141,-18,18.77557103825535,23.51308591157909
2.228305577431046,1.2688709388618131,1141,-18,18.77557103825535,23.51308591157909
2.240991051628519,1.2688582531352302,1141,-18,18.77557103825535,23.51308591157909
2.2536763990008852,1.2688455675354748,1141,-18,18.77557103825535,23.51308591157909
2.2663616195494254,1.268832882062546,1141,-18,18.77557103825535,23.51308591157909
2.2790467132754215,1.268820196716442,1141,-18,18.77557103825535,23.51308591157909
2.2917316801801544,1.2688075114971622,1141,-18,18.77557103825535,23.51308591157909
2.3044165202649025,1.2687948264047046,1141,-18,18.77557103825535,23.51308591157909
2.3171012335309435,1.2687821414390685,1141,-18,18.77557103825535,23.51308591157909
2.3297858199795565,1.2687694566002523,1141,-18,18.77557103825535,23.51308591157909
2.3424702796120167,1.2687567718882546,1141,-18,18.77557103825535,23.51308591157909
2.355154612429601,1.2687440873030746,1141,-18,18.77557103825535,23.51308591157909
2.367838818433584,1.2687314028447105,1141,-18,18.77557103825535,23.51308591157909
2.3805228976252413,1.2687187185131614,1141,-18,18.77557103825535,23.51308591157909
2.393206850005847,1.268706034308426,1141,-18,18.77557103825535,23.51308591157909
2.405890675576675,1.2686933502305027,1141,-18,18.77557103825535,23.51308591157909
2.4185743743389976,1.2686806662793906,1141,-18,18.77557103825535,23.51308591157909
2.4312579462940884,1.2686679824550882,1141,-18,18.77557103825535,23.51308591157909
2.44394139144322,1.268655298757594,1141,-18,18.77557103825535,23.51308591157909
2.4566247097876643,1.2686426151869075,1141,-18,18.77557103825535,23.51308591157909
2.4693079013286927,1.2686299317430267,1141,-18,18.77557103825535,23.51308591157909
2.4819909660675767,1.2686172484259506,1141,-18,18.77557103825535,23.51308591157909
2.4946739040055874,1.2686045652356779,1141,-18,18.77557103825535,23.51308591157909
2.507356715143996,1.2685918821722073,1141,-18,18.77557103825535,23.51308591157909
2.520039399484073,1.2685791992355377,1141,-18,18.77557103825535,23.51308591157909
2.5327219570270882,1.2685665164256676,1141,-18,18.77557103825535,23.51308591157909
2.545404387774312,1.268553833742596,1141,-18,18.77557103825535,23.51308591157909
2.558086691727015,1.2685411511863212,1141,-18,18.77557103825535,23.51308591157909
2.5707688688864656,1.268528468756842,1141,-18,18.77557103825535,23.51308591157909
2.5834509192539348,1.2685157864541576,1141,-18,18.77557103825535,23.51308591157909
2.596132842830691,1.2685031042782664,1141,-18,18.77557103825535,23.51308591157909
2.608814639618004,1.2684904222291673,1141,-18,18.77557103825535,23.51308591157909
2.621496309617143,1.2684777403068588,1141,-18,18.77557103825535,23.51308591157909
2.634177852829376,1.2684650585113395,1141,-18,18.77557103825535,23.51308591157909
2.6468592692559727,1.2684523768426086,1141,-18,18.77557103825535,23.51308591157909
2.659540558898202,1.2684396953006647,1141,-18,18.77557103825535,23.51308591157909
2.672221721757333,1.268427013885506,1141,-18,18.77557103825535,23.51308591157909
2.684902757834633,1.268414332597132,1141,-18,18.77557103825535,23.51308591157909
2.6975836671313704,1.2684016514355412,1141,-18,18.77557103825535,23.51308591157909
2.7102644496488146,1.2683889704007318,1141,-18,18.77557103825535,23.51308591157909
2.722945105388233,1.2683762894927033,1141,-18,18.77557103825535,23.51308591157909
2.7356256343508947,1.268363608711454,1141,-18,18.77557103825535,23.51308591157909
2.748306036538067,1.2683509280569827,1141,-18,18.77557103825535,23.51308591157909
2.7609863119510187,1.2683382475292881,1141,-18,18.77557103825535,23.51308591157909
2.7736664605910173,1.2683255671283689,1141,-18,18.77557103825535,23.51308591157909
2.786346482459331,1.268312886854224,1141,-18,18.77557103825535,23.51308591157909
2.799026377557228,1.268300206706852,1141,-18,18.77557103825535,23.51308591157909
2.811706145885977,1.2682875266862519,1141,-18,18.77557103825535,23.51308591157909
2.8243857874468437,1.2682748467924219,1141,-18,18.77557103825535,23.51308591157909
2.837065302241097,1.268262167025361,1141,-18,18.77557103825535,23.51308591157909
2.849744690270005,1.2682494873850683,1141,-18,18.77557103825535,23.51308591157909
2.8624239515348346,1.268236807871542,1141,-18,18.77557103825535,23.51308591157909
2.8751030860368534,1.268224128484781,1141,-18,18.77557103825535,23.51308591157909
2.887782093777329,1.2682114492247842,1141,-18,18.77557103825535,23.51308591157909
2.90046097475753,1.26819877009155,1141,-18,18.77557103825535,23.51308591157909
2.9131397289787238,1.2681860910850775,1141,-18,18.77557103825535,23.51308591157909
2.9258183564421762,1.2681734122053652,1141,-18,18.77557103825535,23.51308591157909
2.9384968571491568,1.268160733452412,1141,-18,18.77557103825535,23.51308591157909
2.9511752311009314,1.2681480548262165,1141,-18,18.77557103825535,23.51308591157909
2.963853478298768,1.2681353763267773,1141,-18,18.77557103825535,23.51308591157909
2.976531598743935,1.2681226979540934,1141,-18,18.77557103825535,23.51308591157909
2.9892095924376996,1.2681100197081634,1141,-18,18.77557103825535,23.51308591157909
3.001887459381327,1.268097341588986,1141,-18,18.77557103825535,23.51308591157909
3.0145651995760874,1.2680846635965601,1141,-18,18.77557103825535,23.51308591157909
