Vout,Iout,Irradiance,Temperature,MaxVoltage,MaxPower
0.0036328150690858744,0.7265699999999999,621,10,20.81617334411923,14.691386281991061
0.010898378033068671,0.7265699999999999,621,10,20.81617334411923,14.691386281991061
0.018163793289978785,0.7265662945279309,621,10,20.81617334411923,14.691386281991061
0.025429034451996593,0.7265590289649668,621,10,20.81617334411923,14.691386281991061
0.03269409289512484,0.7265517635500806,621,10,20.81617334411923,14.691386281991061
0.03995897709087011,0.7265444983096451,621,10,20.81617334411923,14.691386281991061
0.047223694859225215,0.7265372332519284,621,10,20.81617334411923,14.691386281991061
0.054488253418636834,0.7265299683684593,621,10,20.81617334411923,14.691386281991061
0.06175265943220889,0.7265227036514174,621,10,20.81617334411923,14.691386281991061
0.06901691905043143,0.7265154390935845,621,10,20.81617334411923,14.691386281991061
0.07628103795062205,0.7265081746882973,621,10,20.81617334411923,14.691386281991061
0.08354502137333242,0.7265009104294056,621,10,20.81617334411923,14.691386281991061
0.09080887415595379,0.7264936463112318,621,10,20.81617334411923,14.691386281991061
0.09807260076373682,0.7264863823285356,621,10,20.81617334411923,14.691386281991061
0.1053362053184246,0.7264791184764794,621,10,20.81617334411923,14.691386281991061
0.11259969162468264,0.726471854750598,621,10,20.81617334411923,14.691386281991061
0.11986306319449547,0.7264645911467696,621,10,20.81617334411923,14.691386281991061
0.12712632326968573,0.7264573276611898,621,10,20.81617334411923,14.691386281991061
0.13438947484270103,0.7264500642903463,621,10,20.81617334411923,14.691386281991061
0.1416525206758013,0.7264428010309975,621,10,20.81617334411923,14.691386281991061
0.1489154633187696,0.7264355378801508,621,10,20.81617334411923,14.691386281991061
0.1561783051252605,0.726428274835044,621,10,20.81617334411923,14.691386281991061
0.16344104826789066,0.7264210118931274,621,10,20.81617334411923,14.691386281991061
0.17070369475216793,0.7264137490520471,621,10,20.81617334411923,14.691386281991061
0.1779662464293491,0.7264064863096309,621,10,20.81617334411923,14.691386281991061
0.18522870500830826,0.7263992236638729,621,10,20.81617334411923,14.691386281991061
0.1924910720664919,0.7263919611129219,621,10,20.81617334411923,14.691386281991061
0.19975334906003106,0.7263846986550693,621,10,20.81617334411923,14.691386281991061
0.2070155373330756,0.7263774362887373,621,10,20.81617334411923,14.691386281991061
0.21427763812641026,0.7263701740124701,621,10,20.81617334411923,14.691386281991061
0.22153965258540784,0.7263629118249232,621,10,20.81617334411923,14.691386281991061
0.22880158176736995,0.7263556497248561,621,10,20.81617334411923,14.691386281991061
0.23606342664830376,0.7263483877111233,621,10,20.81617334411923,14.691386281991061
0.2433251881291767,0.7263411257826676,621,10,20.81617334411923,14.691386281991061
0.2505868670416902,0.7263338639385128,621,10,20.81617334411923,14.691386281991061
0.25784846415360907,0.7263266021777581,621,10,20.81617334411923,14.691386281991061
0.2651099801736811,0.7263193404995718,621,10,20.81617334411923,14.691386281991061
0.2723714157561774,0.7263120789031862,621,10,20.81617334411923,14.691386281991061
0.27963277150508464,0.7263048173878922,621,10,20.81617334411923,14.691386281991061
0.2868940479779735,0.7262975559530359,621,10,20.81617334411923,14.691386281991061
0.29415524568957013,0.7262902945980131,621,10,20.81617334411923,14.691386281991061
0.3014163651150526,0.7262830333222664,621,10,20.81617334411923,14.691386281991061
0.30867740669309396,0.7262757721252809,621,10,20.81617334411923,14.691386281991061
0.315938370828671,0.7262685110065815,621,10,20.81617334411923,14.691386281991061
0.3231992578956565,0.7262612499657296,621,10,20.81617334411923,14.691386281991061
0.33046006823921303,0.7262539890023202,621,10,20.81617334411923,14.691386281991061
0.33772080217800143,0.7262467281159792,621,10,20.81617334411923,14.691386281991061
0.3449814600062202,0.7262394673063618,621,10,20.81617334411923,14.691386281991061
0.35224204199548764,0.7262322065731491,621,10,20.81617334411923,14.691386281991061
0.35950254839657886,0.726224945916047,621,10,20.81617334411923,14.691386281991061
0.3667629794410302,0.7262176853347838,621,10,20.81617334411923,14.691386281991061
0.3740233353426187,0.7262104248291088,621,10,20.81617334411923,14.691386281991061
0.38128361629872914,0.7262031643987904,621,10,20.81617334411923,14.691386281991061
0.3885438224916147,0.7261959040436148,621,10,20.81617334411923,14.691386281991061
0.39580395408956204,0.7261886437633848,621,10,20.81617334411923,14.691386281991061
0.403064011247965,0.726181383557918,621,10,20.81617334411923,14.691386281991061
0.41032399411031695,0.726174123427046,621,10,20.81617334411923,14.691386281991061
0.4175839028091269,0.7261668633706136,621,10,20.81617334411923,14.691386281991061
0.42484373746676385,0.7261596033884773,621,10,20.81617334411923,14.691386281991061
0.4321034981962376,0.7261523434805045,621,10,20.81617334411923,14.691386281991061
0.4393631851019186,0.7261450836465728,621,10,20.81617334411923,14.691386281991061
0.4466227982802024,0.7261378238865693,621,10,20.81617334411923,14.691386281991061
0.453882337820124,0.7261305642003897,621,10,20.81617334411923,14.691386281991061
0.46114180380392344,0.7261233045879374,621,10,20.81617334411923,14.691386281991061
0.4684011963075688,0.7261160450491234,621,10,20.81617334411923,14.691386281991061
0.4756605154012393,0.7261087855838656,621,10,20.81617334411923,14.691386281991061
0.4829197611497699,0.7261015261920879,621,10,20.81617334411923,14.691386281991061
0.49017893361306314,0.7260942668737201,621,10,20.81617334411923,14.691386281991061
0.49743803284646815,0.7260870076286976,621,10,20.81617334411923,14.691386281991061
0.5046970589011313,0.7260797484569602,621,10,20.81617334411923,14.691386281991061
0.5119560118243196,0.7260724893584527,621,10,20.81617334411923,14.691386281991061
0.5192148916597191,0.726065230333124,621,10,20.81617334411923,14.691386281991061
0.5264736984477102,0.7260579713809266,621,10,20.81617334411923,14.691386281991061
0.5337324322256224,0.7260507125018172,621,10,20.81617334411923,14.691386281991061
0.5409910930279686,0.7260434536957551,621,10,20.81617334411923,14.691386281991061
0.5482496808866623,0.7260361949627031,621,10,20.81617334411923,14.691386281991061
0.555508195831217,0.7260289363026265,621,10,20.81617334411923,14.691386281991061
0.5627666378889317,0.7260216777154938,621,10,20.81617334411923,14.691386281991061
0.5700250070850602,0.7260144192012751,621,10,20.81617334411923,14.691386281991061
0.5772833034429695,0.7260071607599432,621,10,20.81617334411923,14.691386281991061
0.5845415269842844,0.7259999023914729,621,10,20.81617334411923,14.691386281991061
0.5917996777290215,0.7259926440958409,621,10,20.81617334411923,14.691386281991061
0.5990577556957134,0.7259853858730254,621,10,20.81617334411923,14.691386281991061
0.6063157609015224,0.7259781277230065,621,10,20.81617334411923,14.691386281991061
0.613573693362346,0.7259708696457656,621,10,20.81617334411923,14.691386281991061
0.6208315530929148,0.7259636116412856,621,10,20.81617334411923,14.691386281991061
0.6280893401068811,0.7259563537095506,621,10,20.81617334411923,14.691386281991061
0.6353470544169031,0.7259490958505459,621,10,20.81617334411923,14.691386281991061
0.6426046960347207,0.7259418380642577,621,10,20.81617334411923,14.691386281991061
0.6498622649712266,0.7259345803506735,621,10,20.81617334411923,14.691386281991061
0.6571197612365306,0.7259273227097814,621,10,20.81617334411923,14.691386281991061
0.6643771848400211,0.7259200651415707,621,10,20.81617334411923,14.691386281991061
0.6716345357904194,0.7259128076460312,621,10,20.81617334411923,14.691386281991061
0.6788918140958323,0.7259055502231534,621,10,20.81617334411923,14.691386281991061
0.6861490197637977,0.7258982928729287,621,10,20.81617334411923,14.691386281991061
0.6934061528013299,0.7258910355953491,621,10,20.81617334411923,14.691386281991061
0.7006632132149593,0.7258837783904069,621,10,20.81617334411923,14.691386281991061
0.7079202010107697,0.7258765212580951,621,10,20.81617334411923,14.691386281991061
0.7151771161944322,0.7258692641984071,621,10,20.81617334411923,14.691386281991061
0.7224339587712378,0.7258620072113371,621,10,20.81617334411923,14.691386281991061
0.7296907287461262,0.7258547502968791,621,10,20.81617334411923,14.691386281991061
0.7369474261237127,0.725847493455028,621,10,20.81617334411923,14.691386281991061
0.744204050908313,0.7258402366857788,621,10,20.81617334411923,14.691386281991061
0.7514606031039671,0.7258329799891269,621,10,20.81617334411923,14.691386281991061
0.7587170827144594,0.725825723365068,621,10,20.81617334411923,14.691386281991061
0.7659734897433393,0.725818466813598,621,10,20.81617334411923,14.691386281991061
0.7732298241939392,0.7258112103347132,621,10,20.81617334411923,14.691386281991061
0.7804860860693899,0.7258039539284099,621,10,20.81617334411923,14.691386281991061
0.7877422753726377,0.725796697594685,621,10,20.81617334411923,14.691386281991061
0.7949983921064585,0.7257894413335352,621,10,20.81617334411923,14.691386281991061
0.8022544362734697,0.7257821851449575,621,10,20.81617334411923,14.691386281991061
0.8095104078761435,0.7257749290289494,621,10,20.81617334411923,14.691386281991061
0.8167663069168172,0.7257676729855079,621,10,20.81617334411923,14.691386281991061
0.8240221333977046,0.7257604170146309,621,10,20.81617334411923,14.691386281991061
0.8312778873209048,0.7257531611163158,621,10,20.81617334411923,14.691386281991061
0.838533568688411,0.7257459052905605,621,10,20.81617334411923,14.691386281991061
0.8457891775021191,0.7257386495373629,621,10,20.81617334411923,14.691386281991061
0.8530447137638346,0.725731393856721,621,10,20.81617334411923,14.691386281991061
0.8603001774752802,0.7257241382486329,621,10,20.81617334411923,14.691386281991061
0.8675555686381016,0.7257168827130968,621,10,20.81617334411923,14.691386281991061
0.8748108872538739,0.7257096272501108,621,10,20.81617334411923,14.691386281991061
0.8820661333241064,0.7257023718596736,621,10,20.81617334411923,14.691386281991061
0.8893213068502488,0.7256951165417833,621,10,20.81617334411923,14.691386281991061
0.8965764078336944,0.7256878612964387,621,10,20.81617334411923,14.691386281991061
0.9038314362757851,0.725680606123638,621,10,20.81617334411923,14.691386281991061
0.9110863921778157,0.7256733510233802,621,10,20.81617334411923,14.691386281991061
0.918341275541037,0.7256660959956636,621,10,20.81617334411923,14.691386281991061
0.9255960863666591,0.7256588410404871,621,10,20.81617334411923,14.691386281991061
0.9328508246558552,0.7256515861578493,621,10,20.81617334411923,14.691386281991061
0.9401054904097639,0.7256443313477492,621,10,20.81617334411923,14.691386281991061
0.9473600836294919,0.7256370766101855,621,10,20.81617334411923,14.691386281991061
0.9546146043161161,0.725629821945157,621,10,20.81617334411923,14.691386281991061
0.9618690524706872,0.7256225673526628,621,10,20.81617334411923,14.691386281991061
0.9691234280942302,0.7256153128327016,621,10,20.81617334411923,14.691386281991061
0.9763777311877475,0.7256080583852725,621,10,20.81617334411923,14.691386281991061
0.9836319617522197,0.7256008040103744,621,10,20.81617334411923,14.691386281991061
0.990886119788608,0.7255935497080064,621,10,20.81617334411923,14.691386281991061
0.9981402052978552,0.7255862954781673,621,10,20.81617334411923,14.691386281991061
1.0053942182808875,0.7255790413208564,621,10,20.81617334411923,14.691386281991061
1.0126481587386158,0.7255717872360725,621,10,20.81617334411923,14.691386281991061
1.0199020266719365,0.7255645332238149,621,10,20.81617334411923,14.691386281991061
1.0271558220817327,0.7255572792840826,621,10,20.81617334411923,14.691386281991061
1.0344095449688757,0.7255500254168746,621,10,20.81617334411923,14.691386281991061
1.0416631953342244,0.7255427716221903,621,10,20.81617334411923,14.691386281991061
1.0489167731786293,0.7255355179000286,621,10,20.81617334411923,14.691386281991061
1.0561702785029297,0.7255282642503885,621,10,20.81617334411923,14.691386281991061
1.0634237113079568,0.7255210106732696,621,10,20.81617334411923,14.691386281991061
1.0706770715945335,0.7255137571686706,621,10,20.81617334411923,14.691386281991061
1.0779303593634744,0.7255065037365909,621,10,20.81617334411923,14.691386281991061
1.085183574615589,0.7254992503770297,621,10,20.81617334411923,14.691386281991061
1.0924367173516785,0.7254919970899861,621,10,20.81617334411923,14.691386281991061
1.099689787572539,0.7254847438754594,621,10,20.81617334411923,14.691386281991061
1.106942785278961,0.7254774907334486,621,10,20.81617334411923,14.691386281991061
1.1141957104717304,0.725470237663953,621,10,20.81617334411923,14.691386281991061
1.1214485631516278,0.7254629846669719,621,10,20.81617334411923,14.691386281991061
1.1287013433194295,0.7254557317425044,621,10,20.81617334411923,14.691386281991061
1.135954050975908,0.7254484788905499,621,10,20.81617334411923,14.691386281991061
1.143206686121832,0.7254412261111073,621,10,20.81617334411923,14.691386281991061
1.1504592487579677,0.7254339734041761,621,10,20.81617334411923,14.691386281991061
1.157711738885077,0.7254267207697555,621,10,20.81617334411923,14.691386281991061
1.1649641565039197,0.7254194682078446,621,10,20.81617334411923,14.691386281991061
1.1722165016152517,0.7254122157184428,621,10,20.81617334411923,14.691386281991061
1.1794687742198284,0.7254049633015492,621,10,20.81617334411923,14.691386281991061
1.1867209743184015,0.7253977109571631,621,10,20.81617334411923,14.691386281991061
1.1939731019117208,0.7253904586852837,621,10,20.81617334411923,14.691386281991061
1.2012251570005343,0.7253832064859105,621,10,20.81617334411923,14.691386281991061
1.2084771395855884,0.7253759543590423,621,10,20.81617334411923,14.691386281991061
1.215729049667628,0.7253687023046788,621,10,20.81617334411923,14.691386281991061
1.2229808872473955,0.725361450322819,621,10,20.81617334411923,14.691386281991061
1.2302326523256328,0.725354198413462,621,10,20.81617334411923,14.691386281991061
1.2374843449030806,0.7253469465766075,621,10,20.81617334411923,14.691386281991061
1.2447359649804777,0.7253396948122545,621,10,20.81617334411923,14.691386281991061
1.251987512558562,0.7253324431204022,621,10,20.81617334411923,14.691386281991061
1.2592389876380712,0.72532519150105,621,10,20.81617334411923,14.691386281991061
1.2664903902197409,0.725317939954197,621,10,20.81617334411923,14.691386281991061
1.2737417203043062,0.7253106884798427,621,10,20.81617334411923,14.691386281991061
1.2809929778925018,0.7253034370779862,621,10,20.81617334411923,14.691386281991061
1.2882441629850612,0.7252961857486268,621,10,20.81617334411923,14.691386281991061
1.2954952755827172,0.7252889344917637,621,10,20.81617334411923,14.691386281991061
1.3027463156862022,0.7252816833073963,621,10,20.81617334411923,14.691386281991061
1.309997283296248,0.7252744321955238,621,10,20.81617334411923,14.691386281991061
1.3172481784135863,0.7252671811561454,621,10,20.81617334411923,14.691386281991061
1.3244990010389468,0.7252599301892605,621,10,20.81617334411923,14.691386281991061
1.3317497511730603,0.7252526792948683,621,10,20.81617334411923,14.691386281991061
1.3390004288166568,0.725245428472968,621,10,20.81617334411923,14.691386281991061
1.3462510339704654,0.7252381777235589,621,10,20.81617334411923,14.691386281991061
1.3535015666352153,0.7252309270466404,621,10,20.81617334411923,14.691386281991061
1.3607520268116349,0.7252236764422118,621,10,20.81617334411923,14.691386281991061
1.3680024145004528,0.725216425910272,621,10,20.81617334411923,14.691386281991061
1.375252729702397,0.7252091754508206,621,10,20.81617334411923,14.691386281991061
1.3825029724181959,0.725201925063857,621,10,20.81617334411923,14.691386281991061
1.3897531426485759,0.72519467474938,621,10,20.81617334411923,14.691386281991061
1.3970032403942656,0.7251874245073893,621,10,20.81617334411923,14.691386281991061
1.404253265655991,0.7251801743378838,621,10,20.81617334411923,14.691386281991061
1.4115032184344798,0.7251729242408632,621,10,20.81617334411923,14.691386281991061
1.4187530987304586,0.7251656742163265,621,10,20.81617334411923,14.691386281991061
1.4260029065446538,0.725158424264273,621,10,20.81617334411923,14.691386281991061
1.4332526418777922,0.7251511743847021,621,10,20.81617334411923,14.691386281991061
1.4405023047306,0.7251439245776129,621,10,20.81617334411923,14.691386281991061
1.447751895103803,0.7251366748430047,621,10,20.81617334411923,14.691386281991061
1.4550014129981275,0.7251294251808769,621,10,20.81617334411923,14.691386281991061
1.4622508584142995,0.7251221755912286,621,10,20.81617334411923,14.691386281991061
1.4695002313530443,0.7251149260740593,621,10,20.81617334411923,14.691386281991061
1.4767495318150883,0.725107676629368,621,10,20.81617334411923,14.691386281991061
1.4839987598011564,0.7251004272571543,621,10,20.81617334411923,14.691386281991061
1.491247915311975,0.7250931779574172,621,10,20.81617334411923,14.691386281991061
1.498496998348269,0.7250859287301561,621,10,20.81617334411923,14.691386281991061
1.5057460089107633,0.7250786795753702,621,10,20.81617334411923,14.691386281991061
1.5129949470001842,0.7250714304930588,621,10,20.81617334411923,14.691386281991061
1.5202438126172562,0.7250641814832213,621,10,20.81617334411923,14.691386281991061
1.527492605762705,0.7250569325458567,621,10,20.81617334411923,14.691386281991061
1.5347413264372554,0.7250496836809646,621,10,20.81617334411923,14.691386281991061
1.5419899746416328,0.725042434888544,621,10,20.81617334411923,14.691386281991061
1.549238550376562,0.7250351861685943,621,10,20.81617334411923,14.691386281991061
1.5564870536427677,0.7250279375211148,621,10,20.81617334411923,14.691386281991061
1.5637354844409752,0.7250206889461047,621,10,20.81617334411923,14.691386281991061
1.5709838427719094,0.7250134404435634,621,10,20.81617334411923,14.691386281991061
1.5782321286362957,0.72500619201349,621,10,20.81617334411923,14.691386281991061
1.5854803420348582,0.724998943655884,621,10,20.81617334411923,14.691386281991061
1.5927284829683215,0.7249916953707445,621,10,20.81617334411923,14.691386281991061
1.599976551437411,0.7249844471580708,621,10,20.81617334411923,14.691386281991061
1.6072245474428508,0.7249771990178621,621,10,20.81617334411923,14.691386281991061
1.6144724709853662,0.7249699509501178,621,10,20.81617334411923,14.691386281991061
1.6217203220656815,0.7249627029548372,621,10,20.81617334411923,14.691386281991061
1.6289681006845211,0.7249554550320195,621,10,20.81617334411923,14.691386281991061
1.63621580684261,0.724948207181664,621,10,20.81617334411923,14.691386281991061
1.6434634405406736,0.7249409594037699,621,10,20.81617334411923,14.691386281991061
1.6507110017794353,0.7249337116983366,621,10,20.81617334411923,14.691386281991061
1.6579584905596205,0.7249264640653633,621,10,20.81617334411923,14.691386281991061
1.6652059068819527,0.7249192165048494,621,10,20.81617334411923,14.691386281991061
1.6724532507471572,0.7249119690167939,621,10,20.81617334411923,14.691386281991061
1.6797005221559584,0.7249047216011963,621,10,20.81617334411923,14.691386281991061
1.686947721109081,0.7248974742580558,621,10,20.81617334411923,14.691386281991061
1.6941948476072488,0.7248902269873718,621,10,20.81617334411923,14.691386281991061
1.7014419016511872,0.7248829797891434,621,10,20.81617334411923,14.691386281991061
1.70868888324162,0.72487573266337,621,10,20.81617334411923,14.691386281991061
1.7159357923792722,0.7248684856100508,621,10,20.81617334411923,14.691386281991061
1.7231826290648677,0.7248612386291851,621,10,20.81617334411923,14.691386281991061
1.7304293932991308,0.7248539917207721,621,10,20.81617334411923,14.691386281991061
1.7376760850827864,0.7248467448848112,621,10,20.81617334411923,14.691386281991061
