Vout,Iout,Irradiance,Temperature,MaxVoltage,MaxPower
0.0065150473553138915,1.303022,1141,-4,19.799265861366052,25.407373557300936
0.019545021596549826,1.303022,1141,-4,19.799265861366052,25.407373557300936
0.032574730941677656,1.3030153546504446,1141,-4,19.799265861366052,25.407373557300936
0.04560412806709539,1.3030023246762032,1141,-4,19.799265861366052,25.407373557300936
0.0586331975066289,1.3029892949675228,1141,-4,19.799265861366052,25.407373557300936
0.07166195445297734,1.3029762655717003,1141,-4,19.799265861366052,25.407373557300936
0.08469041293042288,1.3029632365035637,1141,-4,19.799265861366052,25.407373557300936
0.09771858588444197,1.3029502077479205,1141,-4,19.799265861366052,25.407373557300936
0.11074648526456592,1.3029371792907458,1141,-4,19.799265861366052,25.407373557300936
0.12377412210101056,1.3029241511190948,1141,-4,19.799265861366052,25.407373557300936
0.1368015065754097,1.3029111232210173,1141,-4,19.799265861366052,25.407373557300936
0.1498286480861064,1.3028980955854839,1141,-4,19.799265861366052,25.407373557300936
0.16285555530842066,1.302885068202312,1141,-4,19.799265861366052,25.407373557300936
0.17588223625027993,1.3028720410621042,1141,-4,19.799265861366052,25.407373557300936
0.18890869830356918,1.3028590141561847,1141,-4,19.799265861366052,25.407373557300936
0.2019349482915304,1.3028459874765455,1141,-4,19.799265861366052,25.407373557300936
0.21496099251251474,1.302832961015795,1141,-4,19.799265861366052,25.407373557300936
0.22798683678036857,1.3028199347671097,1141,-4,19.799265861366052,25.407373557300936
0.24101248646171186,1.3028069087241914,1141,-4,19.799265861366052,25.407373557300936
0.2540379465103486,1.302793882881226,1141,-4,19.799265861366052,25.407373557300936
0.26706322149902934,1.3027808572328474,1141,-4,19.799265861366052,25.407373557300936
0.2800883156487705,1.3027678317741012,1141,-4,19.799265861366052,25.407373557300936
0.2931132328559167,1.302754806500415,1141,-4,19.799265861366052,25.407373557300936
0.30613797671712195,1.302741781407568,1141,-4,19.799265861366052,25.407373557300936
0.3191625505524084,1.3027287564916634,1141,-4,19.799265861366052,25.407373557300936
0.3321869574264501,1.3027157317491047,1141,-4,19.799265861366052,25.407373557300936
0.34521120016822104,1.3027027071765718,1141,-4,19.799265861366052,25.407373557300936
0.3582352813891294,1.3026896827710002,1141,-4,19.799265861366052,25.407373557300936
0.3712592034997576,1.302676658529561,1141,-4,19.799265861366052,25.407373557300936
0.38428296872531414,1.3026636344496425,1141,-4,19.799265861366052,25.407373557300936
0.3973065791198968,1.3026506105288342,1141,-4,19.799265861366052,25.407373557300936
0.4103300365796579,1.3026375867649111,1141,-4,19.799265861366052,25.407373557300936
0.42335334285495707,1.3026245631558189,1141,-4,19.799265861366052,25.407373557300936
0.4363764995615786,1.3026115396996616,1141,-4,19.799265861366052,25.407373557300936
0.449399508191086,1.3025985163946887,1141,-4,19.799265861366052,25.407373557300936
0.4624223701203795,1.3025854932392844,1141,-4,19.799265861366052,25.407373557300936
0.47544508662051876,1.3025724702319572,1141,-4,19.799265861366052,25.407373557300936
0.4884676588648663,1.3025594473713302,1141,-4,19.799265861366052,25.407373557300936
0.5014900879366043,1.3025464246561325,1141,-4,19.799265861366052,25.407373557300936
0.5145123748356732,1.3025334020851902,1141,-4,19.799265861366052,25.407373557300936
0.5275345204851772,1.3025203796574207,1141,-4,19.799265861366052,25.407373557300936
0.5405565257372947,1.302507357371824,1141,-4,19.799265861366052,25.407373557300936
0.5535783913787368,1.3024943352274767,1141,-4,19.799265861366052,25.407373557300936
0.566600118135784,1.302481313223527,1141,-4,19.799265861366052,25.407373557300936
0.5796217066789354,1.3024682913591876,1141,-4,19.799265861366052,25.407373557300936
0.5926431576272017,1.3024552696337328,1141,-4,19.799265861366052,25.407373557300936
0.6056644715520648,1.302442248046492,1141,-4,19.799265861366052,25.407373557300936
0.6186856489811374,1.3024292265968458,1141,-4,19.799265861366052,25.407373557300936
0.6317066904015363,1.302416205284223,1141,-4,19.799265861366052,25.407373557300936
0.6447275962629987,1.302403184108096,1141,-4,19.799265861366052,25.407373557300936
0.6577483669807589,1.302390163067978,1141,-4,19.799265861366052,25.407373557300936
0.6707690029382024,1.3023771421634185,1141,-4,19.799265861366052,25.407373557300936
0.6837895044893162,1.302364121394003,1141,-4,19.799265861366052,25.407373557300936
0.6968098719609518,1.3023511007593476,1141,-4,19.799265861366052,25.407373557300936
0.7098301056549116,1.3023380802590985,1141,-4,19.799265861366052,25.407373557300936
0.7228502058498776,1.3023250598929288,1141,-4,19.799265861366052,25.407373557300936
0.7358701728031892,1.302312039660537,1141,-4,19.799265861366052,25.407373557300936
0.7488900067524862,1.302299019561644,1141,-4,19.799265861366052,25.407373557300936
0.7619097079172241,1.3022859995959928,1141,-4,19.799265861366052,25.407373557300936
0.7749292765000727,1.3022729797633454,1141,-4,19.799265861366052,25.407373557300936
0.787948712688209,1.3022599600634828,1141,-4,19.799265861366052,25.407373557300936
0.8009680166545078,1.3022469404962018,1141,-4,19.799265861366052,25.407373557300936
0.8139871885586433,1.3022339210613156,1141,-4,19.799265861366052,25.407373557300936
0.8270062285481036,1.3022209017586512,1141,-4,19.799265861366052,25.407373557300936
0.8400251367591296,1.3022078825880492,1141,-4,19.799265861366052,25.407373557300936
0.8530439133175793,1.3021948635493616,1141,-4,19.799265861366052,25.407373557300936
0.8660625583397271,1.3021818446424525,1141,-4,19.799265861366052,25.407373557300936
0.8790810719330012,1.302168825867196,1141,-4,19.799265861366052,25.407373557300936
0.8920994541966646,1.3021558072234758,1141,-4,19.799265861366052,25.407373557300936
0.9051177052224423,1.3021427887111843,1141,-4,19.799265861366052,25.407373557300936
0.9181358250951025,1.3021297703302226,1141,-4,19.799265861366052,25.407373557300936
0.9311538138929911,1.3021167520804986,1141,-4,19.799265861366052,25.407373557300936
0.9441716716885259,1.3021037339619277,1141,-4,19.799265861366052,25.407373557300936
0.9571893985486533,1.3020907159744317,1141,-4,19.799265861366052,25.407373557300936
0.9702069945352682,1.302077698117938,1141,-4,19.799265861366052,25.407373557300936
0.9832244597056037,1.3020646803923797,1141,-4,19.799265861366052,25.407373557300936
0.9962417941125897,1.3020516627976948,1141,-4,19.799265861366052,25.407373557300936
1.009258997805183,1.3020386453338262,1141,-4,19.799265861366052,25.407373557300936
1.0222760708286738,1.302025628000721,1141,-4,19.799265861366052,25.407373557300936
1.0352930132249683,1.30201261079833,1141,-4,19.799265861366052,25.407373557300936
1.0483098250328484,1.3019995937266085,1141,-4,19.799265861366052,25.407373557300936
1.0613265062882111,1.3019865767855139,1141,-4,19.799265861366052,25.407373557300936
1.0743430570242927,1.3019735599750077,1141,-4,19.799265861366052,25.407373557300936
1.087359477271872,1.301960543295054,1141,-4,19.799265861366052,25.407373557300936
1.1003757670594592,1.3019475267456195,1141,-4,19.799265861366052,25.407373557300936
1.1133919264134717,1.3019345103266737,1141,-4,19.799265861366052,25.407373557300936
1.1264079553583943,1.3019214940381878,1141,-4,19.799265861366052,25.407373557300936
1.1394238539169277,1.3019084778801353,1141,-4,19.799265861366052,25.407373557300936
1.152439622110126,1.301895461852492,1141,-4,19.799265861366052,25.407373557300936
1.1654552599575236,1.3018824459552352,1141,-4,19.799265861366052,25.407373557300936
1.1784707674772519,1.3018694301883436,1141,-4,19.799265861366052,25.407373557300936
1.1914861446861476,1.3018564145517977,1141,-4,19.799265861366052,25.407373557300936
1.2045013915998517,1.3018433990455796,1141,-4,19.799265861366052,25.407373557300936
1.217516508232902,1.3018303836696723,1141,-4,19.799265861366052,25.407373557300936
1.230531494598818,1.3018173684240602,1141,-4,19.799265861366052,25.407373557300936
1.2435463507101787,1.3018043533087287,1141,-4,19.799265861366052,25.407373557300936
1.2565610765786954,1.3017913383236643,1141,-4,19.799265861366052,25.407373557300936
1.2695756722152791,1.3017783234688545,1141,-4,19.799265861366052,25.407373557300936
1.2825901376300999,1.3017653087442873,1141,-4,19.799265861366052,25.407373557300936
1.295604472832647,1.3017522941499522,1141,-4,19.799265861366052,25.407373557300936
1.3086186778317785,1.301739279685839,1141,-4,19.799265861366052,25.407373557300936
1.3216327526357718,1.301726265351938,1141,-4,19.799265861366052,25.407373557300936
1.3346466972523672,1.30171325114824,1141,-4,19.799265861366052,25.407373557300936
1.3476605116888087,1.3017002370747377,1141,-4,19.799265861366052,25.407373557300936
1.3606741959518844,1.3016872231314225,1141,-4,19.799265861366052,25.407373557300936
1.3736877500479594,1.3016742093182874,1141,-4,19.799265861366052,25.407373557300936
1.3867011739830093,1.3016611956353257,1141,-4,19.799265861366052,25.407373557300936
1.3997144677626498,1.301648182082531,1141,-4,19.799265861366052,25.407373557300936
1.4127276313921653,1.3016351686598973,1141,-4,19.799265861366052,25.407373557300936
1.4257406648765325,1.301622155367419,1141,-4,19.799265861366052,25.407373557300936
1.438753568220446,1.3016091422050908,1141,-4,19.799265861366052,25.407373557300936
1.451766341428339,1.301596129172908,1141,-4,19.799265861366052,25.407373557300936
1.4647789845044048,1.3015831162708653,1141,-4,19.799265861366052,25.407373557300936
1.4777914974526118,1.3015701034989586,1141,-4,19.799265861366052,25.407373557300936
1.4908038802767254,1.3015570908571839,1141,-4,19.799265861366052,25.407373557300936
1.50381613298032,1.301544078345537,1141,-4,19.799265861366052,25.407373557300936
1.5168282555667953,1.301531065964014,1141,-4,19.799265861366052,25.407373557300936
1.5298402480393904,1.3015180537126116,1141,-4,19.799265861366052,25.407373557300936
1.542852110401193,1.3015050415913265,1141,-4,19.799265861366052,25.407373557300936
1.5558638426551559,1.301492029600155,1141,-4,19.799265861366052,25.407373557300936
1.568875444804104,1.3014790177390945,1141,-4,19.799265861366052,25.407373557300936
1.5818869168507435,1.3014660060081418,1141,-4,19.799265861366052,25.407373557300936
1.5948982587976734,1.3014529944072941,1141,-4,19.799265861366052,25.407373557300936
1.6079094706473935,1.3014399829365486,1141,-4,19.799265861366052,25.407373557300936
1.6209205524023105,1.3014269715959028,1141,-4,19.799265861366052,25.407373557300936
1.6339315040647462,1.3014139603853543,1141,-4,19.799265861366052,25.407373557300936
1.646942325636943,1.3014009493049004,1141,-4,19.799265861366052,25.407373557300936
1.6599530171210726,1.301387938354539,1141,-4,19.799265861366052,25.407373557300936
1.6729635785192376,1.301374927534268,1141,-4,19.799265861366052,25.407373557300936
1.6859740098334803,1.301361916844085,1141,-4,19.799265861366052,25.407373557300936
1.6989843110657854,1.3013489062839878,1141,-4,19.799265861366052,25.407373557300936
1.7119944822180855,1.3013358958539747,1141,-4,19.799265861366052,25.407373557300936
1.725004523292264,1.3013228855540435,1141,-4,19.799265861366052,25.407373557300936
1.7380144342901587,1.3013098753841923,1141,-4,19.799265861366052,25.407373557300936
1.7510242152135673,1.301296865344419,1141,-4,19.799265861366052,25.407373557300936
1.7640338660642487,1.3012838554347221,1141,-4,19.799265861366052,25.407373557300936
1.7770433868439273,1.3012708456550999,1141,-4,19.799265861366052,25.407373557300936
1.790052777554293,1.30125783600555,1141,-4,19.799265861366052,25.407373557300936
1.8030620381970073,1.3012448264860714,1141,-4,19.799265861366052,25.407373557300936
1.8160711687737034,1.301231817096662,1141,-4,19.799265861366052,25.407373557300936
1.8290801692859888,1.3012188078373204,1141,-4,19.799265861366052,25.407373557300936
1.842089039735448,1.3012057987080445,1141,-4,19.799265861366052,25.407373557300936
1.8550977801236426,1.3011927897088331,1141,-4,19.799265861366052,25.407373557300936
1.8681063904521145,1.3011797808396846,1141,-4,19.799265861366052,25.407373557300936
1.8811148707223875,1.3011667721005973,1141,-4,19.799265861366052,25.407373557300936
1.894123220935967,1.3011537634915697,1141,-4,19.799265861366052,25.407373557300936
1.907131441094344,1.3011407550126004,1141,-4,19.799265861366052,25.407373557300936
1.920139531198994,1.3011277466636877,1141,-4,19.799265861366052,25.407373557300936
1.933147491251379,1.30111473844483,1141,-4,19.799265861366052,25.407373557300936
1.946155321252949,1.3011017303560262,1141,-4,19.799265861366052,25.407373557300936
1.9591630212051416,1.3010887223972747,1141,-4,19.799265861366052,25.407373557300936
1.9721705911093848,1.3010757145685738,1141,-4,19.799265861366052,25.407373557300936
1.985178030967097,1.3010627068699225,1141,-4,19.799265861366052,25.407373557300936
1.9981853407796855,1.301049699301319,1141,-4,19.799265861366052,25.407373557300936
2.0111925205485517,1.301036691862762,1141,-4,19.799265861366052,25.407373557300936
2.0241995702750875,1.3010236845542502,1141,-4,19.799265861366052,25.407373557300936
2.037206489960679,1.3010106773757821,1141,-4,19.799265861366052,25.407373557300936
2.0502132796067043,1.3009976703273565,1141,-4,19.799265861366052,25.407373557300936
2.0632199392145365,1.3009846634089715,1141,-4,19.799265861366052,25.407373557300936
2.0762264687855434,1.3009716566206262,1141,-4,19.799265861366052,25.407373557300936
2.0892328683210866,1.3009586499623191,1141,-4,19.799265861366052,25.407373557300936
2.1022391378225223,1.3009456434340487,1141,-4,19.799265861366052,25.407373557300936
2.1152452772912045,1.3009326370358139,1141,-4,19.799265861366052,25.407373557300936
2.1282512867284815,1.300919630767613,1141,-4,19.799265861366052,25.407373557300936
2.1412571661356994,1.300906624629445,1141,-4,19.799265861366052,25.407373557300936
2.154262915514198,1.3008936186213083,1141,-4,19.799265861366052,25.407373557300936
2.167268534865317,1.3008806127432018,1141,-4,19.799265861366052,25.407373557300936
2.180274024190391,1.300867606995124,1141,-4,19.799265861366052,25.407373557300936
2.1932793834907525,1.3008546013770732,1141,-4,19.799265861366052,25.407373557300936
2.2062846127677322,1.300841595889049,1141,-4,19.799265861366052,25.407373557300936
2.219289712022657,1.300828590531049,1141,-4,19.799265861366052,25.407373557300936
2.2322946812568536,1.3008155853030725,1141,-4,19.799265861366052,25.407373557300936
2.245299520471645,1.3008025802051182,1141,-4,19.799265861366052,25.407373557300936
2.2583042296683535,1.3007895752371845,1141,-4,19.799265861366052,25.407373557300936
2.2713088088482976,1.3007765703992702,1141,-4,19.799265861366052,25.407373557300936
2.284313258012797,1.300763565691374,1141,-4,19.799265861366052,25.407373557300936
2.2973175771631693,1.3007505611134946,1141,-4,19.799265861366052,25.407373557300936
2.3103217663007287,1.3007375566656305,1141,-4,19.799265861366052,25.407373557300936
2.3233258254267914,1.3007245523477806,1141,-4,19.799265861366052,25.407373557300936
2.3363297545426693,1.3007115481599436,1141,-4,19.799265861366052,25.407373557300936
2.349333553649676,1.300698544102118,1141,-4,19.799265861366052,25.407373557300936
2.362337222749121,1.3006855401743025,1141,-4,19.799265861366052,25.407373557300936
2.375340761842317,1.3006725363764957,1141,-4,19.799265861366052,25.407373557300936
2.388344170930571,1.3006595327086967,1141,-4,19.799265861366052,25.407373557300936
2.4013474500151943,1.300646529170904,1141,-4,19.799265861366052,25.407373557300936
2.4143505990974927,1.300633525763116,1141,-4,19.799265861366052,25.407373557300936
2.427353618178775,1.3006205224853318,1141,-4,19.799265861366052,25.407373557300936
2.4403565072603484,1.30060751933755,1141,-4,19.799265861366052,25.407373557300936
2.4533592663435186,1.300594516319769,1141,-4,19.799265861366052,25.407373557300936
2.4663618954295914,1.3005815134319876,1141,-4,19.799265861366052,25.407373557300936
2.479364394519872,1.3005685106742046,1141,-4,19.799265861366052,25.407373557300936
2.492366763615666,1.300555508046419,1141,-4,19.799265861366052,25.407373557300936
2.5053690027182762,1.300542505548629,1141,-4,19.799265861366052,25.407373557300936
2.5183711118290075,1.3005295031808335,1141,-4,19.799265861366052,25.407373557300936
2.5313730909491645,1.300516500943031,1141,-4,19.799265861366052,25.407373557300936
2.544374940080049,1.3005034988352207,1141,-4,19.799265861366052,25.407373557300936
2.5573766592229648,1.3004904968574007,1141,-4,19.799265861366052,25.407373557300936
2.5703782483792144,1.3004774950095699,1141,-4,19.799265861366052,25.407373557300936
2.5833797075501006,1.3004644932917273,1141,-4,19.799265861366052,25.407373557300936
2.5963810367369264,1.3004514917038712,1141,-4,19.799265861366052,25.407373557300936
2.6093822359409926,1.3004384902460004,1141,-4,19.799265861366052,25.407373557300936
2.6223833051636016,1.3004254889181137,1141,-4,19.799265861366052,25.407373557300936
2.635384244406055,1.30041248772021,1141,-4,19.799265861366052,25.407373557300936
2.6483850536696543,1.3003994866522874,1141,-4,19.799265861366052,25.407373557300936
2.6613857329557007,1.300386485714345,1141,-4,19.799265861366052,25.407373557300936
2.6743862822654956,1.3003734849063815,1141,-4,19.799265861366052,25.407373557300936
2.6873867016003397,1.3003604842283956,1141,-4,19.799265861366052,25.407373557300936
2.700386990961534,1.3003474836803859,1141,-4,19.799265861366052,25.407373557300936
2.7133871503503793,1.3003344832623511,1141,-4,19.799265861366052,25.407373557300936
2.7263871797681762,1.30032148297429,1141,-4,19.799265861366052,25.407373557300936
2.7393870792162254,1.3003084828162013,1141,-4,19.799265861366052,25.407373557300936
2.752386848695827,1.3002954827880835,1141,-4,19.799265861366052,25.407373557300936
2.765386488208282,1.3002824828899353,1141,-4,19.799265861366052,25.407373557300936
2.77838599775489,1.3002694831217558,1141,-4,19.799265861366052,25.407373557300936
2.7913853773369515,1.3002564834835433,1141,-4,19.799265861366052,25.407373557300936
2.8043846269557653,1.3002434839752968,1141,-4,19.799265861366052,25.407373557300936
2.8173837466126344,1.3002304845970145,1141,-4,19.799265861366052,25.407373557300936
2.8303827363088563,1.3002174853486956,1141,-4,19.799265861366052,25.407373557300936
2.843381596045731,1.3002044862303388,1141,-4,19.799265861366052,25.407373557300936
2.85638032582456,1.3001914872419424,1141,-4,19.799265861366052,25.407373557300936
2.8693789256466404,1.3001784883835055,1141,-4,19.799265861366052,25.407373557300936
2.882377395513275,1.3001654896550265,1141,-4,19.799265861366052,25.407373557300936
2.8953757354257617,1.3001524910565043,1141,-4,19.799265861366052,25.407373557300936
2.9083739453854007,1.3001394925879377,1141,-4,19.799265861366052,25.407373557300936
2.9213720253934903,1.3001264942493251,1141,-4,19.799265861366052,25.407373557300936
2.9343699754513315,1.3001134960406653,1141,-4,19.799265861366052,25.407373557300936
2.947367795560223,1.300100497961957,1141,-4,19.799265861366052,25.407373557300936
2.9603654857214656,1.300087500013199,1141,-4,19.799265861366052,25.407373557300936
2.973363045936358,1.3000745021943898,1141,-4,19.799265861366052,25.407373557300936
2.9863604762061984,1.3000615045055284,1141,-4,19.799265861366052,25.407373557300936
2.999357776532287,1.3000485069466132,1141,-4,19.799265861366052,25.407373557300936
3.0123549469159245,1.3000355095176432,1141,-4,19.799265861366052,25.407373557300936
3.0253519873584076,1.3000225122186169,1141,-4,19.799265861366052,25.407373557300936
3.0383488978610385,1.300009515049533,1141,-4,19.799265861366052,25.407373557300936
3.0513456784251143,1.2999965180103903,1141,-4,19.799265861366052,25.407373557300936
3.0643423290519354,1.2999835211011874,1141,-4,19.799265861366052,25.407373557300936
