Vout,Iout,Irradiance,Temperature,MaxVoltage,MaxPower
0.0034154671589696254,0.6830999999999999,621,-25,18.249327791187913,12.13331924412544
0.010246338321688494,0.6830999999999999,621,-25,18.249327791187913,12.13331924412544
0.017077070614509967,0.683096516222841,621,-25,18.249327791187913,12.13331924412544
0.02390763922837286,0.6830896853516782,621,-25,18.249327791187913,12.13331924412544
0.030738036055245572,0.6830828546197338,621,-25,18.249327791187913,12.13331924412544
0.0375682690597924,0.683076024051803,621,-25,18.249327791187913,12.13331924412544
0.044398345594143365,0.6830691936556592,621,-25,18.249327791187913,12.13331924412544
0.05122827244487224,0.6830623634233377,621,-25,18.249327791187913,12.13331924412544
0.058058055876435706,0.6830555333474864,621,-25,18.249327791187913,12.13331924412544
0.0648877016713458,0.6830487034213187,621,-25,18.249327791187913,12.13331924412544
0.07171721516725149,0.6830418736385702,621,-25,18.249327791187913,12.13331924412544
0.07854660129116721,0.6830350439934583,621,-25,18.249327791187913,12.13331924412544
0.08537586459106766,0.6830282144806453,621,-25,18.249327791187913,12.13331924412544
0.09220500926505172,0.6830213850952044,621,-25,18.249327791187913,12.13331924412544
0.09903403918826247,0.6830145558325874,621,-25,18.249327791187913,12.13331924412544
0.10586295793773587,0.6830077266885963,621,-25,18.249327791187913,12.13331924412544
0.11269176881533764,0.6830008976593561,621,-25,18.249327791187913,12.13331924412544
0.11952047486893534,0.6829940687412895,621,-25,18.249327791187913,12.13331924412544
0.12634907891194122,0.6829872399310948,621,-25,18.249327791187913,12.13331924412544
0.13317758354135173,0.6829804112257242,621,-25,18.249327791187913,12.13331924412544
0.14000599115439882,0.682973582622364,621,-25,18.249327791187913,12.13331924412544
0.14683430396392022,0.6829667541184175,621,-25,18.249327791187913,12.13331924412544
0.15366252401254685,0.6829599257114872,621,-25,18.249327791187913,12.13331924412544
0.16049065318579903,0.6829530973993606,621,-25,18.249327791187913,12.13331924412544
0.16731869322417445,0.6829462691799948,621,-25,18.249327791187913,12.13331924412544
0.17414664573430705,0.6829394410515044,621,-25,18.249327791187913,12.13331924412544
0.18097451219926602,0.6829326130121488,621,-25,18.249327791187913,12.13331924412544
0.1878022939880635,0.6829257850603215,621,-25,18.249327791187913,12.13331924412544
0.1946299923644302,0.6829189571945393,621,-25,18.249327791187913,12.13331924412544
0.20145760849491587,0.6829121294134334,621,-25,18.249327791187913,12.13331924412544
0.20828514345636662,0.6829053017157398,621,-25,18.249327791187913,12.13331924412544
0.21511259824282675,0.682898474100292,621,-25,18.249327791187913,12.13331924412544
0.22193997377190983,0.6828916465660134,621,-25,18.249327791187913,12.13331924412544
0.2287672708906793,0.6828848191119097,621,-25,18.249327791187913,12.13331924412544
0.2355944903810766,0.6828779917370633,621,-25,18.249327791187913,12.13331924412544
0.24242163296493194,0.6828711644406273,621,-25,18.249327791187913,12.13331924412544
0.24924869930858934,0.6828643372218197,621,-25,18.249327791187913,12.13331924412544
0.2560756900271757,0.6828575100799186,621,-25,18.249327791187913,12.13331924412544
0.26290260568854146,0.6828506830142577,621,-25,18.249327791187913,12.13331924412544
0.26972944681689853,0.6828438560242217,621,-25,18.249327791187913,12.13331924412544
0.2765562138961773,0.682837029109243,621,-25,18.249327791187913,12.13331924412544
0.2833829073731266,0.6828302022687974,621,-25,18.249327791187913,12.13331924412544
0.29020952766017416,0.6828233755024008,621,-25,18.249327791187913,12.13331924412544
0.297036075138067,0.6828165488096066,621,-25,18.249327791187913,12.13331924412544
0.3038625501583098,0.6828097221900022,621,-25,18.249327791187913,12.13331924412544
0.31068895304541416,0.682802895643207,621,-25,18.249327791187913,12.13331924412544
0.3175152840989759,0.6827960691688694,621,-25,18.249327791187913,12.13331924412544
0.32434154359559186,0.682789242766665,621,-25,18.249327791187913,12.13331924412544
0.33116773179062964,0.682782416436294,621,-25,18.249327791187913,12.13331924412544
0.33799384891986084,0.68277559017748,621,-25,18.249327791187913,12.13331924412544
0.34481989520096895,0.6827687639899677,621,-25,18.249327791187913,12.13331924412544
0.35164587083494103,0.682761937873521,621,-25,18.249327791187913,12.13331924412544
0.3584717760073525,0.6827551118279226,621,-25,18.249327791187913,12.13331924412544
0.3652976108895527,0.6827482858529712,621,-25,18.249327791187913,12.13331924412544
0.37212337563975945,0.6827414599484813,621,-25,18.249327791187913,12.13331924412544
0.3789490704040698,0.6827346341142818,621,-25,18.249327791187913,12.13331924412544
0.3857746953173922,0.6827278083502142,621,-25,18.249327791187913,12.13331924412544
0.3926002505043076,0.6827209826561325,621,-25,18.249327791187913,12.13331924412544
0.39942573607986376,0.6827141570319017,621,-25,18.249327791187913,12.13331924412544
0.4062511521503092,0.6827073314773974,621,-25,18.249327791187913,12.13331924412544
0.41307649881376984,0.6827005059925043,621,-25,18.249327791187913,12.13331924412544
0.4199017761608743,0.6826936805771164,621,-25,18.249327791187913,12.13331924412544
0.4267269842753305,0.6826868552311356,621,-25,18.249327791187913,12.13331924412544
0.4335521232344581,0.682680029954471,621,-25,18.249327791187913,12.13331924412544
0.44037719310968026,0.6826732047470391,621,-25,18.249327791187913,12.13331924412544
0.4472021939669773,0.6826663796087625,621,-25,18.249327791187913,12.13331924412544
0.4540271258673053,0.6826595545395697,621,-25,18.249327791187913,12.13331924412544
0.4608519888669827,0.682652729539395,621,-25,18.249327791187913,12.13331924412544
0.4676767830180473,0.6826459046081772,621,-25,18.249327791187913,12.13331924412544
0.4745015083685854,0.68263907974586,621,-25,18.249327791187913,12.13331924412544
0.4813261649630359,0.6826322549523914,621,-25,18.249327791187913,12.13331924412544
0.4881507528424713,0.6826254302277234,621,-25,18.249327791187913,12.13331924412544
0.49497527204485614,0.6826186055718114,621,-25,18.249327791187913,12.13331924412544
0.5017997226052863,0.6826117809846144,621,-25,18.249327791187913,12.13331924412544
0.50862410455621,0.6826049564660945,621,-25,18.249327791187913,12.13331924412544
0.5154484179276315,0.6825981320162166,621,-25,18.249327791187913,12.13331924412544
0.5222726627472984,0.682591307634948,621,-25,18.249327791187913,12.13331924412544
0.5290968390408762,0.6825844833222591,621,-25,18.249327791187913,12.13331924412544
0.5359209468321082,0.6825776590781218,621,-25,18.249327791187913,12.13331924412544
0.5427449861429631,0.6825708349025107,621,-25,18.249327791187913,12.13331924412544
0.549568956993772,0.682564010795402,621,-25,18.249327791187913,12.13331924412544
0.556392859403354,0.6825571867567735,621,-25,18.249327791187913,12.13331924412544
0.5632166933891328,0.6825503627866051,621,-25,18.249327791187913,12.13331924412544
0.5700404589672439,0.682543538884878,621,-25,18.249327791187913,12.13331924412544
0.5768641561526336,0.6825367150515745,621,-25,18.249327791187913,12.13331924412544
0.5836877849591511,0.6825298912866788,621,-25,18.249327791187913,12.13331924412544
0.5905113453996322,0.6825230675901758,621,-25,18.249327791187913,12.13331924412544
0.5973348374859777,0.6825162439620517,621,-25,18.249327791187913,12.13331924412544
0.6041582612292252,0.6825094204022936,621,-25,18.249327791187913,12.13331924412544
0.6109816166396151,0.6825025969108895,621,-25,18.249327791187913,12.13331924412544
0.6178049037266532,0.6824957734878286,621,-25,18.249327791187913,12.13331924412544
0.6246281224991656,0.6824889501331006,621,-25,18.249327791187913,12.13331924412544
0.6314512729653521,0.682482126846696,621,-25,18.249327791187913,12.13331924412544
0.6382743551328341,0.6824753036286058,621,-25,18.249327791187913,12.13331924412544
0.6450973690086991,0.6824684804788219,621,-25,18.249327791187913,12.13331924412544
0.6519203145995414,0.6824616573973368,621,-25,18.249327791187913,12.13331924412544
0.6587431919115007,0.6824548343841432,621,-25,18.249327791187913,12.13331924412544
0.6655660009502967,0.6824480114392346,621,-25,18.249327791187913,12.13331924412544
0.6723887417212616,0.6824411885626049,621,-25,18.249327791187913,12.13331924412544
0.6792114142293696,0.6824343657542485,621,-25,18.249327791187913,12.13331924412544
0.6860340184792647,0.6824275430141599,621,-25,18.249327791187913,12.13331924412544
0.6928565544752862,0.682420720342334,621,-25,18.249327791187913,12.13331924412544
0.6996790222214916,0.6824138977387664,621,-25,18.249327791187913,12.13331924412544
0.706501421721679,0.6824070752034526,621,-25,18.249327791187913,12.13331924412544
0.7133237529794069,0.6824002527363887,621,-25,18.249327791187913,12.13331924412544
0.7201460159980119,0.6823934303375707,621,-25,18.249327791187913,12.13331924412544
0.7269682107806271,0.6823866080069952,621,-25,18.249327791187913,12.13331924412544
0.733790337330196,0.6823797857446589,621,-25,18.249327791187913,12.13331924412544
0.7406123956494889,0.6823729635505585,621,-25,18.249327791187913,12.13331924412544
0.7474343857411153,0.6823661414246912,621,-25,18.249327791187913,12.13331924412544
0.7542563076075359,0.6823593193670541,621,-25,18.249327791187913,12.13331924412544
0.7610781612510753,0.6823524973776447,621,-25,18.249327791187913,12.13331924412544
0.7678999466739309,0.6823456754564604,621,-25,18.249327791187913,12.13331924412544
0.7747216638781841,0.6823388536034991,621,-25,18.249327791187913,12.13331924412544
0.7815433128658081,0.6823320318187585,621,-25,18.249327791187913,12.13331924412544
0.7883648936386773,0.6823252101022363,621,-25,18.249327791187913,12.13331924412544
0.7951864061985736,0.6823183884539309,621,-25,18.249327791187913,12.13331924412544
0.802007850547195,0.6823115668738402,621,-25,18.249327791187913,12.13331924412544
0.808829226686161,0.6823047453619625,621,-25,18.249327791187913,12.13331924412544
0.8156505346170188,0.682297923918296,621,-25,18.249327791187913,12.13331924412544
0.822471774341249,0.6822911025428392,621,-25,18.249327791187913,12.13331924412544
0.8292929458602714,0.6822842812355905,621,-25,18.249327791187913,12.13331924412544
0.836114049175448,0.6822774599965484,621,-25,18.249327791187913,12.13331924412544
0.842935084288089,0.6822706388257115,621,-25,18.249327791187913,12.13331924412544
0.8497560511994566,0.6822638177230785,621,-25,18.249327791187913,12.13331924412544
0.8565769499107675,0.6822569966886479,621,-25,18.249327791187913,12.13331924412544
0.8633977804231976,0.6822501757224188,621,-25,18.249327791187913,12.13331924412544
0.8702185427378852,0.6822433548243895,621,-25,18.249327791187913,12.13331924412544
0.8770392368559328,0.6822365339945592,621,-25,18.249327791187913,12.13331924412544
0.883859862778411,0.6822297132329266,621,-25,18.249327791187913,12.13331924412544
0.8906804205063601,0.6822228925394906,621,-25,18.249327791187913,12.13331924412544
0.8975009100407934,0.6822160719142502,621,-25,18.249327791187913,12.13331924412544
0.9043213313826977,0.6822092513572043,621,-25,18.249327791187913,12.13331924412544
0.9111416845330373,0.682202430868352,621,-25,18.249327791187913,12.13331924412544
0.9179619694927543,0.6821956104476921,621,-25,18.249327791187913,12.13331924412544
0.924782186262771,0.6821887900952238,621,-25,18.249327791187913,12.13331924412544
0.9316023348439907,0.6821819698109461,621,-25,18.249327791187913,12.13331924412544
0.9384224152373001,0.6821751495948581,621,-25,18.249327791187913,12.13331924412544
0.9452424274435699,0.6821683294469589,621,-25,18.249327791187913,12.13331924412544
0.9520623714636564,0.6821615093672476,621,-25,18.249327791187913,12.13331924412544
0.9588822472984022,0.6821546893557234,621,-25,18.249327791187913,12.13331924412544
0.9657020549486379,0.6821478694123854,621,-25,18.249327791187913,12.13331924412544
0.9725217944151823,0.6821410495372326,621,-25,18.249327791187913,12.13331924412544
0.9793414656988437,0.6821342297302644,621,-25,18.249327791187913,12.13331924412544
0.986161068800421,0.6821274099914798,621,-25,18.249327791187913,12.13331924412544
0.9929806037207033,0.6821205903208781,621,-25,18.249327791187913,12.13331924412544
0.9998000704604723,0.6821137707184585,621,-25,18.249327791187913,12.13331924412544
1.0066194690205015,0.6821069511842202,621,-25,18.249327791187913,12.13331924412544
1.0134387994015575,0.6821001317181624,621,-25,18.249327791187913,12.13331924412544
1.0202580616044001,0.6820933123202844,621,-25,18.249327791187913,12.13331924412544
1.0270772556297831,0.6820864929905852,621,-25,18.249327791187913,12.13331924412544
1.0338963814784556,0.6820796737290643,621,-25,18.249327791187913,12.13331924412544
1.04071543915116,0.6820728545357209,621,-25,18.249327791187913,12.13331924412544
1.0475344286486354,0.6820660354105541,621,-25,18.249327791187913,12.13331924412544
1.0543533499716158,0.6820592163535634,621,-25,18.249327791187913,12.13331924412544
1.061172203120831,0.6820523973647478,621,-25,18.249327791187913,12.13331924412544
1.067990988097007,0.6820455784441066,621,-25,18.249327791187913,12.13331924412544
1.0748097049008678,0.6820387595916394,621,-25,18.249327791187913,12.13331924412544
1.0816283535331321,0.6820319408073451,621,-25,18.249327791187913,12.13331924412544
1.0884469339945169,0.6820251220912231,621,-25,18.249327791187913,12.13331924412544
1.0952654462857365,0.6820183034432727,621,-25,18.249327791187913,12.13331924412544
1.1020838904075017,0.6820114848634932,621,-25,18.249327791187913,12.13331924412544
1.1089022663605226,0.6820046663518838,621,-25,18.249327791187913,12.13331924412544
1.1157205741455056,0.681997847908444,621,-25,18.249327791187913,12.13331924412544
1.122538813763156,0.6819910295331728,621,-25,18.249327791187913,12.13331924412544
1.1293569852141774,0.6819842112260697,621,-25,18.249327791187913,12.13331924412544
1.136175088499271,0.6819773929871338,621,-25,18.249327791187913,12.13331924412544
1.142993123619137,0.6819705748163646,621,-25,18.249327791187913,12.13331924412544
1.149811090574474,0.6819637567137613,621,-25,18.249327791187913,12.13331924412544
1.1566289893659796,0.6819569386793233,621,-25,18.249327791187913,12.13331924412544
1.163446819994349,0.6819501207130498,621,-25,18.249327791187913,12.13331924412544
1.170264582460278,0.6819433028149401,621,-25,18.249327791187913,12.13331924412544
1.1770822767644602,0.6819364849849935,621,-25,18.249327791187913,12.13331924412544
1.1838999029075883,0.6819296672232094,621,-25,18.249327791187913,12.13331924412544
1.1907174608903546,0.6819228495295869,621,-25,18.249327791187913,12.13331924412544
1.1975349507134503,0.6819160319041256,621,-25,18.249327791187913,12.13331924412544
1.2043523723775658,0.6819092143468246,621,-25,18.249327791187913,12.13331924412544
1.211169725883391,0.6819023968576833,621,-25,18.249327791187913,12.13331924412544
1.2179870112316145,0.681895579436701,621,-25,18.249327791187913,12.13331924412544
1.2248042284229252,0.6818887620838768,621,-25,18.249327791187913,12.13331924412544
1.2316213774580114,0.6818819447992104,621,-25,18.249327791187913,12.13331924412544
1.23843845833756,0.6818751275827007,621,-25,18.249327791187913,12.13331924412544
1.245255471062258,0.6818683104343475,621,-25,18.249327791187913,12.13331924412544
1.2520724156327923,0.6818614933541496,621,-25,18.249327791187913,12.13331924412544
1.2588892920498487,0.6818546763421066,621,-25,18.249327791187913,12.13331924412544
1.2657061003141132,0.6818478593982178,621,-25,18.249327791187913,12.13331924412544
1.2725228404262714,0.6818410425224825,621,-25,18.249327791187913,12.13331924412544
1.2793395123870077,0.6818342257148998,621,-25,18.249327791187913,12.13331924412544
1.2861561161970074,0.6818274089754695,621,-25,18.249327791187913,12.13331924412544
1.2929726518569553,0.6818205923041903,621,-25,18.249327791187913,12.13331924412544
1.2997891193675348,0.681813775701062,621,-25,18.249327791187913,12.13331924412544
1.306605518729431,0.6818069591660837,621,-25,18.249327791187913,12.13331924412544
1.3134218499433272,0.6818001426992548,621,-25,18.249327791187913,12.13331924412544
1.3202381130099066,0.6817933263005745,621,-25,18.249327791187913,12.13331924412544
1.3270543079298536,0.6817865099700423,621,-25,18.249327791187913,12.13331924412544
1.3338704347038508,0.6817796937076573,621,-25,18.249327791187913,12.13331924412544
1.340686493332581,0.6817728775134191,621,-25,18.249327791187913,12.13331924412544
1.3475024838167282,0.6817660613873268,621,-25,18.249327791187913,12.13331924412544
1.3543184061569749,0.6817592453293796,621,-25,18.249327791187913,12.13331924412544
1.3611342603540029,0.681752429339577,621,-25,18.249327791187913,12.13331924412544
1.3679500464084962,0.6817456134179184,621,-25,18.249327791187913,12.13331924412544
1.3747657643211366,0.681738797564403,621,-25,18.249327791187913,12.13331924412544
1.3815814140926062,0.68173198177903,621,-25,18.249327791187913,12.13331924412544
1.3883969957235875,0.681725166061799,621,-25,18.249327791187913,12.13331924412544
1.3952125092147627,0.6817183504127091,621,-25,18.249327791187913,12.13331924412544
1.4020279545668144,0.6817115348317597,621,-25,18.249327791187913,12.13331924412544
1.4088433317804239,0.6817047193189502,621,-25,18.249327791187913,12.13331924412544
1.4156586408562737,0.6816979038742796,621,-25,18.249327791187913,12.13331924412544
1.4224738817950455,0.6816910884977476,621,-25,18.249327791187913,12.13331924412544
1.4292890545974208,0.6816842731893533,621,-25,18.249327791187913,12.13331924412544
1.4361041592640824,0.6816774579490961,621,-25,18.249327791187913,12.13331924412544
1.442919195795711,0.6816706427769752,621,-25,18.249327791187913,12.13331924412544
1.449734164192989,0.68166382767299,621,-25,18.249327791187913,12.13331924412544
1.4565490644565973,0.68165701263714,621,-25,18.249327791187913,12.13331924412544
1.4633638965872184,0.6816501976694241,621,-25,18.249327791187913,12.13331924412544
1.4701786605855336,0.681643382769842,621,-25,18.249327791187913,12.13331924412544
1.476993356452224,0.6816365679383929,621,-25,18.249327791187913,12.13331924412544
1.4838079841879712,0.6816297531750761,621,-25,18.249327791187913,12.13331924412544
1.4906225437934568,0.6816229384798909,621,-25,18.249327791187913,12.13331924412544
1.4974370352693624,0.6816161238528367,621,-25,18.249327791187913,12.13331924412544
1.5042514586163698,0.6816093092939126,621,-25,18.249327791187913,12.13331924412544
1.5110658138351594,0.6816024948031182,621,-25,18.249327791187913,12.13331924412544
1.5178801009264131,0.6815956803804526,621,-25,18.249327791187913,12.13331924412544
1.5246943198908123,0.6815888660259153,621,-25,18.249327791187913,12.13331924412544
1.5315084707290383,0.6815820517395055,621,-25,18.249327791187913,12.13331924412544
1.5383225534417717,0.6815752375212225,621,-25,18.249327791187913,12.13331924412544
1.5451365680296947,0.6815684233710657,621,-25,18.249327791187913,12.13331924412544
1.5519505144934873,0.6815616092890344,621,-25,18.249327791187913,12.13331924412544
1.5587643928338322,0.6815547952751279,621,-25,18.249327791187913,12.13331924412544
1.5655782030514094,0.6815479813293455,621,-25,18.249327791187913,12.13331924412544
1.572391945146901,0.6815411674516866,621,-25,18.249327791187913,12.13331924412544
1.5792056191209876,0.6815343536421504,621,-25,18.249327791187913,12.13331924412544
1.5860192249743508,0.6815275399007363,621,-25,18.249327791187913,12.13331924412544
1.5928327627076713,0.6815207262274435,621,-25,18.249327791187913,12.13331924412544
1.59964623232163,0.6815139126222716,621,-25,18.249327791187913,12.13331924412544
1.606459633816909,0.6815070990852197,621,-25,18.249327791187913,12.13331924412544
1.6132729671941886,0.6815002856162871,621,-25,18.249327791187913,12.13331924412544
