Vout,Iout,Irradiance,Temperature,MaxVoltage,MaxPower
0.009135412159498466,1.8270999999999997,1661,-25,18.257223986980936,33.025104759917774
0.02740606755607824,1.8270999999999997,1661,-25,18.257223986980936,33.025104759917774
0.04567635151481651,1.8270906818778403,1661,-25,18.257223986980936,33.025104759917774
0.06394619767846589,1.8270724112224437,1661,-25,18.257223986980936,33.025104759917774
0.08221558436032672,1.8270541409394168,1661,-25,18.257223986980936,33.025104759917774
0.10048453286363154,1.82703587109508,1661,-25,18.257223986980936,33.025104759917774
0.11875306285325624,1.8270176017102253,1661,-25,18.257223986980936,33.025104759917774
0.1370211924813733,1.826999332763549,1661,-25,18.257223986980936,33.025104759917774
0.15528893850363884,1.8269810642353863,1661,-25,18.257223986980936,33.025104759917774
0.1735563163866431,1.8269627961075852,1661,-25,18.257223986980936,33.025104759917774
0.191823340407093,1.8269445283633896,1661,-25,18.257223986980936,33.025104759917774
0.21009002374336355,1.8269262609873336,1661,-25,18.257223986980936,33.025104759917774
0.22835637856000546,1.8269079939651398,1661,-25,18.257223986980936,33.025104759917774
0.24662241608575022,1.8268897272836302,1661,-25,18.257223986980936,33.025104759917774
0.2648881466855135,1.8268714609306402,1661,-25,18.257223986980936,33.025104759917774
0.2831535799268586,1.8268531948949411,1661,-25,18.257223986980936,33.025104759917774
0.30141872464134584,1.826834929166168,1661,-25,18.257223986980936,33.025104759917774
0.31968358898116184,1.8268166637347534,1661,-25,18.257223986980936,33.025104759917774
0.3379481804713917,1.8267983985918654,1661,-25,18.257223986980936,33.025104759917774
0.3562125060582691,1.826780133729352,1661,-25,18.257223986980936,33.025104759917774
0.37447657215371394,1.8267618691396885,1661,-25,18.257223986980936,33.025104759917774
0.3927403846764435,1.826743604815928,1661,-25,18.257223986980936,33.025104759917774
0.4110039490899199,1.826725340751659,1661,-25,18.257223986980936,33.025104759917774
0.42926727043737845,1.8267070769409628,1661,-25,18.257223986980936,33.025104759917774
0.4475303533741605,1.8266888133783756,1661,-25,18.257223986980936,33.025104759917774
0.4657932021975586,1.8266705500588547,1661,-25,18.257223986980936,33.025104759917774
0.4840558208743651,1.8266522869777442,1661,-25,18.257223986980936,33.025104759917774
0.5023182130663016,1.8266340241307473,1661,-25,18.257223986980936,33.025104759917774
0.5205803821534918,1.8266157615138967,1661,-25,18.257223986980936,33.025104759917774
0.5388423312561271,1.826597499123531,1661,-25,18.257223986980936,33.025104759917774
0.557104063254468,1.8265792369562701,1661,-25,18.257223986980936,33.025104759917774
0.5753655808073026,1.8265609750089937,1661,-25,18.257223986980936,33.025104759917774
0.5936268863689884,1.8265427132788215,1661,-25,18.257223986980936,33.025104759917774
0.6118879822051817,1.826524451763095,1661,-25,18.257223986980936,33.025104759917774
0.6301488704073556,1.8265061904593594,1661,-25,18.257223986980936,33.025104759917774
0.6484095529062022,1.8264879293653493,1661,-25,18.257223986980936,33.025104759917774
0.6666700314840039,1.8264696684789734,1661,-25,18.257223986980936,33.025104759917774
0.6849303077860524,1.8264514077983005,1661,-25,18.257223986980936,33.025104759917774
0.7031903833311869,1.826433147321549,1661,-25,18.257223986980936,33.025104759917774
0.7214502595215266,1.8264148870470729,1661,-25,18.257223986980936,33.025104759917774
0.7397099376514495,1.8263966269733538,1661,-25,18.257223986980936,33.025104759917774
0.7579694189158825,1.8263783670989895,1661,-25,18.257223986980936,33.025104759917774
0.776228704417953,1.8263601074226856,1661,-25,18.257223986980936,33.025104759917774
0.7944877951760528,1.8263418479432472,1661,-25,18.257223986980936,33.025104759917774
0.8127466921303578,1.826323588659571,1661,-25,18.257223986980936,33.025104759917774
0.8310053961488448,1.8263053295706388,1661,-25,18.257223986980936,33.025104759917774
0.8492639080328481,1.8262870706755105,1661,-25,18.257223986980936,33.025104759917774
0.8675222285221864,1.826268811973318,1661,-25,18.257223986980936,33.025104759917774
0.8857803582998958,1.8262505534632598,1661,-25,18.257223986980936,33.025104759917774
0.9040382979965996,1.8262322951445964,1661,-25,18.257223986980936,33.025104759917774
0.9222960481945391,1.8262140370166444,1661,-25,18.257223986980936,33.025104759917774
0.9405536094312987,1.8261957790787735,1661,-25,18.257223986980936,33.025104759917774
0.9588109822032399,1.8261775213304015,1661,-25,18.257223986980936,33.025104759917774
0.9770681669686737,1.8261592637709905,1661,-25,18.257223986980936,33.025104759917774
0.995325164150789,1.8261410064000443,1661,-25,18.257223986980936,33.025104759917774
1.0135819741403533,1.8261227492171046,1661,-25,18.257223986980936,33.025104759917774
1.0318385972982094,1.8261044922217482,1661,-25,18.257223986980936,33.025104759917774
1.0500950339575756,1.8260862354135845,1661,-25,18.257223986980936,33.025104759917774
1.0683512844261727,1.8260679787922522,1661,-25,18.257223986980936,33.025104759917774
1.0866073489881851,1.8260497223574186,1661,-25,18.257223986980936,33.025104759917774
1.1048632279060728,1.8260314661087758,1661,-25,18.257223986980936,33.025104759917774
1.1231189214222408,1.8260132100460393,1661,-25,18.257223986980936,33.025104759917774
1.1413744297605852,1.825994954168947,1661,-25,18.257223986980936,33.025104759917774
1.1596297531279138,1.8259766984772565,1661,-25,18.257223986980936,33.025104759917774
1.1778848917152636,1.8259584429707436,1661,-25,18.257223986980936,33.025104759917774
1.1961398456991126,1.825940187649202,1661,-25,18.257223986980936,33.025104759917774
1.214394615242502,1.82592193251244,1661,-25,18.257223986980936,33.025104759917774
1.2326492004960674,1.825903677560282,1661,-25,18.257223986980936,33.025104759917774
1.2509036015989954,1.825885422792564,1661,-25,18.257223986980936,33.025104759917774
1.269157818679903,1.8258671682091359,1661,-25,18.257223986980936,33.025104759917774
1.2874118518576525,1.8258489138098584,1661,-25,18.257223986980936,33.025104759917774
1.3056657012421002,1.825830659594603,1661,-25,18.257223986980936,33.025104759917774
1.3239193669347917,1.8258124055632508,1661,-25,18.257223986980936,33.025104759917774
1.342172849029598,1.8257941517156917,1661,-25,18.257223986980936,33.025104759917774
1.3604261476133088,1.8257758980518244,1661,-25,18.257223986980936,33.025104759917774
1.3786792627661766,1.8257576445715549,1661,-25,18.257223986980936,33.025104759917774
1.3969321945624193,1.8257393912747966,1661,-25,18.257223986980936,33.025104759917774
1.415184943070685,1.825721138161469,1661,-25,18.257223986980936,33.025104759917774
1.43343750835448,1.8257028852314983,1661,-25,18.257223986980936,33.025104759917774
1.4516898904725637,1.8256846324848153,1661,-25,18.257223986980936,33.025104759917774
1.4699420894793167,1.8256663799213568,1661,-25,18.257223986980936,33.025104759917774
1.4881941054250745,1.8256481275410639,1661,-25,18.257223986980936,33.025104759917774
1.5064459383564408,1.8256298753438824,1661,-25,18.257223986980936,33.025104759917774
1.5246975883165734,1.825611623329762,1661,-25,18.257223986980936,33.025104759917774
1.5429490553454501,1.8255933714986559,1661,-25,18.257223986980936,33.025104759917774
1.5612003394801128,1.8255751198505208,1661,-25,18.257223986980936,33.025104759917774
1.5794514407548936,1.8255568683853172,1661,-25,18.257223986980936,33.025104759917774
1.5977023592016246,1.8255386171030077,1661,-25,18.257223986980936,33.025104759917774
1.6159530948498273,1.825520366003558,1661,-25,18.257223986980936,33.025104759917774
1.6342036477268926,1.8255021150869364,1661,-25,18.257223986980936,33.025104759917774
1.6524540178582459,1.8254838643531133,1661,-25,18.257223986980936,33.025104759917774
1.670704205267494,1.8254656138020613,1661,-25,18.257223986980936,33.025104759917774
1.6889542099765695,1.8254473634337551,1661,-25,18.257223986980936,33.025104759917774
1.7072040320058568,1.8254291132481708,1661,-25,18.257223986980936,33.025104759917774
1.7254536713743134,1.8254108632452868,1661,-25,18.257223986980936,33.025104759917774
1.7437031280995774,1.8253926134250826,1661,-25,18.257223986980936,33.025104759917774
1.7619524021980708,1.825374363787539,1661,-25,18.257223986980936,33.025104759917774
1.7802014936850918,1.825356114332639,1661,-25,18.257223986980936,33.025104759917774
1.7984504025749026,1.8253378650603653,1661,-25,18.257223986980936,33.025104759917774
1.8166991288808079,1.8253196159707032,1661,-25,18.257223986980936,33.025104759917774
1.8349476726152296,1.8253013670636382,1661,-25,18.257223986980936,33.025104759917774
1.8531960337897733,1.8252831183391574,1661,-25,18.257223986980936,33.025104759917774
1.8714442124152926,1.8252648697972478,1661,-25,18.257223986980936,33.025104759917774
1.8896922085019452,1.8252466214378982,1661,-25,18.257223986980936,33.025104759917774
1.9079400220592493,1.8252283732610974,1661,-25,18.257223986980936,33.025104759917774
1.9261876530961302,1.8252101252668356,1661,-25,18.257223986980936,33.025104759917774
1.9444351016209673,1.8251918774551033,1661,-25,18.257223986980936,33.025104759917774
1.962682367641634,1.8251736298258912,1661,-25,18.257223986980936,33.025104759917774
1.98092945116554,1.825155382379191,1661,-25,18.257223986980936,33.025104759917774
1.9991763521996653,1.8251371351149952,1661,-25,18.257223986980936,33.025104759917774
2.017423070750591,1.825118888033296,1661,-25,18.257223986980936,33.025104759917774
2.0356696068245346,1.8251006411340867,1661,-25,18.257223986980936,33.025104759917774
2.053915960427374,1.8250823944173604,1661,-25,18.257223986980936,33.025104759917774
2.0721621315646765,1.825064147883111,1661,-25,18.257223986980936,33.025104759917774
2.0904081202417193,1.825045901531333,1661,-25,18.257223986980936,33.025104759917774
2.1086539264635156,1.8250276553620202,1661,-25,18.257223986980936,33.025104759917774
2.1268995502348327,1.8250094093751679,1661,-25,18.257223986980936,33.025104759917774
2.1451449915602114,1.8249911635707707,1661,-25,18.257223986980936,33.025104759917774
2.163390250443984,1.8249729179488239,1661,-25,18.257223986980936,33.025104759917774
2.1816353268902877,1.824954672509323,1661,-25,18.257223986980936,33.025104759917774
2.199880220903084,1.824936427252264,1661,-25,18.257223986980936,33.025104759917774
2.218124932486169,1.8249181821776421,1661,-25,18.257223986980936,33.025104759917774
2.236369461643187,1.824899937285454,1661,-25,18.257223986980936,33.025104759917774
2.2546138083776426,1.8248816925756954,1661,-25,18.257223986980936,33.025104759917774
2.272857972692911,1.8248634480483628,1661,-25,18.257223986980936,33.025104759917774
2.2911019545922455,1.8248452037034528,1661,-25,18.257223986980936,33.025104759917774
2.309345754078794,1.824826959540962,1661,-25,18.257223986980936,33.025104759917774
2.327589371155599,1.8248087155608872,1661,-25,18.257223986980936,33.025104759917774
2.34583280582561,1.824790471763225,1661,-25,18.257223986980936,33.025104759917774
2.364076058091691,1.8247722281479726,1661,-25,18.257223986980936,33.025104759917774
2.3823191279566247,1.8247539847151268,1661,-25,18.257223986980936,33.025104759917774
2.4005620154231195,1.8247357414646852,1661,-25,18.257223986980936,33.025104759917774
2.4188047204938172,1.8247174983966445,1661,-25,18.257223986980936,33.025104759917774
2.437047243171296,1.8246992555110024,1661,-25,18.257223986980936,33.025104759917774
2.4552895834580752,1.824681012807756,1661,-25,18.257223986980936,33.025104759917774
2.473531741356622,1.824662770286903,1661,-25,18.257223986980936,33.025104759917774
2.491773716869353,1.8246445279484405,1661,-25,18.257223986980936,33.025104759917774
2.5100155099986394,1.824626285792366,1661,-25,18.257223986980936,33.025104759917774
2.52825712074681,1.8246080438186776,1661,-25,18.257223986980936,33.025104759917774
2.5464985491161563,1.8245898020273725,1661,-25,18.257223986980936,33.025104759917774
2.5647397951089306,1.8245715604184485,1661,-25,18.257223986980936,33.025104759917774
2.582980858727354,1.8245533189919034,1661,-25,18.257223986980936,33.025104759917774
2.601221739973619,1.8245350777477347,1661,-25,18.257223986980936,33.025104759917774
2.619462438849886,1.8245168366859406,1661,-25,18.257223986980936,33.025104759917774
2.637702955358291,1.8244985958065183,1661,-25,18.257223986980936,33.025104759917774
2.655943289500946,1.8244803551094662,1661,-25,18.257223986980936,33.025104759917774
2.6741834412799417,1.824462114594782,1661,-25,18.257223986980936,33.025104759917774
2.692423410697347,1.8244438742624633,1661,-25,18.257223986980936,33.025104759917774
2.710663197755211,1.8244256341125082,1661,-25,18.257223986980936,33.025104759917774
2.728902802455568,1.824407394144915,1661,-25,18.257223986980936,33.025104759917774
2.747142224800434,1.824389154359681,1661,-25,18.257223986980936,33.025104759917774
2.765381464791811,1.8243709147568048,1661,-25,18.257223986980936,33.025104759917774
2.783620522431686,1.8243526753362838,1661,-25,18.257223986980936,33.025104759917774
2.8018593977220347,1.8243344360981164,1661,-25,18.257223986980936,33.025104759917774
2.8200980906648208,1.8243161970423005,1661,-25,18.257223986980936,33.025104759917774
2.8383366012619975,1.824297958168834,1661,-25,18.257223986980936,33.025104759917774
2.856574929515507,1.8242797194777152,1661,-25,18.257223986980936,33.025104759917774
2.8748130754272814,1.824261480968942,1661,-25,18.257223986980936,33.025104759917774
2.8930510389992476,1.8242432426425124,1661,-25,18.257223986980936,33.025104759917774
2.9112888202333216,1.8242250044984243,1661,-25,18.257223986980936,33.025104759917774
2.929526419131414,1.8242067665366761,1661,-25,18.257223986980936,33.025104759917774
2.9477638356954268,1.824188528757266,1661,-25,18.257223986980936,33.025104759917774
2.966001069927259,1.8241702911601916,1661,-25,18.257223986980936,33.025104759917774
2.984238121828799,1.8241520537454514,1661,-25,18.257223986980936,33.025104759917774
3.0024749914019355,1.8241338165130434,1661,-25,18.257223986980936,33.025104759917774
3.020711678648548,1.8241155794629655,1661,-25,18.257223986980936,33.025104759917774
3.0389481835705143,1.824097342595216,1661,-25,18.257223986980936,33.025104759917774
3.0571845061697047,1.8240791059097932,1661,-25,18.257223986980936,33.025104759917774
3.0754206464479896,1.8240608694066949,1661,-25,18.257223986980936,33.025104759917774
3.093656604407233,1.8240426330859194,1661,-25,18.257223986980936,33.025104759917774
3.111892380049298,1.8240243969474648,1661,-25,18.257223986980936,33.025104759917774
3.130127973376042,1.8240061609913292,1661,-25,18.257223986980936,33.025104759917774
3.1483633843893215,1.8239879252175106,1661,-25,18.257223986980936,33.025104759917774
3.16659861309099,1.8239696896260076,1661,-25,18.257223986980936,33.025104759917774
3.184833659482897,1.8239514542168178,1661,-25,18.257223986980936,33.025104759917774
3.2030685235668943,1.8239332189899398,1661,-25,18.257223986980936,33.025104759917774
3.2213032053448254,1.8239149839453714,1661,-25,18.257223986980936,33.025104759917774
3.239537704818538,1.8238967490831108,1661,-25,18.257223986980936,33.025104759917774
3.257772021989874,1.8238785144031564,1661,-25,18.257223986980936,33.025104759917774
3.2760061568606744,1.8238602799055064,1661,-25,18.257223986980936,33.025104759917774
3.294240109432781,1.8238420455901585,1661,-25,18.257223986980936,33.025104759917774
3.3124738797080306,1.823823811457111,1661,-25,18.257223986980936,33.025104759917774
3.3307074676882618,1.8238055775063624,1661,-25,18.257223986980936,33.025104759917774
3.348940873375311,1.8237873437379106,1661,-25,18.257223986980936,33.025104759917774
3.3671740967710133,1.8237691101517537,1661,-25,18.257223986980936,33.025104759917774
3.385407137877202,1.82375087674789,1661,-25,18.257223986980936,33.025104759917774
3.403639996695712,1.8237326435263177,1661,-25,18.257223986980936,33.025104759917774
3.421872673228373,1.8237144104870349,1661,-25,18.257223986980936,33.025104759917774
3.44010516747702,1.8236961776300395,1661,-25,18.257223986980936,33.025104759917774
3.4583374794434816,1.8236779449553302,1661,-25,18.257223986980936,33.025104759917774
3.47656960912959,1.823659712462905,1661,-25,18.257223986980936,33.025104759917774
3.494801556537173,1.8236414801527618,1661,-25,18.257223986980936,33.025104759917774
3.513033321668061,1.8236232480248988,1661,-25,18.257223986980936,33.025104759917774
3.5312649045240825,1.8236050160793145,1661,-25,18.257223986980936,33.025104759917774
3.549496305107063,1.823586784316007,1661,-25,18.257223986980936,33.025104759917774
3.5677275234188337,1.823568552734974,1661,-25,18.257223986980936,33.025104759917774
3.5859585594612198,1.8235503213362143,1661,-25,18.257223986980936,33.025104759917774
3.6041894132360484,1.8235320901197256,1661,-25,18.257223986980936,33.025104759917774
3.6224200847451455,1.8235138590855064,1661,-25,18.257223986980936,33.025104759917774
3.6406505739903383,1.8234956282335546,1661,-25,18.257223986980936,33.025104759917774
3.658880880973452,1.8234773975638687,1661,-25,18.257223986980936,33.025104759917774
3.6771110056963106,1.8234591670764466,1661,-25,18.257223986980936,33.025104759917774
3.69534094816074,1.8234409367712865,1661,-25,18.257223986980936,33.025104759917774
3.7135707083685667,1.8234227066483868,1661,-25,18.257223986980936,33.025104759917774
3.7318002863216146,1.8234044767077453,1661,-25,18.257223986980936,33.025104759917774
3.7500296820217067,1.8233862469493605,1661,-25,18.257223986980936,33.025104759917774
3.7682588954706695,1.8233680173732305,1661,-25,18.257223986980936,33.025104759917774
3.786487926670326,1.8233497879793534,1661,-25,18.257223986980936,33.025104759917774
3.8047167756225004,1.8233315587677272,1661,-25,18.257223986980936,33.025104759917774
3.8229454423290155,1.8233133297383506,1661,-25,18.257223986980936,33.025104759917774
3.8411739267916953,1.8232951008912213,1661,-25,18.257223986980936,33.025104759917774
3.8594022290123644,1.8232768722263377,1661,-25,18.257223986980936,33.025104759917774
3.8776303489928456,1.823258643743698,1661,-25,18.257223986980936,33.025104759917774
3.895858286734961,1.8232404154433002,1661,-25,18.257223986980936,33.025104759917774
3.9140860422405352,1.8232221873251424,1661,-25,18.257223986980936,33.025104759917774
3.932313615511391,1.8232039593892233,1661,-25,18.257223986980936,33.025104759917774
3.9505410065493503,1.8231857316355404,1661,-25,18.257223986980936,33.025104759917774
3.968768215356237,1.8231675040640924,1661,-25,18.257223986980936,33.025104759917774
3.9869952419338732,1.8231492766748771,1661,-25,18.257223986980936,33.025104759917774
4.005222086284081,1.8231310494678932,1661,-25,18.257223986980936,33.025104759917774
4.023448748408684,1.823112822443138,1661,-25,18.257223986980936,33.025104759917774
4.041675228309504,1.8230945956006106,1661,-25,18.257223986980936,33.025104759917774
4.059901525988365,1.8230763689403089,1661,-25,18.257223986980936,33.025104759917774
4.078127641447088,1.8230581424622307,1661,-25,18.257223986980936,33.025104759917774
4.096353574687493,1.8230399161663744,1661,-25,18.257223986980936,33.025104759917774
4.114579325711406,1.8230216900527383,1661,-25,18.257223986980936,33.025104759917774
4.132804894520649,1.8230034641213206,1661,-25,18.257223986980936,33.025104759917774
4.151030281117041,1.8229852383721192,1661,-25,18.257223986980936,33.025104759917774
4.169255485502409,1.8229670128051327,1661,-25,18.257223986980936,33.025104759917774
4.187480507678569,1.822948787420359,1661,-25,18.257223986980936,33.025104759917774
4.205705347647347,1.822930562217796,1661,-25,18.257223986980936,33.025104759917774
4.223930005410565,1.8229123371974425,1661,-25,18.257223986980936,33.025104759917774
4.242154480970043,1.822894112359296,1661,-25,18.257223986980936,33.025104759917774
