Vout,Iout,Irradiance,Temperature,MaxVoltage,MaxPower
0.008741925943019778,1.7484019999999998,1531,-4,19.805480912742507,34.23636650392439
0.026225616182574737,1.7484019999999998,1531,-4,19.805480912742507,34.23636650392439
0.04370895098309246,1.7483930832338568,1531,-4,19.805480912742507,34.23636650392439
0.06119186684550661,1.7483755995436172,1531,-4,19.805480912742507,34.23636650392439
0.07867434301722072,1.7483581162097084,1531,-4,19.805480912742507,34.23636650392439
0.09615639988388107,1.7483406332955944,1531,-4,19.805480912742507,34.23636650392439
0.11363805626334568,1.748323150821171,1531,-4,19.805480912742507,34.23636650392439
0.1311193295259252,1.7483056687660525,1531,-4,19.805480912742507,34.23636650392439
0.14860023570556571,1.7482881871114213,1531,-4,19.805480912742507,34.23636650392439
0.16608078960267061,1.748270705839907,1531,-4,19.805480912742507,34.23636650392439
0.18356100487901159,1.7482532249354754,1531,-4,19.805480912742507,34.23636650392439
0.2010408941453365,1.7482357443833265,1531,-4,19.805480912742507,34.23636650392439
0.21852046904223668,1.7482182641697983,1531,-4,19.805480912742507,34.23636650392439
0.2359997403147928,1.74820078428228,1531,-4,19.805480912742507,34.23636650392439
0.2534787178814763,1.748183304709131,1531,-4,19.805480912742507,34.23636650392439
0.2709574108977503,1.7481658254396066,1531,-4,19.805480912742507,34.23636650392439
0.2884358278147766,1.748148346463788,1531,-4,19.805480912742507,34.23636650392439
0.30591397643360585,1.7481308677725196,1531,-4,19.805480912742507,34.23636650392439
0.323391863955198,1.7481133893573504,1531,-4,19.805480912742507,34.23636650392439
0.3408694970265939,1.7480959112104795,1531,-4,19.805480912742507,34.23636650392439
0.3583468817835355,1.7480784333247057,1531,-4,19.805480912742507,34.23636650392439
0.3758240238898052,1.7480609556933822,1531,-4,19.805480912742507,34.23636650392439
0.3933009285735395,1.7480434783103729,1531,-4,19.805480912742507,34.23636650392439
0.4107776006607484,1.7480260011700144,1531,-4,19.805480912742507,34.23636650392439
0.42825404460625527,1.7480085242670784,1531,-4,19.805480912742507,34.23636650392439
0.445730264522257,1.7479910475967388,1531,-4,19.805480912742507,34.23636650392439
0.4632062642046859,1.7479735711545412,1531,-4,19.805480912742507,34.23636650392439
0.48068204715754353,1.7479560949363728,1531,-4,19.805480912742507,34.23636650392439
0.49815761661536273,1.747938618938438,1531,-4,19.805480912742507,34.23636650392439
0.5156329755639403,1.7479211431572328,1531,-4,19.805480912742507,34.23636650392439
0.5331081267594758,1.7479036675895225,1531,-4,19.805480912742507,34.23636650392439
0.5505830727462369,1.7478861922323214,1531,-4,19.805480912742507,34.23636650392439
0.5680578158728654,1.7478687170828735,1531,-4,19.805480912742507,34.23636650392439
0.5855323583074296,1.7478512421386343,1531,-4,19.805480912742507,34.23636650392439
0.603006702051317,1.7478337673972553,1531,-4,19.805480912742507,34.23636650392439
0.6204808489520606,1.7478162928565681,1531,-4,19.805480912742507,34.23636650392439
0.6379548007151747,1.7477988185145716,1531,-4,19.805480912742507,34.23636650392439
0.6554285589150837,1.7477813443694183,1531,-4,19.805480912742507,34.23636650392439
0.672902125005207,1.7477638704194027,1531,-4,19.805480912742507,34.23636650392439
0.6903755003272706,1.7477463966629503,1531,-4,19.805480912742507,34.23636650392439
0.7078486861199002,1.7477289230986075,1531,-4,19.805480912742507,34.23636650392439
0.7253216835265539,1.7477114497250328,1531,-4,19.805480912742507,34.23636650392439
0.742794493602845,1.7476939765409876,1531,-4,19.805480912742507,34.23636650392439
0.7602671173232999,1.7476765035453283,1531,-4,19.805480912742507,34.23636650392439
0.7777395555875989,1.7476590307369992,1531,-4,19.805480912742507,34.23636650392439
0.7952118092263327,1.7476415581150262,1531,-4,19.805480912742507,34.23636650392439
0.8126838790063202,1.747624085678509,1531,-4,19.805480912742507,34.23636650392439
0.830155765635514,1.7476066134266177,1531,-4,19.805480912742507,34.23636650392439
0.8476274697675303,1.747589141358585,1531,-4,19.805480912742507,34.23636650392439
0.8650989920058294,1.747571669473703,1531,-4,19.805480912742507,34.23636650392439
0.8825703329075744,1.747554197771318,1531,-4,19.805480912742507,34.23636650392439
0.9000414929871939,1.747536726250827,1531,-4,19.805480912742507,34.23636650392439
0.9175124727196702,1.7475192549116725,1531,-4,19.805480912742507,34.23636650392439
0.9349832725435737,1.74750178375334,1531,-4,19.805480912742507,34.23636650392439
0.9524538928638653,1.7474843127753545,1531,-4,19.805480912742507,34.23636650392439
0.9699243340544815,1.7474668419772779,1531,-4,19.805480912742507,34.23636650392439
0.9873945964607218,1.7474493713587047,1531,-4,19.805480912742507,34.23636650392439
1.0048646804014525,1.7474319009192611,1531,-4,19.805480912742507,34.23636650392439
1.0223345861711401,1.747414430658602,1531,-4,19.805480912742507,34.23636650392439
1.0398043140417286,1.7473969605764081,1531,-4,19.805480912742507,34.23636650392439
1.0572738642643724,1.7473794906723856,1531,-4,19.805480912742507,34.23636650392439
1.0747432370710364,1.747362020946262,1531,-4,19.805480912742507,34.23636650392439
1.0922124326759721,1.7473445513977863,1531,-4,19.805480912742507,34.23636650392439
1.1096814512770794,1.7473270820267266,1531,-4,19.805480912742507,34.23636650392439
1.127150293057168,1.7473096128328687,1531,-4,19.805480912742507,34.23636650392439
1.1446189581851138,1.7472921438160145,1531,-4,19.805480912742507,34.23636650392439
1.1620874468169355,1.7472746749759813,1531,-4,19.805480912742507,34.23636650392439
1.17955575909678,1.7472572063126004,1531,-4,19.805480912742507,34.23636650392439
1.1970238951578394,1.7472397378257154,1531,-4,19.805480912742507,34.23636650392439
1.2144918551231905,1.7472222695151824,1531,-4,19.805480912742507,34.23636650392439
1.231959639106576,1.747204801380868,1531,-4,19.805480912742507,34.23636650392439
1.2494272472131205,1.7471873334226498,1531,-4,19.805480912742507,34.23636650392439
1.266894679539995,1.747169865640413,1531,-4,19.805480912742507,34.23636650392439
1.2843619361770282,1.7471523980340533,1531,-4,19.805480912742507,34.23636650392439
1.3018290172072713,1.7471349306034731,1531,-4,19.805480912742507,34.23636650392439
1.3192959227075198,1.7471174633485829,1531,-4,19.805480912742507,34.23636650392439
1.3367626527487952,1.7470999962692995,1531,-4,19.805480912742507,34.23636650392439
1.3542292073967885,1.7470825293655459,1531,-4,19.805480912742507,34.23636650392439
1.37169558671227,1.7470650626372515,1531,-4,19.805480912742507,34.23636650392439
1.38916179075147,1.7470475960843501,1531,-4,19.805480912742507,34.23636650392439
1.4066278195664252,1.7470301297067812,1531,-4,19.805480912742507,34.23636650392439
1.4240936732053042,1.7470126635044887,1531,-4,19.805480912742507,34.23636650392439
1.4415593517127019,1.7469951974774205,1531,-4,19.805480912742507,34.23636650392439
1.4590248551299183,1.7469777316255282,1531,-4,19.805480912742507,34.23636650392439
1.4764901834952084,1.7469602659487673,1531,-4,19.805480912742507,34.23636650392439
1.4939553368440195,1.7469428004470966,1531,-4,19.805480912742507,34.23636650392439
1.5114203152092054,1.746925335120478,1531,-4,19.805480912742507,34.23636650392439
1.5288851186212251,1.7469078699688758,1531,-4,19.805480912742507,34.23636650392439
1.5463497471083298,1.7468904049922571,1531,-4,19.805480912742507,34.23636650392439
1.5638142006967308,1.7468729401905916,1531,-4,19.805480912742507,34.23636650392439
1.5812784794107573,1.746855475563851,1531,-4,19.805480912742507,34.23636650392439
1.5987425832730002,1.746838011112009,1531,-4,19.805480912742507,34.23636650392439
1.6162065123044471,1.7468205468350415,1531,-4,19.805480912742507,34.23636650392439
1.6336702665246052,1.7468030827329257,1531,-4,19.805480912742507,34.23636650392439
1.651133845951614,1.7467856188056408,1531,-4,19.805480912742507,34.23636650392439
1.6685972506023528,1.7467681550531668,1531,-4,19.805480912742507,34.23636650392439
1.686060480492536,1.7467506914754862,1531,-4,19.805480912742507,34.23636650392439
1.7035235356368035,1.746733228072582,1531,-4,19.805480912742507,34.23636650392439
1.7209864160488022,1.746715764844438,1531,-4,19.805480912742507,34.23636650392439
1.7384491217412643,1.7466983017910402,1531,-4,19.805480912742507,34.23636650392439
1.7559116527260763,1.7466808389123745,1531,-4,19.805480912742507,34.23636650392439
1.7733740090143442,1.7466633762084283,1531,-4,19.805480912742507,34.23636650392439
1.7908361906164538,1.7466459136791899,1531,-4,19.805480912742507,34.23636650392439
1.8082981975421266,1.7466284513246477,1531,-4,19.805480912742507,34.23636650392439
1.8257600298004693,1.746610989144792,1531,-4,19.805480912742507,34.23636650392439
1.8432216874000231,1.7465935271396125,1531,-4,19.805480912742507,34.23636650392439
1.8606831703488063,1.7465760653091005,1531,-4,19.805480912742507,34.23636650392439
1.8781444786543537,1.746558603653247,1531,-4,19.805480912742507,34.23636650392439
1.8956056123237561,1.7465411421720445,1531,-4,19.805480912742507,34.23636650392439
1.9130665713636916,1.7465236808654852,1531,-4,19.805480912742507,34.23636650392439
1.9305273557804592,1.746506219733562,1531,-4,19.805480912742507,34.23636650392439
1.9479879655800074,1.746488758776268,1531,-4,19.805480912742507,34.23636650392439
1.965448400767962,1.7464712979935975,1531,-4,19.805480912742507,34.23636650392439
1.9829086613496492,1.7464538373855438,1531,-4,19.805480912742507,34.23636650392439
2.000368747330121,1.746436376952102,1531,-4,19.805480912742507,34.23636650392439
2.0178286587141727,1.7464189166932664,1531,-4,19.805480912742507,34.23636650392439
2.035288395506367,1.746401456609032,1531,-4,19.805480912742507,34.23636650392439
2.0527479577110497,1.746383996699394,1531,-4,19.805480912742507,34.23636650392439
2.070207345332364,1.7463665369643477,1531,-4,19.805480912742507,34.23636650392439
2.0876665583742726,1.746349077403889,1531,-4,19.805480912742507,34.23636650392439
2.105125596840564,1.7463316180180137,1531,-4,19.805480912742507,34.23636650392439
2.1225844607348723,1.7463141588067177,1531,-4,19.805480912742507,34.23636650392439
2.140043150060683,1.7462966997699974,1531,-4,19.805480912742507,34.23636650392439
2.1575016648213503,1.7462792409078491,1531,-4,19.805480912742507,34.23636650392439
2.174960005020104,1.746261782220269,1531,-4,19.805480912742507,34.23636650392439
2.192418170660059,1.7462443237072542,1531,-4,19.805480912742507,34.23636650392439
2.209876161744225,1.7462268653688016,1531,-4,19.805480912742507,34.23636650392439
2.2273339782755155,1.7462094072049075,1531,-4,19.805480912742507,34.23636650392439
2.2447916202567524,1.746191949215569,1531,-4,19.805480912742507,34.23636650392439
2.2622490876906753,1.7461744914007835,1531,-4,19.805480912742507,34.23636650392439
2.279706380579947,1.746157033760548,1531,-4,19.805480912742507,34.23636650392439
2.2971634989271608,1.74613957629486,1531,-4,19.805480912742507,34.23636650392439
2.3146204427348445,1.7461221190037164,1531,-4,19.805480912742507,34.23636650392439
2.332077212005464,1.746104661887115,1531,-4,19.805480912742507,34.23636650392439
2.349533806741431,1.746087204945053,1531,-4,19.805480912742507,34.23636650392439
2.366990226945106,1.7460697481775282,1531,-4,19.805480912742507,34.23636650392439
2.384446472618802,1.7460522915845378,1531,-4,19.805480912742507,34.23636650392439
2.4019025437647876,1.74603483516608,1531,-4,19.805480912742507,34.23636650392439
2.419358440385292,1.7460173789221518,1531,-4,19.805480912742507,34.23636650392439
2.436814162482506,1.7459999228527514,1531,-4,19.805480912742507,34.23636650392439
2.454269710058588,1.7459824669578765,1531,-4,19.805480912742507,34.23636650392439
2.4717250831156625,1.745965011237525,1531,-4,19.805480912742507,34.23636650392439
2.4891802816558255,1.7459475556916946,1531,-4,19.805480912742507,34.23636650392439
2.5066353056811455,1.745930100320383,1531,-4,19.805480912742507,34.23636650392439
2.5240901551936674,1.7459126451235885,1531,-4,19.805480912742507,34.23636650392439
2.541544830195412,1.7458951901013087,1531,-4,19.805480912742507,34.23636650392439
2.558999330688379,1.7458777352535415,1531,-4,19.805480912742507,34.23636650392439
2.5764536566745475,1.7458602805802854,1531,-4,19.805480912742507,34.23636650392439
2.5939078081558815,1.745842826081538,1531,-4,19.805480912742507,34.23636650392439
2.6113617851343243,1.7458253717572971,1531,-4,19.805480912742507,34.23636650392439
2.628815587611807,1.7458079176075614,1531,-4,19.805480912742507,34.23636650392439
2.6462692155902445,1.7457904636323283,1531,-4,19.805480912742507,34.23636650392439
2.663722669071538,1.7457730098315962,1531,-4,19.805480912742507,34.23636650392439
2.681175948057579,1.7457555562053633,1531,-4,19.805480912742507,34.23636650392439
2.698629052550247,1.7457381027536272,1531,-4,19.805480912742507,34.23636650392439
2.7160819825514104,1.7457206494763866,1531,-4,19.805480912742507,34.23636650392439
2.7335347380629265,1.7457031963736394,1531,-4,19.805480912742507,34.23636650392439
2.750987319086647,1.7456857434453834,1531,-4,19.805480912742507,34.23636650392439
2.7684397256244133,1.7456682906916172,1531,-4,19.805480912742507,34.23636650392439
2.7858919576780603,1.7456508381123388,1531,-4,19.805480912742507,34.23636650392439
2.803344015249415,1.7456333857075463,1531,-4,19.805480912742507,34.23636650392439
2.820795898340299,1.7456159334772379,1531,-4,19.805480912742507,34.23636650392439
2.8382476069525278,1.7455984814214118,1531,-4,19.805480912742507,34.23636650392439
2.8556991410879107,1.7455810295400662,1531,-4,19.805480912742507,34.23636650392439
2.873150500748252,1.745563577833199,1531,-4,19.805480912742507,34.23636650392439
2.8906016859353527,1.745546126300809,1531,-4,19.805480912742507,34.23636650392439
2.908052696651008,1.7455286749428938,1531,-4,19.805480912742507,34.23636650392439
2.9255035328970105,1.745511223759452,1531,-4,19.805480912742507,34.23636650392439
2.942954194675147,1.7454937727504813,1531,-4,19.805480912742507,34.23636650392439
2.9604046819872027,1.7454763219159803,1531,-4,19.805480912742507,34.23636650392439
2.9778549948349604,1.7454588712559473,1531,-4,19.805480912742507,34.23636650392439
2.9953051332201963,1.7454414207703803,1531,-4,19.805480912742507,34.23636650392439
3.0127550971446886,1.7454239704592778,1531,-4,19.805480912742507,34.23636650392439
3.03020488661021,1.7454065203226374,1531,-4,19.805480912742507,34.23636650392439
3.047654501618531,1.745389070360458,1531,-4,19.805480912742507,34.23636650392439
3.0651039421714215,1.7453716205727376,1531,-4,19.805480912742507,34.23636650392439
3.08255320827065,1.7453541709594742,1531,-4,19.805480912742507,34.23636650392439
3.100002299917981,1.7453367215206663,1531,-4,19.805480912742507,34.23636650392439
3.1174512171151765,1.745319272256312,1531,-4,19.805480912742507,34.23636650392439
3.1348999598640024,1.7453018231664097,1531,-4,19.805480912742507,34.23636650392439
3.152348528166216,1.7452843742509574,1531,-4,19.805480912742507,34.23636650392439
3.1697969220235795,1.7452669255099535,1531,-4,19.805480912742507,34.23636650392439
3.187245141437849,1.7452494769433962,1531,-4,19.805480912742507,34.23636650392439
3.2046931864107835,1.7452320285512837,1531,-4,19.805480912742507,34.23636650392439
3.2221410569441375,1.7452145803336143,1531,-4,19.805480912742507,34.23636650392439
3.2395887530396674,1.745197132290386,1531,-4,19.805480912742507,34.23636650392439
3.2570362746991264,1.7451796844215977,1531,-4,19.805480912742507,34.23636650392439
3.274483621924269,1.7451622367272468,1531,-4,19.805480912742507,34.23636650392439
3.29193079471685,1.7451447892073322,1531,-4,19.805480912742507,34.23636650392439
3.309377793078617,1.7451273418618518,1531,-4,19.805480912742507,34.23636650392439
3.326824617011324,1.745109894690804,1531,-4,19.805480912742507,34.23636650392439
3.344271266516723,1.745092447694187,1531,-4,19.805480912742507,34.23636650392439
3.361717741596562,1.745075000871999,1531,-4,19.805480912742507,34.23636650392439
3.3791640422525915,1.7450575542242384,1531,-4,19.805480912742507,34.23636650392439
3.3966101684865615,1.7450401077509032,1531,-4,19.805480912742507,34.23636650392439
3.4140561203002195,1.7450226614519917,1531,-4,19.805480912742507,34.23636650392439
3.4315018976953153,1.7450052153275024,1531,-4,19.805480912742507,34.23636650392439
3.448947500673597,1.7449877693774334,1531,-4,19.805480912742507,34.23636650392439
3.466392929236811,1.7449703236017828,1531,-4,19.805480912742507,34.23636650392439
3.4838381833867054,1.7449528780005492,1531,-4,19.805480912742507,34.23636650392439
3.501283263125028,1.7449354325737305,1531,-4,19.805480912742507,34.23636650392439
3.5187281684535243,1.7449179873213252,1531,-4,19.805480912742507,34.23636650392439
3.536172899373942,1.7449005422433315,1531,-4,19.805480912742507,34.23636650392439
3.5536174558880256,1.7448830973397476,1531,-4,19.805480912742507,34.23636650392439
3.571061837997523,1.7448656526105717,1531,-4,19.805480912742507,34.23636650392439
3.58850604570418,1.744848208055802,1531,-4,19.805480912742507,34.23636650392439
3.605950079009743,1.744830763675437,1531,-4,19.805480912742507,34.23636650392439
3.6233939379159565,1.7448133194694748,1531,-4,19.805480912742507,34.23636650392439
3.6408376224245647,1.7447958754379136,1531,-4,19.805480912742507,34.23636650392439
3.658281132537314,1.744778431580752,1531,-4,19.805480912742507,34.23636650392439
3.675724468255949,1.7447609878979877,1531,-4,19.805480912742507,34.23636650392439
3.6931676295822156,1.7447435443896193,1531,-4,19.805480912742507,34.23636650392439
3.710610616517859,1.744726101055645,1531,-4,19.805480912742507,34.23636650392439
3.7280534290646212,1.744708657896063,1531,-4,19.805480912742507,34.23636650392439
3.74549606722425,1.7446912149108718,1531,-4,19.805480912742507,34.23636650392439
3.7629385309984884,1.7446737721000694,1531,-4,19.805480912742507,34.23636650392439
3.7803808203890803,1.7446563294636541,1531,-4,19.805480912742507,34.23636650392439
3.797822935397771,1.744638887001624,1531,-4,19.805480912742507,34.23636650392439
3.8152648760263035,1.7446214447139778,1531,-4,19.805480912742507,34.23636650392439
3.832706642276422,1.7446040026007132,1531,-4,19.805480912742507,34.23636650392439
3.850148234149872,1.744586560661829,1531,-4,19.805480912742507,34.23636650392439
3.8675896516483967,1.7445691188973231,1531,-4,19.805480912742507,34.23636650392439
3.8850308947737404,1.7445516773071938,1531,-4,19.805480912742507,34.23636650392439
3.902471963527646,1.7445342358914395,1531,-4,19.805480912742507,34.23636650392439
3.9199128579118576,1.7445167946500584,1531,-4,19.805480912742507,34.23636650392439
3.93735357792812,1.7444993535830486,1531,-4,19.805480912742507,34.23636650392439
3.954794123578176,1.7444819126904085,1531,-4,19.805480912742507,34.23636650392439
3.9722344948637693,1.7444644719721363,1531,-4,19.805480912742507,34.23636650392439
3.989674691786643,1.7444470314282303,1531,-4,19.805480912742507,34.23636650392439
4.007114714348542,1.7444295910586889,1531,-4,19.805480912742507,34.23636650392439
4.024554562551208,1.74441215086351,1531,-4,19.805480912742507,34.23636650392439
4.041994236396386,1.744394710842692,1531,-4,19.805480912742507,34.23636650392439
4.059433735885819,1.7443772709962335,1531,-4,19.805480912742507,34.23636650392439
4.07687306102125,1.7443598313241324,1531,-4,19.805480912742507,34.23636650392439
4.0943122118044215,1.744342391826387,1531,-4,19.805480912742507,34.23636650392439
4.111751188237079,1.7443249525029954,1531,-4,19.805480912742507,34.23636650392439
4.129189990320966,1.7443075133539563,1531,-4,19.805480912742507,34.23636650392439
4.146628618057823,1.7442900743792675,1531,-4,19.805480912742507,34.23636650392439
4.164067071449396,1.7442726355789275,1531,-4,19.805480912742507,34.23636650392439
