Vout,Iout,Irradiance,Temperature,MaxVoltage,MaxPower
0.007791155085047259,1.5582459999999998,1271,38,22.89471503836373,35.15212951157767
0.023373321189310216,1.5582459999999998,1271,38,22.89471503836373,35.15212951157767
0.03895517051204465,1.5582380530203148,1271,38,22.89471503836373,35.15212951157767
0.05453664646033538,1.5582224708542105,1271,38,22.89471503836373,35.15212951157767
0.07011773053863592,1.5582068890056824,1271,38,22.89471503836373,35.15212951157767
0.08569844091545202,1.5581913075312923,1271,38,22.89471503836373,35.15212951157767
0.10127879436201365,1.5581757264487723,1271,38,22.89471503836373,35.15212951157767
0.11685880635943846,1.5581601457399537,1271,38,22.89471503836373,35.15212951157767
0.13243849119782233,1.5581445653880652,1271,38,22.89471503836373,35.15212951157767
0.14801786206787862,1.5581289853776257,1271,38,22.89471503836373,35.15212951157767
0.1635969311455263,1.5581134056943455,1271,38,22.89471503836373,35.15212951157767
0.1791757096699695,1.5580978263250334,1271,38,22.89471503836373,35.15212951157767
0.1947542080157705,1.5580822472575138,1271,38,22.89471503836373,35.15212951157767
0.21033243575937607,1.558066668480547,1271,38,22.89471503836373,35.15212951157767
0.22591040174052587,1.5580510899837594,1271,38,22.89471503836373,35.15212951157767
0.24148811411893592,1.5580355117575735,1271,38,22.89471503836373,35.15212951157767
0.2570655804266207,1.5580199337931502,1271,38,22.89471503836373,35.15212951157767
0.27264280761618936,1.5580043560823298,1271,38,22.89471503836373,35.15212951157767
0.28821980210542625,1.55798877861758,1271,38,22.89471503836373,35.15212951157767
0.30379656981844105,1.557973201391948,1271,38,22.89471503836373,35.15212951157767
0.3193731162236529,1.5579576243990165,1271,38,22.89471503836373,35.15212951157767
0.3349494463688518,1.5579420476328611,1271,38,22.89471503836373,35.15212951157767
0.3505255649135631,1.5579264710880136,1271,38,22.89471503836373,35.15212951157767
0.3661014761589203,1.5579108947594262,1271,38,22.89471503836373,35.15212951157767
0.3816771840752407,1.5578953186424391,1271,38,22.89471503836373,35.15212951157767
0.397252692327479,1.5578797427327513,1271,38,22.89471503836373,35.15212951157767
0.4128280042987226,1.5578641670263926,1271,38,22.89471503836373,35.15212951157767
0.428403123111878,1.557848591519698,1271,38,22.89471503836373,35.15212951157767
0.4439780516496906,1.5578330162092844,1271,38,22.89471503836373,35.15212951157767
0.4595527925732227,1.5578174410920287,1271,38,22.89471503836373,35.15212951157767
0.4751273483389095,1.5578018661650486,1271,38,22.89471503836373,35.15212951157767
0.49070172121430455,1.5577862914256824,1271,38,22.89471503836373,35.15212951157767
0.5062759132926117,1.5577707168714743,1271,38,22.89471503836373,35.15212951157767
0.5218499265061001,1.5577551425001563,1271,38,22.89471503836373,35.15212951157767
0.5374237626384872,1.5577395683096356,1271,38,22.89471503836373,35.15212951157767
0.5529974233363679,1.5577239942979795,1271,38,22.89471503836373,35.15212951157767
0.5685709101197655,1.5577084204634044,1271,38,22.89471503836373,35.15212951157767
0.5841442243918693,1.557692846804264,1271,38,22.89471503836373,35.15212951157767
0.599717367448026,1.557677273319038,1271,38,22.89471503836373,35.15212951157767
0.6152903404840352,1.5576617000063233,1271,38,22.89471503836373,35.15212951157767
0.6308631446038095,1.5576461268648245,1271,38,22.89471503836373,35.15212951157767
0.6464357808264453,1.5576305538933457,1271,38,22.89471503836373,35.15212951157767
0.6620082500927468,1.5576149810907833,1271,38,22.89471503836373,35.15212951157767
0.6775805532712518,1.557599408456118,1271,38,22.89471503836373,35.15212951157767
0.6931526911637906,1.5575838359884089,1271,38,22.89471503836373,35.15212951157767
0.7087246645106197,1.5575682636867878,1271,38,22.89471503836373,35.15212951157767
0.7242964739951583,1.5575526915504525,1271,38,22.89471503836373,35.15212951157767
0.7398681202483625,1.5575371195786627,1271,38,22.89471503836373,35.15212951157767
0.7554396038527611,1.5575215477707356,1271,38,22.89471503836373,35.15212951157767
0.7710109253461822,1.5575059761260395,1271,38,22.89471503836373,35.15212951157767
0.7865820852251918,1.5574904046439924,1271,38,22.89471503836373,35.15212951157767
0.8021530839482697,1.557474833324056,1271,38,22.89471503836373,35.15212951157767
0.8177239219387386,1.5574592621657342,1271,38,22.89471503836373,35.15212951157767
0.8332945995874709,1.5574436911685683,1271,38,22.89471503836373,35.15212951157767
0.848865117255383,1.5574281203321347,1271,38,22.89471503836373,35.15212951157767
0.8644354752757425,1.5574125496560431,1271,38,22.89471503836373,35.15212951157767
0.8800056739562944,1.5573969791399325,1271,38,22.89471503836373,35.15212951157767
0.8955757135812249,1.557381408783469,1271,38,22.89471503836373,35.15212951157767
0.9111455944129746,1.5573658385863456,1271,38,22.89471503836373,35.15212951157767
0.9267153166939106,1.5573502685482776,1271,38,22.89471503836373,35.15212951157767
0.9422848806478719,1.5573346986690029,1271,38,22.89471503836373,35.15212951157767
0.9578542864815949,1.557319128948279,1271,38,22.89471503836373,35.15212951157767
0.9734235343860289,1.5573035593858822,1271,38,22.89471503836373,35.15212951157767
0.9889926245375512,1.5572879899816052,1271,38,22.89471503836373,35.15212951157767
1.0045615570990876,1.5572724207352577,1271,38,22.89471503836373,35.15212951157767
1.0201303322211486,1.5572568516466632,1271,38,22.89471503836373,35.15212951157767
1.0356989500427827,1.5572412827156585,1271,38,22.89471503836373,35.15212951157767
1.051267410692461,1.5572257139420935,1271,38,22.89471503836373,35.15212951157767
1.066835714288889,1.5572101453258287,1271,38,22.89471503836373,35.15212951157767
1.0824038609417574,1.557194576866736,1271,38,22.89471503836373,35.15212951157767
1.0979718507524383,1.5571790085646964,1271,38,22.89471503836373,35.15212951157767
1.1135396838146236,1.5571634404196004,1271,38,22.89471503836373,35.15212951157767
1.1291073602149155,1.5571478724313466,1271,38,22.89471503836373,35.15212951157767
1.1446748800333728,1.557132304599841,1271,38,22.89471503836373,35.15212951157767
1.160242243344014,1.5571167369249976,1271,38,22.89471503836373,35.15212951157767
1.1758094502152834,1.557101169406736,1271,38,22.89471503836373,35.15212951157767
1.1913765007104768,1.5570856020449821,1271,38,22.89471503836373,35.15212951157767
1.2069433948881412,1.5570700348396675,1271,38,22.89471503836373,35.15212951157767
1.222510132802438,1.5570544677907292,1271,38,22.89471503836373,35.15212951157767
1.2380767145034812,1.5570389008981083,1271,38,22.89471503836373,35.15212951157767
1.2536431400376484,1.5570233341617505,1271,38,22.89471503836373,35.15212951157767
1.2692094094478685,1.5570077675816063,1271,38,22.89471503836373,35.15212951157767
1.284775522773888,1.5569922011576287,1271,38,22.89471503836373,35.15212951157767
1.3003414800525135,1.5569766348897751,1271,38,22.89471503836373,35.15212951157767
1.3159072813178405,1.5569610687780058,1271,38,22.89471503836373,35.15212951157767
1.3314729266014602,1.5569455028222838,1271,38,22.89471503836373,35.15212951157767
1.3470384159326534,1.556929937022575,1271,38,22.89471503836373,35.15212951157767
1.3626037493385672,1.556914371378848,1271,38,22.89471503836373,35.15212951157767
1.3781689268443789,1.5568988058910735,1271,38,22.89471503836373,35.15212951157767
1.3937339484734501,1.5568832405592241,1271,38,22.89471503836373,35.15212951157767
1.4092988142474636,1.5568676753832749,1271,38,22.89471503836373,35.15212951157767
1.4248635241865533,1.5568521103632023,1271,38,22.89471503836373,35.15212951157767
1.4404280783094245,1.5568365454989848,1271,38,22.89471503836373,35.15212951157767
1.455992476633462,1.5568209807906022,1271,38,22.89471503836373,35.15212951157767
1.4715567191748335,1.5568054162380358,1271,38,22.89471503836373,35.15212951157767
1.487120805948582,1.5567898518412682,1271,38,22.89471503836373,35.15212951157767
1.5026847369687133,1.5567742876002832,1271,38,22.89471503836373,35.15212951157767
1.518248512248274,1.556758723515066,1271,38,22.89471503836373,35.15212951157767
1.5338121317994275,1.5567431595856023,1271,38,22.89471503836373,35.15212951157767
1.549375595633521,1.5567275958118791,1271,38,22.89471503836373,35.15212951157767
1.564938903761148,1.5567120321938843,1271,38,22.89471503836373,35.15212951157767
1.580502056192207,1.5566964687316067,1271,38,22.89471503836373,35.15212951157767
1.5960650529359537,1.5566809054250355,1271,38,22.89471503836373,35.15212951157767
1.611627894001053,1.5566653422741608,1271,38,22.89471503836373,35.15212951157767
1.627190579395621,1.5566497792789733,1271,38,22.89471503836373,35.15212951157767
1.6427531091272698,1.5566342164394644,1271,38,22.89471503836373,35.15212951157767
1.6583154832031455,1.5566186537556264,1271,38,22.89471503836373,35.15212951157767
1.6738777016299637,1.5566030912274509,1271,38,22.89471503836373,35.15212951157767
1.689439764414044,1.5565875288549313,1271,38,22.89471503836373,35.15212951157767
1.7050016715613379,1.5565719666380606,1271,38,22.89471503836373,35.15212951157767
1.7205634230774596,1.556556404576833,1271,38,22.89471503836373,35.15212951157767
1.7361250189677109,1.5565408426712417,1271,38,22.89471503836373,35.15212951157767
1.751686459237105,1.556525280921282,1271,38,22.89471503836373,35.15212951157767
1.7672477438903897,1.556509719326948,1271,38,22.89471503836373,35.15212951157767
1.7828088729320668,1.5564941578882345,1271,38,22.89471503836373,35.15212951157767
1.7983698463664106,1.5564785966051375,1271,38,22.89471503836373,35.15212951157767
1.813930664197487,1.5564630354776519,1271,38,22.89471503836373,35.15212951157767
1.829491326429169,1.5564474745057737,1271,38,22.89471503836373,35.15212951157767
1.8450518330651506,1.5564319136894988,1271,38,22.89471503836373,35.15212951157767
1.8606121841089616,1.556416353028823,1271,38,22.89471503836373,35.15212951157767
1.8761723795639804,1.5564007925237433,1271,38,22.89471503836373,35.15212951157767
1.8917324194334435,1.5563852321742555,1271,38,22.89471503836373,35.15212951157767
1.9072923037204599,1.5563696719803566,1271,38,22.89471503836373,35.15212951157767
1.9228520324280176,1.5563541119420432,1271,38,22.89471503836373,35.15212951157767
1.9384116055589946,1.556338552059312,1271,38,22.89471503836373,35.15212951157767
1.953971023116168,1.5563229923321606,1271,38,22.89471503836373,35.15212951157767
1.9695302851022205,1.5563074327605857,1271,38,22.89471503836373,35.15212951157767
1.9850893915197472,1.5562918733445843,1271,38,22.89471503836373,35.15212951157767
2.0006483423712647,1.5562763140841542,1271,38,22.89471503836373,35.15212951157767
2.016207137659213,1.5562607549792926,1271,38,22.89471503836373,35.15212951157767
2.0317657773859676,1.5562451960299972,1271,38,22.89471503836373,35.15212951157767
2.047324261553838,1.5562296372362652,1271,38,22.89471503836373,35.15212951157767
2.0628825901650765,1.5562140785980942,1271,38,22.89471503836373,35.15212951157767
2.078440763221883,1.5561985201154822,1271,38,22.89471503836373,35.15212951157767
2.0939987807264053,1.5561829617884269,1271,38,22.89471503836373,35.15212951157767
2.1095566426807473,1.556167403616926,1271,38,22.89471503836373,35.15212951157767
2.1251143490869713,1.5561518456009773,1271,38,22.89471503836373,35.15212951157767
2.140671899947098,1.5561362877405787,1271,38,22.89471503836373,35.15212951157767
2.156229295263115,1.5561207300357283,1271,38,22.89471503836373,35.15212951157767
2.1717865350369747,1.5561051724864239,1271,38,22.89471503836373,35.15212951157767
2.1873436192706004,1.5560896150926637,1271,38,22.89471503836373,35.15212951157767
2.202900547965885,1.5560740578544456,1271,38,22.89471503836373,35.15212951157767
2.218457321124698,1.5560585007717678,1271,38,22.89471503836373,35.15212951157767
2.2340139387488827,1.5560429438446282,1271,38,22.89471503836373,35.15212951157767
2.2495704008402604,1.556027387073025,1271,38,22.89471503836373,35.15212951157767
2.2651267074006327,1.5560118304569566,1271,38,22.89471503836373,35.15212951157767
2.280682858431782,1.5559962739964208,1271,38,22.89471503836373,35.15212951157767
2.296238853935473,1.5559807176914162,1271,38,22.89471503836373,35.15212951157767
2.311794693913454,1.5559651615419405,1271,38,22.89471503836373,35.15212951157767
2.3273503783674596,1.5559496055479927,1271,38,22.89471503836373,35.15212951157767
2.3429059072992082,1.5559340497095702,1271,38,22.89471503836373,35.15212951157767
2.358461280710407,1.5559184940266717,1271,38,22.89471503836373,35.15212951157767
2.374016498602753,1.5559029384992957,1271,38,22.89471503836373,35.15212951157767
2.389571560977929,1.55588738312744,1271,38,22.89471503836373,35.15212951157767
2.4051264678376114,1.5558718279111032,1271,38,22.89471503836373,35.15212951157767
2.4206812191834635,1.5558562728502836,1271,38,22.89471503836373,35.15212951157767
2.436235815017144,1.5558407179449794,1271,38,22.89471503836373,35.15212951157767
2.4517902553403004,1.5558251631951892,1271,38,22.89471503836373,35.15212951157767
2.4673445401545755,1.5558096086009108,1271,38,22.89471503836373,35.15212951157767
2.482898669461604,1.5557940541621431,1271,38,22.89471503836373,35.15212951157767
2.498452643263014,1.5557784998788844,1271,38,22.89471503836373,35.15212951157767
2.514006461560429,1.5557629457511328,1271,38,22.89471503836373,35.15212951157767
2.5295601243554677,1.5557473917788869,1271,38,22.89471503836373,35.15212951157767
2.545113631649742,1.5557318379621448,1271,38,22.89471503836373,35.15212951157767
2.56066698344486,1.5557162843009051,1271,38,22.89471503836373,35.15212951157767
2.576220179742428,1.5557007307951662,1271,38,22.89471503836373,35.15212951157767
2.5917732205440434,1.5556851774449265,1271,38,22.89471503836373,35.15212951157767
2.607326105851306,1.5556696242501844,1271,38,22.89471503836373,35.15212951157767
2.6228788356658073,1.555654071210938,1271,38,22.89471503836373,35.15212951157767
2.638431409989139,1.5556385183271861,1271,38,22.89471503836373,35.15212951157767
2.6539838288228887,1.5556229655989269,1271,38,22.89471503836373,35.15212951157767
2.669536092168642,1.5556074130261588,1271,38,22.89471503836373,35.15212951157767
2.685088200027981,1.5555918606088803,1271,38,22.89471503836373,35.15212951157767
2.7006401524024866,1.55557630834709,1271,38,22.89471503836373,35.15212951157767
2.7161919492937376,1.5555607562407858,1271,38,22.89471503836373,35.15212951157767
2.7317435907033105,1.5555452042899665,1271,38,22.89471503836373,35.15212951157767
2.747295076632782,1.5555296524946305,1271,38,22.89471503836373,35.15212951157767
2.762846407083723,1.5555141008547761,1271,38,22.89471503836373,35.15212951157767
2.778397582057706,1.5554985493704017,1271,38,22.89471503836373,35.15212951157767
2.7939486015563033,1.555482998041506,1271,38,22.89471503836373,35.15212951157767
2.8094994655810814,1.5554674468680871,1271,38,22.89471503836373,35.15212951157767
2.8250501741336107,1.5554518958501438,1271,38,22.89471503836373,35.15212951157767
2.840600727215458,1.555436344987674,1271,38,22.89471503836373,35.15212951157767
2.8561511248281892,1.5554207942806766,1271,38,22.89471503836373,35.15212951157767
2.871701366973369,1.55540524372915,1271,38,22.89471503836373,35.15212951157767
2.8872514536525626,1.5553896933330922,1271,38,22.89471503836373,35.15212951157767
2.9028013848673333,1.555374143092502,1271,38,22.89471503836373,35.15212951157767
2.9183511606192436,1.5553585930073779,1271,38,22.89471503836373,35.15212951157767
2.9339007809098554,1.5553430430777182,1271,38,22.89471503836373,35.15212951157767
2.9494502457407306,1.5553274933035213,1271,38,22.89471503836373,35.15212951157767
2.96499955511343,1.5553119436847855,1271,38,22.89471503836373,35.15212951157767
2.980548709029514,1.5552963942215097,1271,38,22.89471503836373,35.15212951157767
2.9960977074905424,1.555280844913692,1271,38,22.89471503836373,35.15212951157767
3.011646550498075,1.5552652957613309,1271,38,22.89471503836373,35.15212951157767
3.0271952380536704,1.5552497467644248,1271,38,22.89471503836373,35.15212951157767
3.042743770158888,1.5552341979229722,1271,38,22.89471503836373,35.15212951157767
3.0582921468152855,1.5552186492369715,1271,38,22.89471503836373,35.15212951157767
3.0738403680244204,1.555203100706421,1271,38,22.89471503836373,35.15212951157767
3.089388433787851,1.5551875523313197,1271,38,22.89471503836373,35.15212951157767
3.1049363441071356,1.5551720041116652,1271,38,22.89471503836373,35.15212951157767
3.120484098983829,1.5551564560474567,1271,38,22.89471503836373,35.15212951157767
3.136031698419489,1.5551409081386922,1271,38,22.89471503836373,35.15212951157767
3.151579142415674,1.5551253603853703,1271,38,22.89471503836373,35.15212951157767
3.167126430973938,1.5551098127874894,1271,38,22.89471503836373,35.15212951157767
3.182673564095839,1.5550942653450481,1271,38,22.89471503836373,35.15212951157767
3.1982205417829306,1.5550787180580445,1271,38,22.89471503836373,35.15212951157767
3.2137673640367708,1.5550631709264775,1271,38,22.89471503836373,35.15212951157767
3.229314030858915,1.555047623950345,1271,38,22.89471503836373,35.15212951157767
3.244860542250918,1.555032077129646,1271,38,22.89471503836373,35.15212951157767
3.260406898214336,1.5550165304643784,1271,38,22.89471503836373,35.15212951157767
3.275953098750723,1.5550009839545411,1271,38,22.89471503836373,35.15212951157767
3.2914991438616354,1.5549854376001324,1271,38,22.89471503836373,35.15212951157767
3.3070450335486283,1.5549698914011507,1271,38,22.89471503836373,35.15212951157767
3.322590767813256,1.5549543453575945,1271,38,22.89471503836373,35.15212951157767
3.3381363466570733,1.5549387994694621,1271,38,22.89471503836373,35.15212951157767
3.3536817700816353,1.554923253736752,1271,38,22.89471503836373,35.15212951157767
3.3692270380884968,1.5549077081594629,1271,38,22.89471503836373,35.15212951157767
3.384772150679212,1.554892162737593,1271,38,22.89471503836373,35.15212951157767
3.4003171078553356,1.5548766174711406,1271,38,22.89471503836373,35.15212951157767
3.415861909618421,1.5548610723601044,1271,38,22.89471503836373,35.15212951157767
3.4314065559700246,1.5548455274044828,1271,38,22.89471503836373,35.15212951157767
3.4469510469116993,1.5548299826042742,1271,38,22.89471503836373,35.15212951157767
3.4624953824450007,1.554814437959477,1271,38,22.89471503836373,35.15212951157767
3.478039562571481,1.5547988934700898,1271,38,22.89471503836373,35.15212951157767
3.4935835872926955,1.554783349136111,1271,38,22.89471503836373,35.15212951157767
3.509127456610199,1.554767804957539,1271,38,22.89471503836373,35.15212951157767
3.524671170525543,1.5547522609343722,1271,38,22.89471503836373,35.15212951157767
3.5402147290402843,1.554736717066609,1271,38,22.89471503836373,35.15212951157767
3.555758132155976,1.554721173354248,1271,38,22.89471503836373,35.15212951157767
3.5713013798741717,1.5547056297972879,1271,38,22.89471503836373,35.15212951157767
3.5868444721964248,1.5546900863957265,1271,38,22.89471503836373,35.15212951157767
3.60238740912429,1.5546745431495625,1271,38,22.89471503836373,35.15212951157767
3.6179301906593206,1.5546590000587948,1271,38,22.89471503836373,35.15212951157767
3.6334728168030703,1.5546434571234211,1271,38,22.89471503836373,35.15212951157767
3.649015287557093,1.5546279143434405,1271,38,22.89471503836373,35.15212951157767
3.664557602922944,1.554612371718851,1271,38,22.89471503836373,35.15212951157767
3.680099762902174,1.5545968292496513,1271,38,22.89471503836373,35.15212951157767
3.6956417674963387,1.5545812869358397,1271,38,22.89471503836373,35.15212951157767
3.7111836167069914,1.5545657447774146,1271,38,22.89471503836373,35.15212951157767
3.7267253105356852,1.5545502027743747,1271,38,22.89471503836373,35.15212951157767
3.742266848983974,1.5545346609267183,1271,38,22.89471503836373,35.15212951157767
