Vout,Iout,Irradiance,Temperature,MaxVoltage,MaxPower
0.00127048778377131,0.2541,231,-25,18.23962436873588,4.302090245922744
0.0038114398587923383,0.2541,231,-25,18.23962436873588,4.302090245922744
0.006352340276895012,0.25409870410221624,231,-25,18.23962436873588,4.302090245922744
0.008893179809587974,0.2540961631501412,231,-25,18.23962436873588,4.302090245922744
0.011433955440840141,0.2540936222498527,231,-25,18.23962436873588,4.302090245922744
0.013974670133352731,0.25409108141057407,231,-25,18.23962436873588,4.302090245922744
0.016515326621976037,0.2540885406351969,231,-25,18.23962436873588,4.302090245922744
0.01905592743118436,0.2540859999207585,231,-25,18.23962436873588,4.302090245922744
0.021596474891234535,0.25408345926452397,231,-25,18.23962436873588,4.302090245922744
0.024136971153109303,0.2540809186639688,231,-25,18.23962436873588,4.302090245922744
0.026677418202310947,0.2540783781167628,231,-25,18.23962436873588,4.302090245922744
0.029217817871593606,0.25407583762075503,231,-25,18.23962436873588,4.302090245922744
0.031758171852716,0.2540732971739599,231,-25,18.23962436873588,4.302090245922744
0.034298481707289774,0.25407075677454466,231,-25,18.23962436873588,4.302090245922744
0.03683874887679328,0.25406821642081756,231,-25,18.23962436873588,4.302090245922744
0.03937897469181478,0.254065676111217,231,-25,18.23962436873588,4.302090245922744
0.04191916038058452,0.25406313584430157,231,-25,18.23962436873588,4.302090245922744
0.04445930707685033,0.25406059561874056,231,-25,18.23962436873588,4.302090245922744
0.046999415827147194,0.25405805543330584,231,-25,18.23962436873588,4.302090245922744
0.04953948759750763,0.2540555152868636,231,-25,18.23962436873588,4.302090245922744
0.05207952327965558,0.2540529751783673,231,-25,18.23962436873588,4.302090245922744
0.05461952369672392,0.25405043510685094,231,-25,18.23962436873588,4.302090245922744
0.05715948960853189,0.25404789507142284,231,-25,18.23962436873588,4.302090245922744
0.059699421716456605,0.25404535507125975,231,-25,18.23962436873588,4.302090245922744
0.062239320667929615,0.25404281510560195,231,-25,18.23962436873588,4.302090245922744
0.06477918706058763,0.25404027517374805,231,-25,18.23962436873588,4.302090245922744
0.06731902144610376,0.2540377352750505,231,-25,18.23962436873588,4.302090245922744
0.06985882433372408,0.2540351954089119,231,-25,18.23962436873588,4.302090245922744
0.07239859619353196,0.2540326555747804,231,-25,18.23962436873588,4.302090245922744
0.07493833745946141,0.25403011577214674,231,-25,18.23962436873588,4.302090245922744
0.07747804853207832,0.2540275760005409,231,-25,18.23962436873588,4.302090245922744
0.08001772978114803,0.25402503625952894,231,-25,18.23962436873588,4.302090245922744
0.08255738154800502,0.25402249654871034,231,-25,18.23962436873588,4.302090245922744
0.08509700414774052,0.2540199568677152,231,-25,18.23962436873588,4.302090245922744
0.08763659787122163,0.25401741721620236,231,-25,18.23962436873588,4.302090245922744
0.09017616298695527,0.25401487759385655,231,-25,18.23962436873588,4.302090245922744
0.0927156997428085,0.25401233800038703,231,-25,18.23962436873588,4.302090245922744
0.09525520836759664,0.2540097984355253,231,-25,18.23962436873588,4.302090245922744
0.09779468907254912,0.25400725889902337,231,-25,18.23962436873588,4.302090245922744
0.10033414205266264,0.25400471939065256,231,-25,18.23962436873588,4.302090245922744
0.10287356748794992,0.2540021799102016,231,-25,18.23962436873588,4.302090245922744
0.1054129655445929,0.2539996404574754,231,-25,18.23962436873588,4.302090245922744
0.10795233637600671,0.25399710103229406,231,-25,18.23962436873588,4.302090245922744
0.11049168012382192,0.25399456163449136,231,-25,18.23962436873588,4.302090245922744
0.11303099691879147,0.2539920222639139,231,-25,18.23962436873588,4.302090245922744
0.11557028688162742,0.25398948292042,231,-25,18.23962436873588,4.302090245922744
0.11810955012377357,0.25398694360387897,231,-25,18.23962436873588,4.302090245922744
0.12064878674811863,0.2539844043141701,231,-25,18.23962436873588,4.302090245922744
0.12318799684965441,0.25398186505118187,231,-25,18.23962436873588,4.302090245922744
0.1257271805160834,0.2539793258148114,231,-25,18.23962436873588,4.302090245922744
0.12826633782837962,0.2539767866049638,231,-25,18.23962436873588,4.302090245922744
0.13080546886130642,0.25397424742155134,231,-25,18.23962436873588,4.302090245922744
0.1333445736838943,0.25397170826449295,231,-25,18.23962436873588,4.302090245922744
0.1358836523598818,0.2539691691337139,231,-25,18.23962436873588,4.302090245922744
0.13842270494812295,0.25396663002914527,231,-25,18.23962436873588,4.302090245922744
0.14096173150296307,0.2539640909507232,231,-25,18.23962436873588,4.302090245922744
0.14350073207458544,0.25396155189838887,231,-25,18.23962436873588,4.302090245922744
0.1460397067093317,0.25395901287208794,231,-25,18.23962436873588,4.302090245922744
0.14857865544999752,0.2539564738717702,231,-25,18.23962436873588,4.302090245922744
0.15111757833610526,0.2539539348973894,231,-25,18.23962436873588,4.302090245922744
0.15365647540415586,0.2539513959489026,231,-25,18.23962436873588,4.302090245922744
0.1561953466878614,0.2539488570262704,231,-25,18.23962436873588,4.302090245922744
0.1587341922183596,0.2539463181294562,231,-25,18.23962436873588,4.302090245922744
0.1612730120244119,0.2539437792584264,231,-25,18.23962436873588,4.302090245922744
0.16381180613258634,0.2539412404131498,231,-25,18.23962436873588,4.302090245922744
0.16635057456742633,0.25393870159359766,231,-25,18.23962436873588,4.302090245922744
0.1688893173516063,0.25393616279974335,231,-25,18.23962436873588,4.302090245922744
0.1714280345060757,0.2539336240315624,231,-25,18.23962436873588,4.302090245922744
0.17396672605019142,0.25393108528903213,231,-25,18.23962436873588,4.302090245922744
0.1765053920018409,0.2539285465721315,231,-25,18.23962436873588,4.302090245922744
0.17904403237755442,0.2539260078808413,231,-25,18.23962436873588,4.302090245922744
0.18158264719261008,0.25392346921514347,231,-25,18.23962436873588,4.302090245922744
0.18412123646113002,0.25392093057502163,231,-25,18.23962436873588,4.302090245922744
0.18665980019616932,0.25391839196046045,231,-25,18.23962436873588,4.302090245922744
0.18919833840979797,0.2539158533714458,231,-25,18.23962436873588,4.302090245922744
0.19173685111317695,0.25391331480796464,231,-25,18.23962436873588,4.302090245922744
0.19427533831662785,0.25391077627000486,231,-25,18.23962436873588,4.302090245922744
0.19681380002969792,0.25390823775755533,231,-25,18.23962436873588,4.302090245922744
0.19935223626121898,0.25390569927060574,231,-25,18.23962436873588,4.302090245922744
0.2018906470193631,0.25390316080914654,231,-25,18.23962436873588,4.302090245922744
0.20442903231169304,0.25390062237316885,231,-25,18.23962436873588,4.302090245922744
0.206967392145209,0.25389808396266456,231,-25,18.23962436873588,4.302090245922744
0.2095057265263924,0.25389554557762606,231,-25,18.23962436873588,4.302090245922744
0.21204403546124534,0.25389300721804636,231,-25,18.23962436873588,4.302090245922744
0.2145823189553275,0.25389046888391903,231,-25,18.23962436873588,4.302090245922744
0.2171205770137906,0.253887930575238,231,-25,18.23962436873588,4.302090245922744
0.2196588096414092,0.2538853922919978,231,-25,18.23962436873588,4.302090245922744
0.22219701684261017,0.25388285403419314,231,-25,18.23962436873588,4.302090245922744
0.22473519862149927,0.25388031580181936,231,-25,18.23962436873588,4.302090245922744
0.2272733549818859,0.25387777759487196,231,-25,18.23962436873588,4.302090245922744
0.22981148592730585,0.2538752394133469,231,-25,18.23962436873588,4.302090245922744
0.2323495914610423,0.2538727012572404,231,-25,18.23962436873588,4.302090245922744
0.2348876715861455,0.25387016312654875,231,-25,18.23962436873588,4.302090245922744
0.2374257263054504,0.2538676250212688,231,-25,18.23962436873588,4.302090245922744
0.2399637556215933,0.25386508694139753,231,-25,18.23962436873588,4.302090245922744
0.24250175953702738,0.25386254888693205,231,-25,18.23962436873588,4.302090245922744
0.24503973805403642,0.2538600108578697,231,-25,18.23962436873588,4.302090245922744
0.247577691174748,0.25385747285420807,231,-25,18.23962436873588,4.302090245922744
0.25011561890114553,0.25385493487594485,231,-25,18.23962436873588,4.302090245922744
0.25265352123507945,0.253852396923078,231,-25,18.23962436873588,4.302090245922744
0.25519139817827713,0.25384985899560536,231,-25,18.23962436873588,4.302090245922744
0.25772924973235267,0.2538473210935252,231,-25,18.23962436873588,4.302090245922744
0.2602670758988156,0.2538447832168358,231,-25,18.23962436873588,4.302090245922744
0.26280487667907865,0.2538422453655355,231,-25,18.23962436873588,4.302090245922744
0.26534265207446533,0.25383970753962287,231,-25,18.23962436873588,4.302090245922744
0.267880402086217,0.25383716973909637,231,-25,18.23962436873588,4.302090245922744
0.270418126715499,0.2538346319639548,231,-25,18.23962436873588,4.302090245922744
0.2729558259634063,0.2538320942141968,231,-25,18.23962436873588,4.302090245922744
0.2754934998309693,0.2538295564898213,231,-25,18.23962436873588,4.302090245922744
0.2780311483191589,0.25382701879082714,231,-25,18.23962436873588,4.302090245922744
0.2805687714288903,0.2538244811172134,231,-25,18.23962436873588,4.302090245922744
0.28310636916102816,0.25382194346897896,231,-25,18.23962436873588,4.302090245922744
0.28564394151639,0.253819405846123,231,-25,18.23962436873588,4.302090245922744
0.2881814884957498,0.25381686824864463,231,-25,18.23962436873588,4.302090245922744
0.29071901009984197,0.253814330676543,231,-25,18.23962436873588,4.302090245922744
0.29325650632936334,0.25381179312981744,231,-25,18.23962436873588,4.302090245922744
0.29579397718497696,0.25380925560846707,231,-25,18.23962436873588,4.302090245922744
0.2983314226673144,0.25380671811249134,231,-25,18.23962436873588,4.302090245922744
0.30086884277697806,0.2538041806418895,231,-25,18.23962436873588,4.302090245922744
0.30340623751454354,0.2538016431966609,231,-25,18.23962436873588,4.302090245922744
0.3059436068805616,0.2537991057768049,231,-25,18.23962436873588,4.302090245922744
0.30848095087556016,0.2537965683823211,231,-25,18.23962436873588,4.302090245922744
0.3110182695000462,0.25379403101320885,231,-25,18.23962436873588,4.302090245922744
0.31355556275450686,0.25379149366946757,231,-25,18.23962436873588,4.302090245922744
0.3160928306394116,0.25378895635109683,231,-25,18.23962436873588,4.302090245922744
0.31863007315521324,0.2537864190580961,231,-25,18.23962436873588,4.302090245922744
0.32116729030234914,0.25378388179046496,231,-25,18.23962436873588,4.302090245922744
0.32370448208124253,0.2537813445482029,231,-25,18.23962436873588,4.302090245922744
0.32624164849230375,0.2537788073313095,231,-25,18.23962436873588,4.302090245922744
0.3287787895359309,0.2537762701397843,231,-25,18.23962436873588,4.302090245922744
0.33131590521251103,0.25377373297362693,231,-25,18.23962436873588,4.302090245922744
0.333852995522421,0.253771195832837,231,-25,18.23962436873588,4.302090245922744
0.3363900604660279,0.25376865871741416,231,-25,18.23962436873588,4.302090245922744
0.3389271000436905,0.253766121627358,231,-25,18.23962436873588,4.302090245922744
0.34146411425575923,0.25376358456266807,231,-25,18.23962436873588,4.302090245922744
0.3440011031025769,0.25376104752334416,231,-25,18.23962436873588,4.302090245922744
0.34653806658448,0.2537585105093858,231,-25,18.23962436873588,4.302090245922744
0.34907500470179803,0.25375597352079265,231,-25,18.23962436873588,4.302090245922744
0.3516119174548548,0.25375343655756444,231,-25,18.23962436873588,4.302090245922744
0.3541488048439691,0.2537508996197008,231,-25,18.23962436873588,4.302090245922744
0.35668566686945435,0.25374836270720147,231,-25,18.23962436873588,4.302090245922744
0.35922250353161933,0.25374582582006605,231,-25,18.23962436873588,4.302090245922744
0.36175931483076873,0.2537432889582943,231,-25,18.23962436873588,4.302090245922744
0.36429610076720315,0.2537407521218858,231,-25,18.23962436873588,4.302090245922744
0.36683286134121984,0.25373821531084034,231,-25,18.23962436873588,4.302090245922744
0.36936959655311224,0.2537356785251576,231,-25,18.23962436873588,4.302090245922744
0.37190630640317135,0.25373314176483724,231,-25,18.23962436873588,4.302090245922744
0.37444299089168465,0.25373060502987904,231,-25,18.23962436873588,4.302090245922744
0.3769796500189373,0.25372806832028266,231,-25,18.23962436873588,4.302090245922744
0.379516283785212,0.25372553163604783,231,-25,18.23962436873588,4.302090245922744
0.3820528921907895,0.2537229949771742,231,-25,18.23962436873588,4.302090245922744
0.3845894752359477,0.25372045834366164,231,-25,18.23962436873588,4.302090245922744
0.3871260329209634,0.2537179217355097,231,-25,18.23962436873588,4.302090245922744
0.3896625652461112,0.2537153851527182,231,-25,18.23962436873588,4.302090245922744
0.3921990722116643,0.25371284859528687,231,-25,18.23962436873588,4.302090245922744
0.3947355538178941,0.25371031206321537,231,-25,18.23962436873588,4.302090245922744
0.39727201006507085,0.2537077755565035,231,-25,18.23962436873588,4.302090245922744
0.39980844095346335,0.2537052390751509,231,-25,18.23962436873588,4.302090245922744
0.40234484648333946,0.25370270261915734,231,-25,18.23962436873588,4.302090245922744
0.40488122665496573,0.25370016618852265,231,-25,18.23962436873588,4.302090245922744
0.4074175814686077,0.2536976297832464,231,-25,18.23962436873588,4.302090245922744
0.4099539109245301,0.2536950934033284,231,-25,18.23962436873588,4.302090245922744
0.4124902150229968,0.2536925570487684,231,-25,18.23962436873588,4.302090245922744
0.4150264937642707,0.25369002071956614,231,-25,18.23962436873588,4.302090245922744
0.41756274714861413,0.2536874844157213,231,-25,18.23962436873588,4.302090245922744
0.4200989751762887,0.25368494813723363,231,-25,18.23962436873588,4.302090245922744
0.42263517784755544,0.25368241188410295,231,-25,18.23962436873588,4.302090245922744
0.4251713551626747,0.2536798756563289,231,-25,18.23962436873588,4.302090245922744
0.4277075071219064,0.25367733945391124,231,-25,18.23962436873588,4.302090245922744
0.43024363372550983,0.25367480327684977,231,-25,18.23962436873588,4.302090245922744
0.43277973497374395,0.2536722671251441,231,-25,18.23962436873588,4.302090245922744
0.4353158108668672,0.25366973099879414,231,-25,18.23962436873588,4.302090245922744
0.4378518614051378,0.25366719489779954,231,-25,18.23962436873588,4.302090245922744
0.4403878865888135,0.25366465882216005,231,-25,18.23962436873588,4.302090245922744
0.44292388641815167,0.2536621227718754,231,-25,18.23962436873588,4.302090245922744
0.4454598608934095,0.2536595867469453,231,-25,18.23962436873588,4.302090245922744
0.4479958100148438,0.25365705074736955,231,-25,18.23962436873588,4.302090245922744
0.4505317337827111,0.25365451477314793,231,-25,18.23962436873588,4.302090245922744
0.45306763219726776,0.2536519788242801,231,-25,18.23962436873588,4.302090245922744
0.4556035052587699,0.2536494429007658,231,-25,18.23962436873588,4.302090245922744
0.4581393529674734,0.25364690700260484,231,-25,18.23962436873588,4.302090245922744
0.46067517532363395,0.25364437112979693,231,-25,18.23962436873588,4.302090245922744
0.46321097232750724,0.2536418352823418,231,-25,18.23962436873588,4.302090245922744
0.46574674397934845,0.2536392994602392,231,-25,18.23962436873588,4.302090245922744
0.4682824902794129,0.253636763663489,231,-25,18.23962436873588,4.302090245922744
0.4708182112279557,0.2536342278920907,231,-25,18.23962436873588,4.302090245922744
0.4733539068252318,0.2536316921460442,231,-25,18.23962436873588,4.302090245922744
0.47588957707149615,0.2536291564253492,231,-25,18.23962436873588,4.302090245922744
0.4784252219670033,0.2536266207300055,231,-25,18.23962436873588,4.302090245922744
0.480960841512008,0.2536240850600128,231,-25,18.23962436873588,4.302090245922744
0.4834964357067647,0.2536215494153709,231,-25,18.23962436873588,4.302090245922744
0.4860320045515279,0.2536190137960795,231,-25,18.23962436873588,4.302090245922744
0.488567548046552,0.2536164782021383,231,-25,18.23962436873588,4.302090245922744
0.4911030661920913,0.2536139426335471,231,-25,18.23962436873588,4.302090245922744
0.49363855898840003,0.2536114070903056,231,-25,18.23962436873588,4.302090245922744
0.49617402643573233,0.25360887157241363,231,-25,18.23962436873588,4.302090245922744
0.4987094685343424,0.2536063360798709,231,-25,18.23962436873588,4.302090245922744
0.501244885284484,0.2536038006126771,231,-25,18.23962436873588,4.302090245922744
0.5037802766864116,0.25360126517083204,231,-25,18.23962436873588,4.302090245922744
0.5063156427403787,0.25359872975433545,231,-25,18.23962436873588,4.302090245922744
0.5088509834466394,0.2535961943631871,231,-25,18.23962436873588,4.302090245922744
0.5113862988054476,0.2535936589973866,231,-25,18.23962436873588,4.302090245922744
0.5139215888170571,0.2535911236569339,231,-25,18.23962436873588,4.302090245922744
0.5164568534817217,0.2535885883418286,231,-25,18.23962436873588,4.302090245922744
0.518992092799695,0.25358605305207055,231,-25,18.23962436873588,4.302090245922744
0.5215273067712312,0.2535835177876594,231,-25,18.23962436873588,4.302090245922744
0.5240624953965833,0.253580982548595,231,-25,18.23962436873588,4.302090245922744
0.5265976586760058,0.253578447334877,231,-25,18.23962436873588,4.302090245922744
0.5291327966097519,0.25357591214650516,231,-25,18.23962436873588,4.302090245922744
0.5316679091980753,0.25357337698347926,231,-25,18.23962436873588,4.302090245922744
0.5342029964412294,0.25357084184579903,231,-25,18.23962436873588,4.302090245922744
0.5367380583394681,0.2535683067334642,231,-25,18.23962436873588,4.302090245922744
0.539273094893045,0.2535657716464746,231,-25,18.23962436873588,4.302090245922744
0.5418081061022133,0.2535632365848299,231,-25,18.23962436873588,4.302090245922744
0.5443430919672269,0.2535607015485298,231,-25,18.23962436873588,4.302090245922744
0.5468780524883392,0.2535581665375741,231,-25,18.23962436873588,4.302090245922744
0.5494129876658037,0.2535556315519626,231,-25,18.23962436873588,4.302090245922744
0.551947897499874,0.253553096591695,231,-25,18.23962436873588,4.302090245922744
0.5544827819908037,0.25355056165677103,231,-25,18.23962436873588,4.302090245922744
0.5570176411388459,0.25354802674719046,231,-25,18.23962436873588,4.302090245922744
0.5595524749442544,0.253545491862953,231,-25,18.23962436873588,4.302090245922744
0.5620872834072825,0.2535429570040585,231,-25,18.23962436873588,4.302090245922744
0.5646220665281836,0.25354042217050654,231,-25,18.23962436873588,4.302090245922744
0.5671568243072113,0.253537887362297,231,-25,18.23962436873588,4.302090245922744
0.5696915567446188,0.2535353525794296,231,-25,18.23962436873588,4.302090245922744
0.5722262638406598,0.25353281782190407,231,-25,18.23962436873588,4.302090245922744
0.5747609455955874,0.25353028308972014,231,-25,18.23962436873588,4.302090245922744
0.5772956020096555,0.25352774838287756,231,-25,18.23962436873588,4.302090245922744
0.5798302330831169,0.2535252137013761,231,-25,18.23962436873588,4.302090245922744
0.5823648388162254,0.2535226790452155,231,-25,18.23962436873588,4.302090245922744
0.5848994192092343,0.2535201444143955,231,-25,18.23962436873588,4.302090245922744
0.5874339742623971,0.25351760980891586,231,-25,18.23962436873588,4.302090245922744
0.5899685039759669,0.2535150752287763,231,-25,18.23962436873588,4.302090245922744
0.5925030083501972,0.2535125406739766,231,-25,18.23962436873588,4.302090245922744
0.5950374873853413,0.2535100061445165,231,-25,18.23962436873588,4.302090245922744
0.5975719410816527,0.2535074716403957,231,-25,18.23962436873588,4.302090245922744
0.6001063694393848,0.25350493716161404,231,-25,18.23962436873588,4.302090245922744
0.6026407724587908,0.25350240270817115,231,-25,18.23962436873588,4.302090245922744
