Vout,Iout,Irradiance,Temperature,MaxVoltage,MaxPower
0.006994262747473582,1.398866,1141,38,22.879852138341406,31.4829859677369
0.020982658911882737,1.398866,1141,38,22.879852138341406,31.4829859677369
0.03497077069570649,1.3988588658506524,1141,38,22.879852138341406,31.4829859677369
0.04895854729444743,1.3988448774544882,1141,38,22.879852138341406,31.4829859677369
0.0629459721043144,1.3988308893434176,1141,38,22.879852138341406,31.4829859677369
0.07693306143550807,1.3988169015682177,1141,38,22.879852138341406,31.4829859677369
0.09091983034386905,1.3988029141448066,1141,38,22.879852138341406,31.4829859677369
0.10490629272708045,1.3987889270568743,1141,38,22.879852138341406,31.4829859677369
0.11889246141362338,1.3987749402893646,1141,38,22.879852138341406,31.4829859677369
0.1328783482450429,1.39876095382838,1141,38,22.879852138341406,31.4829859677369
0.14686396415188474,1.3987469676610922,1141,38,22.879852138341406,31.4829859677369
0.16084931922378856,1.3987329817756595,1141,38,22.879852138341406,31.4829859677369
0.174834422774189,1.3987189961611513,1141,38,22.879852138341406,31.4829859677369
0.18881928340003787,1.3987050108074779,1141,38,22.879852138341406,31.4829859677369
0.2028039090369316,1.3986910257053262,1141,38,22.879852138341406,31.4829859677369
0.2167883070099968,1.398677040846099,1141,38,22.879852138341406,31.4829859677369
0.23077248408086098,1.3986630562218605,1141,38,22.879852138341406,31.4829859677369
0.24475644649100878,1.398649071825286,1141,38,22.879852138341406,31.4829859677369
0.25874020000180287,1.3986350876496134,1141,38,22.879852138341406,31.4829859677369
0.2727237499314251,1.3986211036886018,1141,38,22.879852138341406,31.4829859677369
0.2867071011889757,1.3986071199364893,1141,38,22.879852138341406,31.4829859677369
0.30069025830594825,1.3985931363879582,1141,38,22.879852138341406,31.4829859677369
0.31467322546528376,1.3985791530380989,1141,38,22.879852138341406,31.4829859677369
0.32865600652818894,1.3985651698823804,1141,38,22.879852138341406,31.4829859677369
0.34263860505889043,1.3985511869166194,1141,38,22.879852138341406,31.4829859677369
0.35662102434748516,1.3985372041369548,1141,38,22.879852138341406,31.4829859677369
0.3706032674310326,1.3985232215398224,1141,38,22.879852138341406,31.4829859677369
0.3845853371130235,1.398509239121932,1141,38,22.879852138341406,31.4829859677369
0.3985672359813511,1.3984952568802467,1141,38,22.879852138341406,31.4829859677369
0.41254896642489947,1.398481274811963,1141,38,22.879852138341406,31.4829859677369
0.426530530648856,1.398467292914493,1141,38,22.879852138341406,31.4829859677369
0.44051193068884476,1.3984533111854476,1141,38,22.879852138341406,31.4829859677369
0.45449316842397336,1.3984393296226219,1141,38,22.879852138341406,31.4829859677369
0.46847424558887535,1.39842534822398,1141,38,22.879852138341406,31.4829859677369
0.4824551637848262,1.398411366987643,1141,38,22.879852138341406,31.4829859677369
0.4964359244900046,1.3983973859118763,1141,38,22.879852138341406,31.4829859677369
0.5104165290689633,1.3983834049950785,1141,38,22.879852138341406,31.4829859677369
0.5243969787813715,1.3983694242357714,1141,38,22.879852138341406,31.4829859677369
0.5383772747900849,1.3983554436325905,1141,38,22.879852138341406,31.4829859677369
0.5523574181685951,1.398341463184276,1141,38,22.879852138341406,31.4829859677369
0.5663374099079048,1.3983274828896655,1141,38,22.879852138341406,31.4829859677369
0.5803172509228751,1.398313502747685,1141,38,22.879852138341406,31.4829859677369
0.5942969420580835,1.3982995227573438,1141,38,22.879852138341406,31.4829859677369
0.6082764840932323,1.3982855429177268,1141,38,22.879852138341406,31.4829859677369
0.6222558777481393,1.3982715632279896,1141,38,22.879852138341406,31.4829859677369
0.6362351236873461,1.3982575836873523,1141,38,22.879852138341406,31.4829859677369
0.6502142225243711,1.3982436042950954,1141,38,22.879852138341406,31.4829859677369
0.6641931748256347,1.3982296250505541,1141,38,22.879852138341406,31.4829859677369
0.6781719811140837,1.3982156459531152,1141,38,22.879852138341406,31.4829859677369
0.6921506418725366,1.3982016670022117,1141,38,22.879852138341406,31.4829859677369
0.7061291575467693,1.3981876881973212,1141,38,22.879852138341406,31.4829859677369
0.720107528548368,1.3981737095379607,1141,38,22.879852138341406,31.4829859677369
0.7340857552573571,1.3981597310236844,1141,38,22.879852138341406,31.4829859677369
0.7480638380246297,1.3981457526540806,1141,38,22.879852138341406,31.4829859677369
0.7620417771741873,1.3981317744287696,1141,38,22.879852138341406,31.4829859677369
0.7760195730052103,1.3981177963474,1141,38,22.879852138341406,31.4829859677369
0.7899972257939669,1.3981038184096484,1141,38,22.879852138341406,31.4829859677369
0.8039747357955764,1.3980898406152151,1141,38,22.879852138341406,31.4829859677369
0.8179521032456364,1.3980758629638241,1141,38,22.879852138341406,31.4829859677369
0.8319293283617245,1.3980618854552203,1141,38,22.879852138341406,31.4829859677369
0.8459064113447851,1.398047908089168,1141,38,22.879852138341406,31.4829859677369
0.8598833523804089,1.3980339308654497,1141,38,22.879852138341406,31.4829859677369
0.8738601516400148,1.3980199537838645,1141,38,22.879852138341406,31.4829859677369
0.8878368092819401,1.3980059768442263,1141,38,22.879852138341406,31.4829859677369
0.9018133254524461,1.3979920000463646,1141,38,22.879852138341406,31.4829859677369
0.9157897002866484,1.3979780233901202,1141,38,22.879852138341406,31.4829859677369
0.9297659339093746,1.3979640468753476,1141,38,22.879852138341406,31.4829859677369
0.9437420264359546,1.397950070501911,1141,38,22.879852138341406,31.4829859677369
0.9577179779729521,1.397936094269686,1141,38,22.879852138341406,31.4829859677369
0.9716937886188397,1.3979221181785568,1141,38,22.879852138341406,31.4829859677369
0.9856694584646204,1.3979081422284176,1141,38,22.879852138341406,31.4829859677369
0.9996449875944027,1.3978941664191693,1141,38,22.879852138341406,31.4829859677369
1.0136203760859315,1.397880190750721,1141,38,22.879852138341406,31.4829859677369
1.0275956240110768,1.3978662152229888,1141,38,22.879852138341406,31.4829859677369
1.0415707314362868,1.397852239835895,1141,38,22.879852138341406,31.4829859677369
1.0555456984230043,1.3978382645893674,1141,38,22.879852138341406,31.4829859677369
1.0695205250280522,1.3978242894833397,1141,38,22.879852138341406,31.4829859677369
1.0834952113039886,1.3978103145177505,1141,38,22.879852138341406,31.4829859677369
1.0974697572994352,1.397796339692543,1141,38,22.879852138341406,31.4829859677369
1.11144416305938,1.3977823650076644,1141,38,22.879852138341406,31.4829859677369
1.125418428625458,1.3977683904630664,1141,38,22.879852138341406,31.4829859677369
1.1393925540362064,1.397754416058704,1141,38,22.879852138341406,31.4829859677369
1.1533665393273065,1.3977404417945354,1141,38,22.879852138341406,31.4829859677369
1.1673403845318004,1.397726467670522,1141,38,22.879852138341406,31.4829859677369
1.1813140896802963,1.3977124936866285,1141,38,22.879852138341406,31.4829859677369
1.195287654801154,1.3976985198428213,1141,38,22.879852138341406,31.4829859677369
1.2092610799206591,1.3976845461390703,1141,38,22.879852138341406,31.4829859677369
1.2232343650631825,1.3976705725753469,1141,38,22.879852138341406,31.4829859677369
1.2372075102513267,1.3976565991516248,1141,38,22.879852138341406,31.4829859677369
1.2511805155060636,1.3976426258678796,1141,38,22.879852138341406,31.4829859677369
1.2651533808468578,1.3976286527240886,1141,38,22.879852138341406,31.4829859677369
1.279126106291784,1.3976146797202313,1141,38,22.879852138341406,31.4829859677369
1.2930986918576344,1.397600706856288,1141,38,22.879852138341406,31.4829859677369
1.3070711375600161,1.39758673413224,1141,38,22.879852138341406,31.4829859677369
1.3210434434134424,1.3975727615480715,1141,38,22.879852138341406,31.4829859677369
1.3350156094314178,1.3975587891037664,1141,38,22.879852138341406,31.4829859677369
1.3489876356265156,1.3975448167993103,1141,38,22.879852138341406,31.4829859677369
1.3629595220104482,1.3975308446346897,1141,38,22.879852138341406,31.4829859677369
1.3769312685941355,1.3975168726098917,1141,38,22.879852138341406,31.4829859677369
1.3909028753877632,1.3975029007249051,1141,38,22.879852138341406,31.4829859677369
1.4048743424008416,1.3974889289797185,1141,38,22.879852138341406,31.4829859677369
1.4188456696422564,1.3974749573743221,1141,38,22.879852138341406,31.4829859677369
1.432816857120317,1.3974609859087062,1141,38,22.879852138341406,31.4829859677369
1.4467879048428016,1.397447014582862,1141,38,22.879852138341406,31.4829859677369
1.4607588128169968,1.397433043396781,1141,38,22.879852138341406,31.4829859677369
1.4747295810497356,1.3974190723504556,1141,38,22.879852138341406,31.4829859677369
1.4887002095474342,1.3974051014438786,1141,38,22.879852138341406,31.4829859677369
1.5026706983161202,1.397391130677043,1141,38,22.879852138341406,31.4829859677369
1.5166410473614664,1.3973771600499423,1141,38,22.879852138341406,31.4829859677369
1.530611256688817,1.3973631895625707,1141,38,22.879852138341406,31.4829859677369
1.544581326303211,1.3973492192149224,1141,38,22.879852138341406,31.4829859677369
1.5585512562094088,1.3973352490069921,1141,38,22.879852138341406,31.4829859677369
1.5725210464119097,1.3973212789387748,1141,38,22.879852138341406,31.4829859677369
1.5864906969149761,1.3973073090102657,1141,38,22.879852138341406,31.4829859677369
1.6004602077226497,1.3972933392214602,1141,38,22.879852138341406,31.4829859677369
1.6144295788387681,1.397279369572354,1141,38,22.879852138341406,31.4829859677369
1.628398810266981,1.3972654000629434,1141,38,22.879852138341406,31.4829859677369
1.6423679020107649,1.3972514306932242,1141,38,22.879852138341406,31.4829859677369
1.656336854073436,1.397237461463193,1141,38,22.879852138341406,31.4829859677369
1.6703056664581635,1.3972234923728462,1141,38,22.879852138341406,31.4829859677369
1.6842743391679795,1.3972095234221804,1141,38,22.879852138341406,31.4829859677369
1.6982428722057905,1.3971955546111925,1141,38,22.879852138341406,31.4829859677369
1.7122112655743862,1.3971815859398795,1141,38,22.879852138341406,31.4829859677369
1.7261795192764497,1.3971676174082386,1141,38,22.879852138341406,31.4829859677369
1.7401476333145656,1.397153649016267,1141,38,22.879852138341406,31.4829859677369
1.7541156076912257,1.3971396807639618,1141,38,22.879852138341406,31.4829859677369
1.7680834424088385,1.3971257126513206,1141,38,22.879852138341406,31.4829859677369
1.7820511374697343,1.3971117446783405,1141,38,22.879852138341406,31.4829859677369
1.7960186928761712,1.39709777684502,1141,38,22.879852138341406,31.4829859677369
1.8099861086303406,1.3970838091513558,1141,38,22.879852138341406,31.4829859677369
1.8239533847343743,1.3970698415973462,1141,38,22.879852138341406,31.4829859677369
1.837920521190346,1.3970558741829886,1141,38,22.879852138341406,31.4829859677369
1.8518875180002776,1.3970419069082813,1141,38,22.879852138341406,31.4829859677369
1.8658543751661436,1.3970279397732221,1141,38,22.879852138341406,31.4829859677369
1.879821092689873,1.397013972777809,1141,38,22.879852138341406,31.4829859677369
1.893787670573354,1.3970000059220398,1141,38,22.879852138341406,31.4829859677369
1.907754108818437,1.3969860392059128,1141,38,22.879852138341406,31.4829859677369
1.9217204074269385,1.396972072629426,1141,38,22.879852138341406,31.4829859677369
1.9356865664006404,1.3969581061925775,1141,38,22.879852138341406,31.4829859677369
1.9496525857412967,1.3969441398953657,1141,38,22.879852138341406,31.4829859677369
1.9636184654506328,1.3969301737377886,1141,38,22.879852138341406,31.4829859677369
1.9775842055303499,1.3969162077198447,1141,38,22.879852138341406,31.4829859677369
1.991549805982124,1.396902241841532,1141,38,22.879852138341406,31.4829859677369
2.0055152668076115,1.3968882761028487,1141,38,22.879852138341406,31.4829859677369
2.0194805880084474,1.3968743105037937,1141,38,22.879852138341406,31.4829859677369
2.0334457695862485,1.3968603450443646,1141,38,22.879852138341406,31.4829859677369
2.047410811542614,1.3968463797245605,1141,38,22.879852138341406,31.4829859677369
2.0613757138791295,1.3968324145443791,1141,38,22.879852138341406,31.4829859677369
2.075340476597365,1.3968184495038194,1141,38,22.879852138341406,31.4829859677369
2.0893050996988753,1.3968044846028793,1141,38,22.879852138341406,31.4829859677369
2.103269583185205,1.3967905198415576,1141,38,22.879852138341406,31.4829859677369
2.117233927057887,1.3967765552198526,1141,38,22.879852138341406,31.4829859677369
2.1311981313184423,1.3967625907377628,1141,38,22.879852138341406,31.4829859677369
2.145162195968384,1.3967486263952866,1141,38,22.879852138341406,31.4829859677369
2.159126121009215,1.3967346621924224,1141,38,22.879852138341406,31.4829859677369
2.173089906442432,1.3967206981291689,1141,38,22.879852138341406,31.4829859677369
2.18705355226952,1.3967067342055246,1141,38,22.879852138341406,31.4829859677369
2.2010170584919604,1.3966927704214878,1141,38,22.879852138341406,31.4829859677369
2.2149804251112273,1.396678806777057,1141,38,22.879852138341406,31.4829859677369
2.228943652128787,1.3966648432722308,1141,38,22.879852138341406,31.4829859677369
2.242906739546104,1.396650879907008,1141,38,22.879852138341406,31.4829859677369
2.2568696873646337,1.3966369166813868,1141,38,22.879852138341406,31.4829859677369
2.2708324955858283,1.3966229535953658,1141,38,22.879852138341406,31.4829859677369
2.284795164211136,1.3966089906489436,1141,38,22.879852138341406,31.4829859677369
2.298757693242002,1.3965950278421189,1141,38,22.879852138341406,31.4829859677369
2.3127200826798657,1.3965810651748898,1141,38,22.879852138341406,31.4829859677369
2.326682332526163,1.3965671026472553,1141,38,22.879852138341406,31.4829859677369
2.340644442782328,1.3965531402592135,1141,38,22.879852138341406,31.4829859677369
2.3546064134497917,1.3965391780107634,1141,38,22.879852138341406,31.4829859677369
2.3685682445299823,1.3965252159019035,1141,38,22.879852138341406,31.4829859677369
2.3825299360243233,1.3965112539326323,1141,38,22.879852138341406,31.4829859677369
2.3964914879342403,1.3964972921029484,1141,38,22.879852138341406,31.4829859677369
2.4104529002611526,1.3964833304128503,1141,38,22.879852138341406,31.4829859677369
2.4244141730064803,1.3964693688623364,1141,38,22.879852138341406,31.4829859677369
2.43837530617164,1.3964554074514057,1141,38,22.879852138341406,31.4829859677369
2.4523362997580462,1.3964414461800565,1141,38,22.879852138341406,31.4829859677369
2.4662971537671146,1.3964274850482876,1141,38,22.879852138341406,31.4829859677369
2.480257868200257,1.3964135240560973,1141,38,22.879852138341406,31.4829859677369
2.494218443058884,1.3963995632034842,1141,38,22.879852138341406,31.4829859677369
2.5081788783444066,1.3963856024904473,1141,38,22.879852138341406,31.4829859677369
2.5221391740582324,1.3963716419169847,1141,38,22.879852138341406,31.4829859677369
2.5360993302017705,1.3963576814830954,1141,38,22.879852138341406,31.4829859677369
2.5500593467764263,1.3963437211887775,1141,38,22.879852138341406,31.4829859677369
2.564019223783607,1.39632976103403,1141,38,22.879852138341406,31.4829859677369
2.5779789612247166,1.3963158010188514,1141,38,22.879852138341406,31.4829859677369
2.59193855910116,1.3963018411432402,1141,38,22.879852138341406,31.4829859677369
2.605898017414341,1.396287881407195,1141,38,22.879852138341406,31.4829859677369
2.6198573361656625,1.3962739218107147,1141,38,22.879852138341406,31.4829859677369
2.6338165153565267,1.3962599623537975,1141,38,22.879852138341406,31.4829859677369
2.647775554988335,1.396246003036442,1141,38,22.879852138341406,31.4829859677369
2.661734455062489,1.396232043858647,1141,38,22.879852138341406,31.4829859677369
2.67569321558039,1.3962180848204113,1141,38,22.879852138341406,31.4829859677369
2.689651836543437,1.396204125921733,1141,38,22.879852138341406,31.4829859677369
2.7036103179530317,1.3961901671626111,1141,38,22.879852138341406,31.4829859677369
2.7175686598105737,1.3961762085430438,1141,38,22.879852138341406,31.4829859677369
2.73152686211746,1.3961622500630302,1141,38,22.879852138341406,31.4829859677369
2.745484924875092,1.3961482917225685,1141,38,22.879852138341406,31.4829859677369
2.7594428480848663,1.3961343335216574,1141,38,22.879852138341406,31.4829859677369
2.773400631748182,1.3961203754602958,1141,38,22.879852138341406,31.4829859677369
2.787358275866438,1.3961064175384816,1141,38,22.879852138341406,31.4829859677369
2.8013157804410307,1.3960924597562143,1141,38,22.879852138341406,31.4829859677369
2.815273145473359,1.3960785021134918,1141,38,22.879852138341406,31.4829859677369
2.829230370964819,1.396064544610313,1141,38,22.879852138341406,31.4829859677369
2.8431874569168087,1.3960505872466764,1141,38,22.879852138341406,31.4829859677369
2.857144403330725,1.3960366300225806,1141,38,22.879852138341406,31.4829859677369
2.8711012102079656,1.3960226729380245,1141,38,22.879852138341406,31.4829859677369
2.8850578775499263,1.3960087159930061,1141,38,22.879852138341406,31.4829859677369
2.899014405358004,1.3959947591875246,1141,38,22.879852138341406,31.4829859677369
2.9129707936335945,1.3959808025215785,1141,38,22.879852138341406,31.4829859677369
2.926927042378095,1.395966845995166,1141,38,22.879852138341406,31.4829859677369
2.9408831515929004,1.395952889608286,1141,38,22.879852138341406,31.4829859677369
2.954839121279408,1.3959389333609373,1141,38,22.879852138341406,31.4829859677369
2.9687949514390137,1.3959249772531181,1141,38,22.879852138341406,31.4829859677369
2.9827506420731127,1.3959110212848271,1141,38,22.879852138341406,31.4829859677369
2.9967061931831016,1.3958970654560632,1141,38,22.879852138341406,31.4829859677369
3.0106616047703754,1.3958831097668247,1141,38,22.879852138341406,31.4829859677369
3.0246168768363297,1.3958691542171102,1141,38,22.879852138341406,31.4829859677369
3.0385720093823614,1.3958551988069186,1141,38,22.879852138341406,31.4829859677369
3.0525270024098647,1.3958412435362482,1141,38,22.879852138341406,31.4829859677369
3.0664818559202356,1.3958272884050977,1141,38,22.879852138341406,31.4829859677369
3.080436569914869,1.3958133334134657,1141,38,22.879852138341406,31.4829859677369
3.0943911443951606,1.395799378561351,1141,38,22.879852138341406,31.4829859677369
3.1083455793625054,1.3957854238487517,1141,38,22.879852138341406,31.4829859677369
3.1222998748183,1.3957714692756669,1141,38,22.879852138341406,31.4829859677369
3.1362540307639377,1.395757514842095,1141,38,22.879852138341406,31.4829859677369
3.1502080472008145,1.3957435605480346,1141,38,22.879852138341406,31.4829859677369
3.1641619241303256,1.3957296063934845,1141,38,22.879852138341406,31.4829859677369
3.1781156615538655,1.395715652378443,1141,38,22.879852138341406,31.4829859677369
3.1920692594728295,1.395701698502909,1141,38,22.879852138341406,31.4829859677369
3.206022717888614,1.3956877447668807,1141,38,22.879852138341406,31.4829859677369
3.2199760368026116,1.3956737911703572,1141,38,22.879852138341406,31.4829859677369
3.2339292162162177,1.395659837713337,1141,38,22.879852138341406,31.4829859677369
3.2478822561308283,1.3956458843958182,1141,38,22.879852138341406,31.4829859677369
3.261835156547838,1.3956319312178,1141,38,22.879852138341406,31.4829859677369
3.275787917468641,1.3956179781792806,1141,38,22.879852138341406,31.4829859677369
3.2897405388946317,1.395604025280259,1141,38,22.879852138341406,31.4829859677369
3.3036930208272057,1.3955900725207335,1141,38,22.879852138341406,31.4829859677369
3.3176453632677583,1.3955761199007028,1141,38,22.879852138341406,31.4829859677369
3.331597566217683,1.3955621674201655,1141,38,22.879852138341406,31.4829859677369
3.3455496296783758,1.3955482150791203,1141,38,22.879852138341406,31.4829859677369
3.35950155365123,1.3955342628775655,1141,38,22.879852138341406,31.4829859677369
