Vout,Iout,Irradiance,Temperature,MaxVoltage,MaxPower
0.011641148065883983,2.328252,1921,31,22.38910547551857,51.62723469167696
0.03492322894180629,2.328252,1921,31,22.38910547551857,51.62723469167696
0.058204836498864085,2.328240126026734,1921,31,22.38910547551857,51.62723469167696
0.08148588617879898,2.3282168439458584,1921,31,22.38910547551857,51.62723469167696
0.10476635034650511,2.3281935623394885,1921,31,22.38910547551857,51.62723469167696
0.12804625614844065,2.3281702812921368,1921,31,22.38910547551857,51.62723469167696
0.15132562864332527,2.328147000830297,1921,31,22.38910547551857,51.62723469167696
0.17460449096225839,2.3281237209268233,1921,31,22.38910547551857,51.62723469167696
0.1978828644567753,2.3281004415566566,1921,31,22.38910547551857,51.62723469167696
0.22116076883576957,2.3280771626966654,1921,31,22.38910547551857,51.62723469167696
0.24443822229188064,2.328053884325499,1921,31,22.38910547551857,51.62723469167696
0.26771524161815646,2.328030606423448,1921,31,22.38910547551857,51.62723469167696
0.29099184231574077,2.3280073289723195,1921,31,22.38910547551857,51.62723469167696
0.3142680386932736,2.327984051955321,1921,31,22.38910547551857,51.62723469167696
0.33754384395864506,2.3279607753569516,1921,31,22.38910547551857,51.62723469167696
0.3608192703036882,2.3279374991629016,1921,31,22.38910547551857,51.62723469167696
0.38409432898235607,2.3279142233599637,1921,31,22.38910547551857,51.62723469167696
0.4073690303828845,2.327890947935946,1921,31,22.38910547551857,51.62723469167696
0.4306433840944004,2.3278676728795955,1921,31,22.38910547551857,51.62723469167696
0.4539173989684075,2.327844398180522,1921,31,22.38910547551857,51.62723469167696
0.4771910831755399,2.327821123829138,1921,31,22.38910547551857,51.62723469167696
0.5004644442579492,2.3277978498165917,1921,31,22.38910547551857,51.62723469167696
0.5237374891776609,2.327774576134712,1921,31,22.38910547551857,51.62723469167696
0.5470102243612105,2.327751302775957,1921,31,22.38910547551857,51.62723469167696
0.5702826557408441,2.3277280297333647,1921,31,22.38910547551857,51.62723469167696
0.5935547887925513,2.3277047570005087,1921,31,22.38910547551857,51.62723469167696
0.6168266285711687,2.327681484571456,1921,31,22.38910547551857,51.62723469167696
0.6400981797427854,2.3276582124407317,1921,31,22.38910547551857,51.62723469167696
0.6633694466146525,2.3276349406032804,1921,31,22.38910547551857,51.62723469167696
0.6866404331627941,2.327611669054436,1921,31,22.38910547551857,51.62723469167696
0.709911143057491,2.3275883977898912,1921,31,22.38910547551857,51.62723469167696
0.7331815796868062,2.3275651268056703,1921,31,22.38910547551857,51.62723469167696
0.7564517461782992,2.3275418560981027,1921,31,22.38910547551857,51.62723469167696
0.779721645419068,2.3275185856638005,1921,31,22.38910547551857,51.62723469167696
0.8029912800742524,2.327495315499636,1921,31,22.38910547551857,51.62723469167696
0.8262606526041111,2.3274720456027223,1921,31,22.38910547551857,51.62723469167696
0.8495297652797851,2.327448775970394,1921,31,22.38910547551857,51.62723469167696
0.8727986201978499,2.3274255066001914,1921,31,22.38910547551857,51.62723469167696
0.8960672192937456,2.3274022374898427,1921,31,22.38910547551857,51.62723469167696
0.9193355643541752,2.3273789686372517,1921,31,22.38910547551857,51.62723469167696
0.9426036570285493,2.3273557000404823,1921,31,22.38910547551857,51.62723469167696
0.9658714988395497,2.327332431697749,1921,31,22.38910547551857,51.62723469167696
0.9891390911928781,2.3273091636074015,1921,31,22.38910547551857,51.62723469167696
1.01240643538626,2.3272858957679174,1921,31,22.38910547551857,51.62723469167696
1.0356735326177493,2.3272626281778908,1921,31,22.38910547551857,51.62723469167696
1.0589403839933997,2.3272393608360242,1921,31,22.38910547551857,51.62723469167696
1.0822069905343414,2.3272160937411193,1921,31,22.38910547551857,51.62723469167696
1.1054733531833165,2.3271928268920705,1921,31,22.38910547551857,51.62723469167696
1.1287394728107107,2.327169560287856,1921,31,22.38910547551857,51.62723469167696
1.1520053502201189,2.327146293927534,1921,31,22.38910547551857,51.62723469167696
1.1752709861534851,2.327123027810233,1921,31,22.38910547551857,51.62723469167696
1.198536381295846,2.3270997619351506,1921,31,22.38910547551857,51.62723469167696
1.22180153627971,2.327076496301544,1921,31,22.38910547551857,51.62723469167696
1.245066451689097,2.327053230908728,1921,31,22.38910547551857,51.62723469167696
1.2683311280632714,2.3270299657560707,1921,31,22.38910547551857,51.62723469167696
1.2915955659001845,2.327006700842988,1921,31,22.38910547551857,51.62723469167696
1.3148597656596526,2.3269834361689403,1921,31,22.38910547551857,51.62723469167696
1.338123727766293,2.32696017173343,1921,31,22.38910547551857,51.62723469167696
1.3613874526122307,2.326936907535997,1921,31,22.38910547551857,51.62723469167696
1.3846509405595981,2.3269136435762166,1921,31,22.38910547551857,51.62723469167696
1.4079141919428446,2.326890379853697,1921,31,22.38910547551857,51.62723469167696
1.4311772070708648,2.326867116368076,1921,31,22.38910547551857,51.62723469167696
1.4544399862289659,2.326843853119019,1921,31,22.38910547551857,51.62723469167696
1.4777025296806812,2.3268205901062173,1921,31,22.38910547551857,51.62723469167696
1.500964837669447,2.326797327329386,1921,31,22.38910547551857,51.62723469167696
1.5242269104201478,2.3267740647882604,1921,31,22.38910547551857,51.62723469167696
1.5474887481405435,2.326750802482598,1921,31,22.38910547551857,51.62723469167696
1.5707503510225882,2.3267275404121732,1921,31,22.38910547551857,51.62723469167696
1.5940117192436458,2.3267042785767793,1921,31,22.38910547551857,51.62723469167696
1.6172728529676115,2.3266810169762233,1921,31,22.38910547551857,51.62723469167696
1.64053375234595,2.3266577556103285,1921,31,22.38910547551857,51.62723469167696
1.66379441751865,2.3266344944789306,1921,31,22.38910547551857,51.62723469167696
1.687054848615109,2.3266112335818785,1921,31,22.38910547551857,51.62723469167696
1.7103150457549463,2.326587972919032,1921,31,22.38910547551857,51.62723469167696
1.733575009048757,2.3265647124902613,1921,31,22.38910547551857,51.62723469167696
1.7568347385988063,2.326541452295448,1921,31,22.38910547551857,51.62723469167696
1.7800942344996686,2.32651819233448,1921,31,22.38910547551857,51.62723469167696
1.8033534968388214,2.326494932607256,1921,31,22.38910547551857,51.62723469167696
1.8266125256971897,2.326471673113681,1921,31,22.38910547551857,51.62723469167696
1.8498713211496518,2.326448413853668,1921,31,22.38910547551857,51.62723469167696
1.8731298832655026,2.3264251548271355,1921,31,22.38910547551857,51.62723469167696
1.8963882121088844,2.326401896034009,1921,31,22.38910547551857,51.62723469167696
1.9196463077391839,2.326378637474219,1921,31,22.38910547551857,51.62723469167696
1.9429041702113958,2.3263553791477016,1921,31,22.38910547551857,51.62723469167696
1.9661617995764642,2.326332121054397,1921,31,22.38910547551857,51.62723469167696
1.989419195881591,2.326308863194251,1921,31,22.38910547551857,51.62723469167696
2.012676359170525,2.3262856055672114,1921,31,22.38910547551857,51.62723469167696
2.0359332894838293,2.3262623481732323,1921,31,22.38910547551857,51.62723469167696
2.059189986859123,2.326239091012269,1921,31,22.38910547551857,51.62723469167696
2.08244645133131,2.326215834084281,1921,31,22.38910547551857,51.62723469167696
2.1057026829327894,2.326192577389232,1921,31,22.38910547551857,51.62723469167696
2.128958681693643,2.326169320927085,1921,31,22.38910547551857,51.62723469167696
2.1522144476418203,2.3261460646978094,1921,31,22.38910547551857,51.62723469167696
2.175469980803296,2.326122808701374,1921,31,22.38910547551857,51.62723469167696
2.1987252812022273,2.3260995529377517,1921,31,22.38910547551857,51.62723469167696
2.221980348861091,2.326076297406916,1921,31,22.38910547551857,51.62723469167696
2.245235183800813,2.3260530421088426,1921,31,22.38910547551857,51.62723469167696
2.2684897860408877,2.326029787043509,1921,31,22.38910547551857,51.62723469167696
2.291744155599489,2.326006532210895,1921,31,22.38910547551857,51.62723469167696
2.314998292493571,2.3259832776109803,1921,31,22.38910547551857,51.62723469167696
2.3382521967389622,2.325960023243747,1921,31,22.38910547551857,51.62723469167696
2.361505868350452,2.3259367691091786,1921,31,22.38910547551857,51.62723469167696
2.384759307341871,2.3259135152072585,1921,31,22.38910547551857,51.62723469167696
2.4080125137261645,2.325890261537973,1921,31,22.38910547551857,51.62723469167696
2.431265487515459,2.3258670081013064,1921,31,22.38910547551857,51.62723469167696
2.4545182287211293,2.3258437548972477,1921,31,22.38910547551857,51.62723469167696
2.4777707373538527,2.325820501925784,1921,31,22.38910547551857,51.62723469167696
2.5010230134236626,2.3257972491869032,1921,31,22.38910547551857,51.62723469167696
2.5242750569400005,2.325773996680596,1921,31,22.38910547551857,51.62723469167696
2.547526867911761,2.3257507444068515,1921,31,22.38910547551857,51.62723469167696
2.5707784463473318,2.3257274923656603,1921,31,22.38910547551857,51.62723469167696
2.5940297922546334,2.325704240557014,1921,31,22.38910547551857,51.62723469167696
2.6172809056411577,2.3256809889809036,1921,31,22.38910547551857,51.62723469167696
2.6405317865139977,2.325657737637321,1921,31,22.38910547551857,51.62723469167696
2.6637824348798795,2.32563448652626,1921,31,22.38910547551857,51.62723469167696
2.68703285074519,2.3256112356477123,1921,31,22.38910547551857,51.62723469167696
2.7102830341160056,2.3255879850016714,1921,31,22.38910547551857,51.62723469167696
2.733532984998112,2.325564734588131,1921,31,22.38910547551857,51.62723469167696
2.7567827033970285,2.3255414844070854,1921,31,22.38910547551857,51.62723469167696
2.7800321893180286,2.3255182344585283,1921,31,22.38910547551857,51.62723469167696
2.8032814427661603,2.3254949847424546,1921,31,22.38910547551857,51.62723469167696
2.8265304637462605,2.3254717352588585,1921,31,22.38910547551857,51.62723469167696
2.8497792522629735,2.3254484860077356,1921,31,22.38910547551857,51.62723469167696
2.8730278083207654,2.32542523698908,1921,31,22.38910547551857,51.62723469167696
2.8962761319239343,2.3254019882028882,1921,31,22.38910547551857,51.62723469167696
2.91952422307663,2.3253787396491554,1921,31,22.38910547551857,51.62723469167696
2.942772081782862,2.325355491327877,1921,31,22.38910547551857,51.62723469167696
2.966019708046507,2.3253322432390493,1921,31,22.38910547551857,51.62723469167696
2.989267101871324,2.325308995382668,1921,31,22.38910547551857,51.62723469167696
3.0125142632609623,2.325285747758729,1921,31,22.38910547551857,51.62723469167696
3.0357611922189673,2.325262500367229,1921,31,22.38910547551857,51.62723469167696
3.0590078887487913,2.325239253208164,1921,31,22.38910547551857,51.62723469167696
3.082254352853801,2.325216006281531,1921,31,22.38910547551857,51.62723469167696
3.1055005845372805,2.325192759587326,1921,31,22.38910547551857,51.62723469167696
3.128746583802441,2.3251695131255454,1921,31,22.38910547551857,51.62723469167696
3.151992350652426,2.3251462668961866,1921,31,22.38910547551857,51.62723469167696
3.1752378850903153,2.3251230208992464,1921,31,22.38910547551857,51.62723469167696
3.19848318711913,2.3250997751347207,1921,31,22.38910547551857,51.62723469167696
3.2217282567418386,2.3250765296026077,1921,31,22.38910547551857,51.62723469167696
3.244973093961359,2.3250532843029035,1921,31,22.38910547551857,51.62723469167696
3.2682176987805627,2.3250300392356054,1921,31,22.38910547551857,51.62723469167696
3.291462071202283,2.3250067944007102,1921,31,22.38910547551857,51.62723469167696
3.3147062112293075,2.3249835497982154,1921,31,22.38910547551857,51.62723469167696
3.337950118864394,2.3249603054281183,1921,31,22.38910547551857,51.62723469167696
3.361193794110263,2.3249370612904157,1921,31,22.38910547551857,51.62723469167696
3.384437236969607,2.324913817385105,1921,31,22.38910547551857,51.62723469167696
3.407680447445088,2.3248905737121834,1921,31,22.38910547551857,51.62723469167696
3.4309234255393424,2.3248673302716485,1921,31,22.38910547551857,51.62723469167696
3.4541661712549825,2.3248440870634974,1921,31,22.38910547551857,51.62723469167696
3.4774086845946,2.3248208440877276,1921,31,22.38910547551857,51.62723469167696
3.500650965560764,2.3247976013443363,1921,31,22.38910547551857,51.62723469167696
3.5238930141560254,2.324774358833321,1921,31,22.38910547551857,51.62723469167696
3.5471348303829173,2.3247511165546793,1921,31,22.38910547551857,51.62723469167696
3.5703764142439565,2.324727874508408,1921,31,22.38910547551857,51.62723469167696
3.5936177657416457,2.3247046326945053,1921,31,22.38910547551857,51.62723469167696
3.616858884878473,2.3246813911129687,1921,31,22.38910547551857,51.62723469167696
3.6400997716569137,2.324658149763795,1921,31,22.38910547551857,51.62723469167696
3.6633404260794316,2.324634908646982,1921,31,22.38910547551857,51.62723469167696
3.6865808481484796,2.324611667762528,1921,31,22.38910547551857,51.62723469167696
3.7098210378665004,2.3245884271104296,1921,31,22.38910547551857,51.62723469167696
3.733060995235928,2.324565186690685,1921,31,22.38910547551857,51.62723469167696
3.7563007202591883,2.324541946503291,1921,31,22.38910547551857,51.62723469167696
3.779540212938696,2.3245187065482456,1921,31,22.38910547551857,51.62723469167696
3.8027794732768636,2.324495466825546,1921,31,22.38910547551857,51.62723469167696
3.8260185012760934,2.3244722273351908,1921,31,22.38910547551857,51.62723469167696
3.849257296938783,2.3244489880771764,1921,31,22.38910547551857,51.62723469167696
3.872495860267324,2.324425749051501,1921,31,22.38910547551857,51.62723469167696
3.8957341912641006,2.3244025102581625,1921,31,22.38910547551857,51.62723469167696
3.9189722899314945,2.3243792716971576,1921,31,22.38910547551857,51.62723469167696
3.942210156271883,2.3243560333684847,1921,31,22.38910547551857,51.62723469167696
3.9654477902876386,2.3243327952721415,1921,31,22.38910547551857,51.62723469167696
3.9886851919811304,2.324309557408125,1921,31,22.38910547551857,51.62723469167696
4.0119223613547215,2.3242863197764327,1921,31,22.38910547551857,51.62723469167696
4.0351592984107745,2.324263082377063,1921,31,22.38910547551857,51.62723469167696
4.05839600315165,2.3242398452100135,1921,31,22.38910547551857,51.62723469167696
4.081632475579701,2.324216608275281,1921,31,22.38910547551857,51.62723469167696
4.104868715697283,2.3241933715728638,1921,31,22.38910547551857,51.62723469167696
4.128104723506746,2.3241701351027593,1921,31,22.38910547551857,51.62723469167696
4.151340499010439,2.3241468988649654,1921,31,22.38910547551857,51.62723469167696
4.174576042210707,2.32412366285948,1921,31,22.38910547551857,51.62723469167696
4.1978113531098975,2.3241004270862997,1921,31,22.38910547551857,51.62723469167696
4.221046431710352,2.324077191545423,1921,31,22.38910547551857,51.62723469167696
4.244281278014413,2.324053956236847,1921,31,22.38910547551857,51.62723469167696
4.267515892024419,2.3240307211605704,1921,31,22.38910547551857,51.62723469167696
4.290750273742711,2.32400748631659,1921,31,22.38910547551857,51.62723469167696
4.3139844231716244,2.3239842517049034,1921,31,22.38910547551857,51.62723469167696
4.337218340313494,2.3239610173255087,1921,31,22.38910547551857,51.62723469167696
4.360452025170659,2.3239377831784034,1921,31,22.38910547551857,51.62723469167696
4.38368547774545,2.3239145492635847,1921,31,22.38910547551857,51.62723469167696
4.4069186980402,2.323891315581051,1921,31,22.38910547551857,51.62723469167696
4.430151686057244,2.3238680821307995,1921,31,22.38910547551857,51.62723469167696
4.45338444179891,2.3238448489128283,1921,31,22.38910547551857,51.62723469167696
4.4766169652675325,2.3238216159271343,1921,31,22.38910547551857,51.62723469167696
4.499849256465438,2.3237983831737163,1921,31,22.38910547551857,51.62723469167696
4.52308131539496,2.323775150652571,1921,31,22.38910547551857,51.62723469167696
4.546313142058424,2.3237519183636963,1921,31,22.38910547551857,51.62723469167696
4.569544736458159,2.32372868630709,1921,31,22.38910547551857,51.62723469167696
4.592776098596495,2.3237054544827496,1921,31,22.38910547551857,51.62723469167696
4.616007228475755,2.3236822228906733,1921,31,22.38910547551857,51.62723469167696
4.63923812609827,2.323658991530858,1921,31,22.38910547551857,51.62723469167696
4.662468791466366,2.323635760403302,1921,31,22.38910547551857,51.62723469167696
4.6856992245823665,2.3236125295080026,1921,31,22.38910547551857,51.62723469167696
4.708929425448599,2.323589298844958,1921,31,22.38910547551857,51.62723469167696
4.7321593940673905,2.3235660684141646,1921,31,22.38910547551857,51.62723469167696
4.755389130441064,2.3235428382156216,1921,31,22.38910547551857,51.62723469167696
4.778618634571943,2.3235196082493257,1921,31,22.38910547551857,51.62723469167696
4.801847906462356,2.323496378515275,1921,31,22.38910547551857,51.62723469167696
4.825076946114626,2.3234731490134672,1921,31,22.38910547551857,51.62723469167696
4.848305753531077,2.3234499197439,1921,31,22.38910547551857,51.62723469167696
4.8715343287140325,2.3234266907065706,1921,31,22.38910547551857,51.62723469167696
4.894762671665816,2.323403461901477,1921,31,22.38910547551857,51.62723469167696
4.917990782388752,2.323380233328617,1921,31,22.38910547551857,51.62723469167696
4.941218660885163,2.323357004987988,1921,31,22.38910547551857,51.62723469167696
4.964446307157375,2.323333776879588,1921,31,22.38910547551857,51.62723469167696
4.987673721207708,2.3233105490034145,1921,31,22.38910547551857,51.62723469167696
5.010900903038486,2.323287321359465,1921,31,22.38910547551857,51.62723469167696
5.034127852652033,2.3232640939477376,1921,31,22.38910547551857,51.62723469167696
5.057354570050672,2.3232408667682294,1921,31,22.38910547551857,51.62723469167696
5.080581055236722,2.3232176398209385,1921,31,22.38910547551857,51.62723469167696
5.10380730821251,2.323194413105863,1921,31,22.38910547551857,51.62723469167696
5.127033328980357,2.323171186622999,1921,31,22.38910547551857,51.62723469167696
5.150259117542583,2.323147960372346,1921,31,22.38910547551857,51.62723469167696
5.173484673901515,2.3231247343539008,1921,31,22.38910547551857,51.62723469167696
5.196709998059471,2.323101508567661,1921,31,22.38910547551857,51.62723469167696
5.219935090018775,2.323078283013625,1921,31,22.38910547551857,51.62723469167696
5.243159949781748,2.3230550576917897,1921,31,22.38910547551857,51.62723469167696
5.2663845773507125,2.323031832602153,1921,31,22.38910547551857,51.62723469167696
5.289608972727992,2.3230086077447125,1921,31,22.38910547551857,51.62723469167696
5.3128331359159064,2.322985383119466,1921,31,22.38910547551857,51.62723469167696
5.336057066916778,2.322962158726411,1921,31,22.38910547551857,51.62723469167696
5.359280765732928,2.3229389345655456,1921,31,22.38910547551857,51.62723469167696
5.382504232366679,2.322915710636867,1921,31,22.38910547551857,51.62723469167696
5.405727466820352,2.3228924869403738,1921,31,22.38910547551857,51.62723469167696
5.428950469096269,2.322869263476062,1921,31,22.38910547551857,51.62723469167696
5.4521732391967515,2.322846040243931,1921,31,22.38910547551857,51.62723469167696
5.4753957771241195,2.3228228172439773,1921,31,22.38910547551857,51.62723469167696
5.498618082880696,2.322799594476199,1921,31,22.38910547551857,51.62723469167696
5.521840156468803,2.322776371940594,1921,31,22.38910547551857,51.62723469167696
5.545061997890762,2.32275314963716,1921,31,22.38910547551857,51.62723469167696
5.568283607148891,2.322729927565894,1921,31,22.38910547551857,51.62723469167696
5.591504984245517,2.322706705726794,1921,31,22.38910547551857,51.62723469167696
5.614726129182955,2.3226834841198585,1921,31,22.38910547551857,51.62723469167696
5.63794704196353,2.322660262745084,1921,31,22.38910547551857,51.62723469167696
