Vout,Iout,Irradiance,Temperature,MaxVoltage,MaxPower
0.0005625645907250892,0.11251399999999998,101,-18,18.7524754799651,1.7582956711675546
0.0016876833698235383,0.11251399999999998,101,-18,18.7524754799651,1.7582956711675546
0.0028127792755394147,0.11251342618400925,101,-18,18.7524754799651,1.7582956711675546
0.003937848221550496,0.11251230106523015,101,-18,18.7524754799651,1.7582956711675546
0.005062888872375786,0.11251117596938182,101,-18,18.7524754799651,1.7582956711675546
0.006187902539882128,0.11251005090054832,101,-18,18.7524754799651,1.7582956711675546
0.007312890435045302,0.11250892586001,101,-18,18.7524754799651,1.7582956711675546
0.008437853675687826,0.11250780084645501,101,-18,18.7524754799651,1.7582956711675546
0.009562793293633855,0.11250667585867234,101,-18,18.7524754799651,1.7582956711675546
0.010687710241326013,0.1125055508955442,101,-18,18.7524754799651,1.7582956711675546
0.011812605397933149,0.11250442595603875,101,-18,18.7524754799651,1.7582956711675546
0.012937479574988127,0.11250330103920356,101,-18,18.7524754799651,1.7582956711675546
0.014062333521591842,0.11250217614415944,101,-18,18.7524754799651,1.7582956711675546
0.015187167929216847,0.11250105127009488,101,-18,18.7524754799651,1.7582956711675546
0.016311983436141354,0.11249992641626076,101,-18,18.7524754799651,1.7582956711675546
0.017436780631542095,0.11249880158196564,101,-18,18.7524754799651,1.7582956711675546
0.018561560059272283,0.11249767676657119,101,-18,18.7524754799651,1.7582956711675546
0.019686322221348824,0.11249655196948828,101,-18,18.7524754799651,1.7582956711675546
0.020811067581171343,0.11249542719017303,101,-18,18.7524754799651,1.7582956711675546
0.021935796566493394,0.11249430242812343,101,-18,18.7524754799651,1.7582956711675546
0.023060509572165166,0.11249317768287609,101,-18,18.7524754799651,1.7582956711675546
0.024185206962665073,0.11249205295400323,101,-18,18.7524754799651,1.7582956711675546
0.025309889074436667,0.11249092824111004,101,-18,18.7524754799651,1.7582956711675546
0.026434556218045642,0.11248980354383202,101,-18,18.7524754799651,1.7582956711675546
0.02755920868017092,0.11248867886183271,101,-18,18.7524754799651,1.7582956711675546
0.028683846725442556,0.11248755419480158,101,-18,18.7524754799651,1.7582956711675546
0.0298084705981382,0.11248642954245192,101,-18,18.7524754799651,1.7582956711675546
0.03093308052374903,0.1124853049045191,101,-18,18.7524754799651,1.7582956711675546
0.03205767671042523,0.11248418028075888,101,-18,18.7524754799651,1.7582956711675546
0.033182259350310266,0.11248305567094574,101,-18,18.7524754799651,1.7582956711675546
0.034306828620772375,0.11248193107487152,101,-18,18.7524754799651,1.7582956711675546
0.03543138468554148,0.1124808064923441,101,-18,18.7524754799651,1.7582956711675546
0.0365559276957585,0.1124796819231861,101,-18,18.7524754799651,1.7582956711675546
0.03768045779094401,0.11247855736723378,101,-18,18.7524754799651,1.7582956711675546
0.03880497509989228,0.11247743282433602,101,-18,18.7524754799651,1.7582956711675546
0.03992947974149659,0.11247630829435329,101,-18,18.7524754799651,1.7582956711675546
0.04105397182551102,0.1124751837771568,101,-18,18.7524754799651,1.7582956711675546
0.042178451453253704,0.11247405927262764,101,-18,18.7524754799651,1.7582956711675546
0.04330291871825577,0.11247293478065609,101,-18,18.7524754799651,1.7582956711675546
0.044427373706860604,0.1124718103011408,101,-18,18.7524754799651,1.7582956711675546
0.045551816498776834,0.11247068583398824,101,-18,18.7524754799651,1.7582956711675546
0.046676247167588836,0.11246956137911208,101,-18,18.7524754799651,1.7582956711675546
0.047800665781227915,0.11246843693643262,101,-18,18.7524754799651,1.7582956711675546
0.04892507240240729,0.11246731250587624,101,-18,18.7524754799651,1.7582956711675546
0.050049467089023594,0.11246618808737506,101,-18,18.7524754799651,1.7582956711675546
0.051173849894527425,0.11246506368086631,101,-18,18.7524754799651,1.7582956711675546
0.052298220868265445,0.11246393928629214,101,-18,18.7524754799651,1.7582956711675546
0.053422580055796184,0.11246281490359908,101,-18,18.7524754799651,1.7582956711675546
0.054546927499181455,0.11246169053273779,101,-18,18.7524754799651,1.7582956711675546
0.055671263237255394,0.1124605661736627,101,-18,18.7524754799651,1.7582956711675546
0.05679558730587287,0.11245944182633175,101,-18,18.7524754799651,1.7582956711675546
0.05791989973813863,0.1124583174907061,101,-18,18.7524754799651,1.7582956711675546
0.05904420056461894,0.11245719316674992,101,-18,18.7524754799651,1.7582956711675546
0.06016848981353692,0.11245606885443009,101,-18,18.7524754799651,1.7582956711675546
0.06129276751095277,0.11245494455371605,101,-18,18.7524754799651,1.7582956711675546
0.06241703368093025,0.11245382026457955,101,-18,18.7524754799651,1.7582956711675546
0.06354128834569026,0.11245269598699456,101,-18,18.7524754799651,1.7582956711675546
0.0646655315257526,0.11245157172093702,101,-18,18.7524754799651,1.7582956711675546
0.06578976324006694,0.11245044746638469,101,-18,18.7524754799651,1.7582956711675546
0.06691398350613355,0.11244932322331705,101,-18,18.7524754799651,1.7582956711675546
0.06803819234011482,0.11244819899171517,101,-18,18.7524754799651,1.7582956711675546
0.06916238975693828,0.11244707477156152,101,-18,18.7524754799651,1.7582956711675546
0.07028657577039156,0.11244595056283996,101,-18,18.7524754799651,1.7582956711675546
0.07141075039321003,0.11244482636553556,101,-18,18.7524754799651,1.7582956711675546
0.07253491363715783,0.11244370217963452,101,-18,18.7524754799651,1.7582956711675546
0.0736590655131027,0.11244257800512412,101,-18,18.7524754799651,1.7582956711675546
0.07478320603108468,0.1124414538419926,101,-18,18.7524754799651,1.7582956711675546
0.07590733520038011,0.11244032969022907,101,-18,18.7524754799651,1.7582956711675546
0.07703145302956013,0.1124392055498235,101,-18,18.7524754799651,1.7582956711675546
0.07815555952654511,0.11243808142076663,101,-18,18.7524754799651,1.7582956711675546
0.07927965469865461,0.11243695730304985,101,-18,18.7524754799651,1.7582956711675546
0.08040373855265374,0.1124358331966653,101,-18,18.7524754799651,1.7582956711675546
0.08152781109479564,0.11243470910160559,101,-18,18.7524754799651,1.7582956711675546
0.08265187233086099,0.112433585017864,101,-18,18.7524754799651,1.7582956711675546
0.08377592226619439,0.11243246094543427,101,-18,18.7524754799651,1.7582956711675546
0.08489996090573779,0.11243133688431062,101,-18,18.7524754799651,1.7582956711675546
0.0860239882540616,0.11243021283448769,101,-18,18.7524754799651,1.7582956711675546
0.08714800431539321,0.11242908879596054,101,-18,18.7524754799651,1.7582956711675546
0.08827200909364334,0.11242796476872463,101,-18,18.7524754799651,1.7582956711675546
0.08939600259243054,0.1124268407527757,101,-18,18.7524754799651,1.7582956711675546
0.09051998481510352,0.11242571674810986,101,-18,18.7524754799651,1.7582956711675546
0.09164395576476199,0.11242459275472347,101,-18,18.7524754799651,1.7582956711675546
0.09276791544427584,0.1124234687726132,101,-18,18.7524754799651,1.7582956711675546
0.09389186385630276,0.11242234480177593,101,-18,18.7524754799651,1.7582956711675546
0.09501580100330459,0.11242122084220882,101,-18,18.7524754799651,1.7582956711675546
0.0961397268875624,0.1124200968939092,101,-18,18.7524754799651,1.7582956711675546
0.0972636415111904,0.11241897295687459,101,-18,18.7524754799651,1.7582956711675546
0.09838754487614876,0.11241784903110272,101,-18,18.7524754799651,1.7582956711675546
0.09951143698425555,0.1124167251165915,101,-18,18.7524754799651,1.7582956711675546
0.10063531783719747,0.11241560121333892,101,-18,18.7524754799651,1.7582956711675546
0.10175918743654015,0.11241447732134321,101,-18,18.7524754799651,1.7582956711675546
0.10288304578373741,0.11241335344060266,101,-18,18.7524754799651,1.7582956711675546
0.10400689288013985,0.1124122295711157,101,-18,18.7524754799651,1.7582956711675546
0.10513072872700278,0.11241110571288089,101,-18,18.7524754799651,1.7582956711675546
0.10625455332549358,0.11240998186589687,101,-18,18.7524754799651,1.7582956711675546
0.10737836667669844,0.1124088580301624,101,-18,18.7524754799651,1.7582956711675546
0.10850216878162859,0.11240773420567629,101,-18,18.7524754799651,1.7582956711675546
0.10962595964122615,0.11240661039243748,101,-18,18.7524754799651,1.7582956711675546
0.1107497392563694,0.11240548659044493,101,-18,18.7524754799651,1.7582956711675546
0.11187350762787761,0.1124043627996977,101,-18,18.7524754799651,1.7582956711675546
0.11299726475651573,0.11240323902019494,101,-18,18.7524754799651,1.7582956711675546
0.11412101064299845,0.11240211525193582,101,-18,18.7524754799651,1.7582956711675546
0.11524474528799414,0.11240099149491956,101,-18,18.7524754799651,1.7582956711675546
0.11636846869212836,0.11239986774914545,101,-18,18.7524754799651,1.7582956711675546
0.11749218085598723,0.11239874401461283,101,-18,18.7524754799651,1.7582956711675546
0.11861588178012036,0.11239762029132107,101,-18,18.7524754799651,1.7582956711675546
0.11973957146504373,0.11239649657926959,101,-18,18.7524754799651,1.7582956711675546
0.12086324991124227,0.11239537287845783,101,-18,18.7524754799651,1.7582956711675546
0.12198691711917219,0.11239424918888527,101,-18,18.7524754799651,1.7582956711675546
0.12311057308926335,0.11239312551055144,101,-18,18.7524754799651,1.7582956711675546
0.12423421782192104,0.11239200184345588,101,-18,18.7524754799651,1.7582956711675546
0.12535785131752808,0.11239087818759816,101,-18,18.7524754799651,1.7582956711675546
0.12648147357644654,0.11238975454297787,101,-18,18.7524754799651,1.7582956711675546
0.12760508459901915,0.11238863090959463,101,-18,18.7524754799651,1.7582956711675546
0.12872868438557095,0.11238750728744808,101,-18,18.7524754799651,1.7582956711675546
0.12985227293641063,0.11238638367653786,101,-18,18.7524754799651,1.7582956711675546
0.13097585025183178,0.11238526007686367,101,-18,18.7524754799651,1.7582956711675546
0.13209941633211406,0.1123841364884252,101,-18,18.7524754799651,1.7582956711675546
0.1332229711775241,0.11238301291122213,101,-18,18.7524754799651,1.7582956711675546
0.13434651478831683,0.11238188934525421,101,-18,18.7524754799651,1.7582956711675546
0.13547004716473618,0.11238076579052116,101,-18,18.7524754799651,1.7582956711675546
0.1365935683070159,0.11237964224702272,101,-18,18.7524754799651,1.7582956711675546
0.1377170782153804,0.11237851871475867,101,-18,18.7524754799651,1.7582956711675546
0.13884057689004542,0.11237739519372873,101,-18,18.7524754799651,1.7582956711675546
0.13996406433121888,0.11237627168393273,101,-18,18.7524754799651,1.7582956711675546
0.14108754053910125,0.11237514818537041,101,-18,18.7524754799651,1.7582956711675546
0.14221100551388619,0.11237402469804159,101,-18,18.7524754799651,1.7582956711675546
0.14333445925576108,0.11237290122194606,101,-18,18.7524754799651,1.7582956711675546
0.1444579017649076,0.11237177775708362,101,-18,18.7524754799651,1.7582956711675546
0.14558133304150211,0.1123706543034541,101,-18,18.7524754799651,1.7582956711675546
0.14670475308571596,0.11236953086105729,101,-18,18.7524754799651,1.7582956711675546
0.14782816189771597,0.11236840742989304,101,-18,18.7524754799651,1.7582956711675546
0.14895155947766475,0.11236728400996117,101,-18,18.7524754799651,1.7582956711675546
0.15007494582572117,0.11236616060126152,101,-18,18.7524754799651,1.7582956711675546
0.15119832094204028,0.11236503720379391,101,-18,18.7524754799651,1.7582956711675546
0.1523216848267741,0.1123639138175582,101,-18,18.7524754799651,1.7582956711675546
0.15344503748007135,0.11236279044255422,101,-18,18.7524754799651,1.7582956711675546
0.15456837890207809,0.11236166707878181,101,-18,18.7524754799651,1.7582956711675546
0.15569170909293775,0.11236054372624087,101,-18,18.7524754799651,1.7582956711675546
0.15681502805279138,0.11235942038493119,101,-18,18.7524754799651,1.7582956711675546
0.15793833578177774,0.11235829705485266,101,-18,18.7524754799651,1.7582956711675546
0.15906163228003367,0.11235717373600515,101,-18,18.7524754799651,1.7582956711675546
0.16018491754769398,0.11235605042838849,101,-18,18.7524754799651,1.7582956711675546
0.16130819158489187,0.11235492713200257,101,-18,18.7524754799651,1.7582956711675546
0.1624314543917589,0.11235380384684723,101,-18,18.7524754799651,1.7582956711675546
0.16355470596842506,0.11235268057292237,101,-18,18.7524754799651,1.7582956711675546
0.16467794631501909,0.11235155731022783,101,-18,18.7524754799651,1.7582956711675546
0.1658011754316683,0.1123504340587635,101,-18,18.7524754799651,1.7582956711675546
0.16692439331849915,0.11234931081852922,101,-18,18.7524754799651,1.7582956711675546
0.16804759997563665,0.1123481875895249,101,-18,18.7524754799651,1.7582956711675546
0.1691707954032051,0.11234706437175039,101,-18,18.7524754799651,1.7582956711675546
0.17029397960132764,0.11234594116520558,101,-18,18.7524754799651,1.7582956711675546
0.1714171525701268,0.11234481796989033,101,-18,18.7524754799651,1.7582956711675546
0.17254031430972414,0.11234369478580453,101,-18,18.7524754799651,1.7582956711675546
0.17366346482024053,0.11234257161294806,101,-18,18.7524754799651,1.7582956711675546
0.17478660410179636,0.11234144845132077,101,-18,18.7524754799651,1.7582956711675546
0.1759097321545112,0.11234032530092257,101,-18,18.7524754799651,1.7582956711675546
0.17703284897850413,0.11233920216175333,101,-18,18.7524754799651,1.7582956711675546
0.17815595457389366,0.11233807903381293,101,-18,18.7524754799651,1.7582956711675546
0.17927904894079785,0.11233695591710126,101,-18,18.7524754799651,1.7582956711675546
0.1804021320793343,0.11233583281161817,101,-18,18.7524754799651,1.7582956711675546
0.1815252039896202,0.11233470971736359,101,-18,18.7524754799651,1.7582956711675546
0.18264826467177242,0.11233358663433736,101,-18,18.7524754799651,1.7582956711675546
0.18377131412590736,0.11233246356253938,101,-18,18.7524754799651,1.7582956711675546
0.18489435235214113,0.11233134050196954,101,-18,18.7524754799651,1.7582956711675546
0.1860173793505897,0.11233021745262771,101,-18,18.7524754799651,1.7582956711675546
0.18714039512136857,0.11232909441451379,101,-18,18.7524754799651,1.7582956711675546
0.188263399664593,0.11232797138762764,101,-18,18.7524754799651,1.7582956711675546
0.1893863929803781,0.11232684837196917,101,-18,18.7524754799651,1.7582956711675546
0.19050937506883864,0.11232572536753824,101,-18,18.7524754799651,1.7582956711675546
0.19163234593008943,0.11232460237433475,101,-18,18.7524754799651,1.7582956711675546
0.19275530556424475,0.1123234793923586,101,-18,18.7524754799651,1.7582956711675546
0.19387825397141906,0.11232235642160965,101,-18,18.7524754799651,1.7582956711675546
0.19500119115172634,0.11232123346208779,101,-18,18.7524754799651,1.7582956711675546
0.19612411710528072,0.11232011051379291,101,-18,18.7524754799651,1.7582956711675546
0.1972470318321959,0.1123189875767249,101,-18,18.7524754799651,1.7582956711675546
0.19836993533258568,0.11231786465088364,101,-18,18.7524754799651,1.7582956711675546
0.19949282760656373,0.11231674173626902,101,-18,18.7524754799651,1.7582956711675546
0.20061570865424344,0.11231561883288092,101,-18,18.7524754799651,1.7582956711675546
0.2017385784757383,0.11231449594071924,101,-18,18.7524754799651,1.7582956711675546
0.2028614370711616,0.11231337305978385,101,-18,18.7524754799651,1.7582956711675546
0.2039842844406266,0.11231225019007464,101,-18,18.7524754799651,1.7582956711675546
0.20510712058424643,0.1123111273315915,101,-18,18.7524754799651,1.7582956711675546
0.20622994550213414,0.11231000448433433,101,-18,18.7524754799651,1.7582956711675546
0.2073527591944028,0.112308881648303,101,-18,18.7524754799651,1.7582956711675546
0.2084755616611653,0.11230775882349739,101,-18,18.7524754799651,1.7582956711675546
0.2095983529025345,0.1123066360099174,101,-18,18.7524754799651,1.7582956711675546
0.21072113291862338,0.11230551320756292,101,-18,18.7524754799651,1.7582956711675546
0.21184390170954467,0.11230439041643384,101,-18,18.7524754799651,1.7582956711675546
0.21296665927541109,0.11230326763653004,101,-18,18.7524754799651,1.7582956711675546
0.21408940561633535,0.1123021448678514,101,-18,18.7524754799651,1.7582956711675546
0.2152121407324302,0.1123010221103978,101,-18,18.7524754799651,1.7582956711675546
0.21633486462380816,0.11229989936416915,101,-18,18.7524754799651,1.7582956711675546
0.21745757729058188,0.11229877662916533,101,-18,18.7524754799651,1.7582956711675546
0.21858027873286395,0.11229765390538624,101,-18,18.7524754799651,1.7582956711675546
0.21970296895076694,0.11229653119283173,101,-18,18.7524754799651,1.7582956711675546
0.22082564794440332,0.11229540849150173,101,-18,18.7524754799651,1.7582956711675546
0.2219483157138856,0.11229428580139608,101,-18,18.7524754799651,1.7582956711675546
0.22307097225932618,0.11229316312251472,101,-18,18.7524754799651,1.7582956711675546
0.2241936175808376,0.11229204045485751,101,-18,18.7524754799651,1.7582956711675546
0.2253162516785323,0.11229091779842433,101,-18,18.7524754799651,1.7582956711675546
0.22643887455252265,0.11228979515321509,101,-18,18.7524754799651,1.7582956711675546
0.22756148620292105,0.11228867251922967,101,-18,18.7524754799651,1.7582956711675546
0.22868408662983988,0.11228754989646794,101,-18,18.7524754799651,1.7582956711675546
0.22980667583339148,0.1122864272849298,101,-18,18.7524754799651,1.7582956711675546
0.23092925381368828,0.11228530468461514,101,-18,18.7524754799651,1.7582956711675546
0.23205182057084253,0.11228418209552385,101,-18,18.7524754799651,1.7582956711675546
0.2331743761049666,0.11228305951765581,101,-18,18.7524754799651,1.7582956711675546
0.23429692041617284,0.11228193695101092,101,-18,18.7524754799651,1.7582956711675546
0.23541945350457352,0.11228081439558905,101,-18,18.7524754799651,1.7582956711675546
0.2365419753702809,0.11227969185139011,101,-18,18.7524754799651,1.7582956711675546
0.23766448601340734,0.11227856931841396,101,-18,18.7524754799651,1.7582956711675546
0.2387869854340651,0.1122774467966605,101,-18,18.7524754799651,1.7582956711675546
0.2399094736323665,0.11227632428612963,101,-18,18.7524754799651,1.7582956711675546
0.24103195060842372,0.11227520178682122,101,-18,18.7524754799651,1.7582956711675546
0.24215441636234908,0.11227407929873517,101,-18,18.7524754799651,1.7582956711675546
0.24327687089425482,0.11227295682187137,101,-18,18.7524754799651,1.7582956711675546
0.24439931420425323,0.1122718343562297,101,-18,18.7524754799651,1.7582956711675546
0.2455217462924565,0.11227071190181004,101,-18,18.7524754799651,1.7582956711675546
0.24664416715897686,0.11226958945861229,101,-18,18.7524754799651,1.7582956711675546
0.24776657680392655,0.11226846702663633,101,-18,18.7524754799651,1.7582956711675546
0.24888897522741782,0.11226734460588206,101,-18,18.7524754799651,1.7582956711675546
0.2500113624295629,0.11226622219634935,101,-18,18.7524754799651,1.7582956711675546
0.25113373841047404,0.1122650997980381,101,-18,18.7524754799651,1.7582956711675546
0.25225610317026337,0.11226397741094819,101,-18,18.7524754799651,1.7582956711675546
0.25337845670904324,0.11226285503507952,101,-18,18.7524754799651,1.7582956711675546
0.2545007990269257,0.11226173267043198,101,-18,18.7524754799651,1.7582956711675546
0.25562313012402305,0.11226061031700543,101,-18,18.7524754799651,1.7582956711675546
0.25674545000044746,0.11225948797479979,101,-18,18.7524754799651,1.7582956711675546
0.2578677586563112,0.11225836564381492,101,-18,18.7524754799651,1.7582956711675546
0.25899005609172643,0.11225724332405072,101,-18,18.7524754799651,1.7582956711675546
0.2601123423068053,0.1122561210155071,101,-18,18.7524754799651,1.7582956711675546
0.26123461730166003,0.11225499871818391,101,-18,18.7524754799651,1.7582956711675546
0.2623568810764028,0.11225387643208107,101,-18,18.7524754799651,1.7582956711675546
0.26347913363114583,0.11225275415719844,101,-18,18.7524754799651,1.7582956711675546
