Vout,Iout,Irradiance,Temperature,MaxVoltage,MaxPower
0.003893632561225373,0.778734,621,52,22.870036660538673,17.262092693734346
0.011680825686724884,0.778734,621,52,22.870036660538673,17.262092693734346
0.019467860500541365,0.7787300284940388,621,52,22.870036660538673,17.262092693734346
0.027254708720345064,0.7787222413009133,621,52,22.870036660538673,17.262092693734346
0.03504136110297996,0.7787144542664967,621,52,22.870036660538673,17.262092693734346
0.04282782672816335,0.7787066674190556,621,52,22.870036660538673,17.262092693734346
0.05061411397732344,0.7786988807674516,621,52,22.870036660538673,17.262092693734346
0.05840023058715436,0.7786910943026051,621,52,22.870036660538673,17.262092693734346
0.06618618369913672,0.7786833080161346,621,52,22.870036660538673,17.262092693734346
0.07397197990533422,0.7786755219003034,621,52,22.870036660538673,17.262092693734346
0.08175762529066673,0.7786677359479701,621,52,22.870036660538673,17.262092693734346
0.08954312547193065,0.7786599501525425,621,52,22.870036660538673,17.262092693734346
0.09732848563381717,0.7786521645079357,621,52,22.870036660538673,17.262092693734346
0.10511371056215897,0.7786443790085331,621,52,22.870036660538673,17.262092693734346
0.11289880467461917,0.7786365936491497,621,52,22.870036660538673,17.262092693734346
0.12068377204901884,0.7786288084249999,621,52,22.870036660538673,17.262092693734346
0.12846861644948487,0.778621023331666,621,52,22.870036660538673,17.262092693734346
0.13625334135058623,0.7786132383650701,621,52,22.870036660538673,17.262092693734346
0.14403794995961292,0.7786054535214482,621,52,22.870036660538673,17.262092693734346
0.1518224452371409,0.7785976687973256,621,52,22.870036660538673,17.262092693734346
0.1596068299160146,0.778589884189495,621,52,22.870036660538673,17.262092693734346
0.16739110651886893,0.778582099694996,621,52,22.870036660538673,17.262092693734346
0.17517527737430333,0.7785743153110956,621,52,22.870036660538673,17.262092693734346
0.1829593446318107,0.7785665310352712,621,52,22.870036660538673,17.262092693734346
0.19074331027555877,0.7785587468651942,621,52,22.870036660538673,17.262092693734346
0.19852717613710988,0.7785509627987152,621,52,22.870036660538673,17.262092693734346
0.20631094390716306,0.7785431788338498,621,52,22.870036660538673,17.262092693734346
0.21409461514639222,0.7785353949687667,621,52,22.870036660538673,17.262092693734346
0.22187819129545022,0.7785276112017749,621,52,22.870036660538673,17.262092693734346
0.22966167368420384,0.7785198275313141,621,52,22.870036660538673,17.262092693734346
0.23744506354025766,0.7785120439559434,621,52,22.870036660538673,17.262092693734346
0.2452283619968222,0.7785042604743331,621,52,22.870036660538673,17.262092693734346
0.2530115700999768,0.7784964770852554,621,52,22.870036660538673,17.262092693734346
0.26079468881537404,0.7784886937875771,621,52,22.870036660538673,17.262092693734346
0.2685777190344269,0.7784809105802524,621,52,22.870036660538673,17.262092693734346
0.2763606615800221,0.7784731274623153,621,52,22.870036660538673,17.262092693734346
0.2841435172117915,0.7784653444328745,621,52,22.870036660538673,17.262092693734346
0.29192628663097986,0.7784575614911072,621,52,22.870036660538673,17.262092693734346
0.2997089704849369,0.7784497786362538,621,52,22.870036660538673,17.262092693734346
0.3074915693712639,0.7784419958676129,621,52,22.870036660538673,17.262092693734346
0.3152740838416419,0.7784342131845372,621,52,22.870036660538673,17.262092693734346
0.32305651440536404,0.7784264305864292,621,52,22.870036660538673,17.262092693734346
0.3308388615325982,0.7784186480727371,621,52,22.870036660538673,17.262092693734346
0.3386211256573961,0.7784108656429516,621,52,22.870036660538673,17.262092693734346
0.3464033071804729,0.7784030832966027,621,52,22.870036660538673,17.262092693734346
0.35418540647177194,0.778395301033256,621,52,22.870036660538673,17.262092693734346
0.36196742387283226,0.7783875188525112,621,52,22.870036660538673,17.262092693734346
0.36974935969897443,0.7783797367539982,621,52,22.870036660538673,17.262092693734346
0.37753121424131747,0.7783719547373753,621,52,22.870036660538673,17.262092693734346
0.3853129877686409,0.7783641728023274,621,52,22.870036660538673,17.262092693734346
0.393094680529104,0.7783563909485632,621,52,22.870036660538673,17.262092693734346
0.40087629275183234,0.7783486091758142,621,52,22.870036660538673,17.262092693734346
0.40865782464838135,0.7783408274838318,621,52,22.870036660538673,17.262092693734346
0.4164392764140895,0.7783330458723873,621,52,22.870036660538673,17.262092693734346
0.42422064822932526,0.7783252643412689,621,52,22.870036660538673,17.262092693734346
0.43200194026063915,0.7783174828902814,621,52,22.870036660538673,17.262092693734346
0.4397831526618267,0.7783097015192443,621,52,22.870036660538673,17.262092693734346
0.4475642855749102,0.7783019202279912,621,52,22.870036660538673,17.262092693734346
0.45534533913104425,0.778294139016368,621,52,22.870036660538673,17.262092693734346
0.4631263134513519,0.7782863578842331,621,52,22.870036660538673,17.262092693734346
0.47090720864769714,0.7782785768314551,621,52,22.870036660538673,17.262092693734346
0.47868802482339623,0.7782707958579129,621,52,22.870036660538673,17.262092693734346
0.4864687620738764,0.7782630149634947,621,52,22.870036660538673,17.262092693734346
0.4942494204872818,0.778255234148097,621,52,22.870036660538673,17.262092693734346
0.5020300001450352,0.7782474534116247,621,52,22.870036660538673,17.262092693734346
0.5098105011223538,0.7782396727539893,621,52,22.870036660538673,17.262092693734346
0.5175909234887277,0.7782318921751097,621,52,22.870036660538673,17.262092693734346
0.5253712673083599,0.7782241116749105,621,52,22.870036660538673,17.262092693734346
0.5331515326405735,0.7782163312533221,621,52,22.870036660538673,17.262092693734346
0.5409317195401868,0.7782085509102805,621,52,22.870036660538673,17.262092693734346
0.5487118280578606,0.7782007706457263,621,52,22.870036660538673,17.262092693734346
0.556491858240417,0.7781929904596048,621,52,22.870036660538673,17.262092693734346
0.5642718101311356,0.7781852103518652,621,52,22.870036660538673,17.262092693734346
0.5720516837700259,0.7781774303224606,621,52,22.870036660538673,17.262092693734346
0.5798314791940792,0.7781696503713479,621,52,22.870036660538673,17.262092693734346
0.5876111964374995,0.778161870498487,621,52,22.870036660538673,17.262092693734346
0.5953908355319197,0.7781540907038409,621,52,22.870036660538673,17.262092693734346
0.6031703965065985,0.7781463109873755,621,52,22.870036660538673,17.262092693734346
0.610949879388603,0.7781385313490591,621,52,22.870036660538673,17.262092693734346
0.6187292842029777,0.7781307517888624,621,52,22.870036660538673,17.262092693734346
0.6265086109728997,0.7781229723067583,621,52,22.870036660538673,17.262092693734346
0.6342878597198233,0.7781151929027219,621,52,22.870036660538673,17.262092693734346
0.6420670304636111,0.7781074135767299,621,52,22.870036660538673,17.262092693734346
0.6498461232226576,0.778099634328761,621,52,22.870036660538673,17.262092693734346
0.657625138014002,0.7780918551587951,621,52,22.870036660538673,17.262092693734346
0.665404074853432,0.778084076066814,621,52,22.870036660538673,17.262092693734346
0.6731829337555802,0.7780762970528006,621,52,22.870036660538673,17.262092693734346
0.6809617147340142,0.778068518116739,621,52,22.870036660538673,17.262092693734346
0.6887404178013162,0.7780607392586147,621,52,22.870036660538673,17.262092693734346
0.6965190429691609,0.7780529604784142,621,52,22.870036660538673,17.262092693734346
0.704297590248384,0.7780451817761248,621,52,22.870036660538673,17.262092693734346
0.7120760596490482,0.7780374031517349,621,52,22.870036660538673,17.262092693734346
0.7198544511805007,0.7780296246052335,621,52,22.870036660538673,17.262092693734346
0.7276327648514301,0.7780218461366106,621,52,22.870036660538673,17.262092693734346
0.7354110006699158,0.7780140677458571,621,52,22.870036660538673,17.262092693734346
0.7431891586434761,0.778006289432964,621,52,22.870036660538673,17.262092693734346
0.7509672387791096,0.7779985111979233,621,52,22.870036660538673,17.262092693734346
0.7587452410833371,0.7779907330407276,621,52,22.870036660538673,17.262092693734346
0.7665231655622371,0.7779829549613698,621,52,22.870036660538673,17.262092693734346
0.7743010122214802,0.7779751769598434,621,52,22.870036660538673,17.262092693734346
0.7820787810663608,0.7779673990361423,621,52,22.870036660538673,17.262092693734346
0.7898564721018251,0.7779596211902609,621,52,22.870036660538673,17.262092693734346
0.7976340853324994,0.7779518434221938,621,52,22.870036660538673,17.262092693734346
0.8054116207627129,0.7779440657319361,621,52,22.870036660538673,17.262092693734346
0.8131890783965228,0.7779362881194832,621,52,22.870036660538673,17.262092693734346
0.8209664582377326,0.7779285105848307,621,52,22.870036660538673,17.262092693734346
0.8287437602899138,0.7779207331279747,621,52,22.870036660538673,17.262092693734346
0.8365209845564224,0.7779129557489113,621,52,22.870036660538673,17.262092693734346
0.8442981310404166,0.7779051784476368,621,52,22.870036660538673,17.262092693734346
0.8520751997448708,0.7778974012241481,621,52,22.870036660538673,17.262092693734346
0.8598521906725906,0.7778896240784418,621,52,22.870036660538673,17.262092693734346
0.8676291038262255,0.777881847010515,621,52,22.870036660538673,17.262092693734346
0.8754059392082808,0.777874070020365,621,52,22.870036660538673,17.262092693734346
0.8831826968211294,0.7778662931079892,621,52,22.870036660538673,17.262092693734346
0.8909593766670209,0.7778585162733848,621,52,22.870036660538673,17.262092693734346
0.8987359787480917,0.7778507395165496,621,52,22.870036660538673,17.262092693734346
0.9065125030663738,0.7778429628374814,621,52,22.870036660538673,17.262092693734346
0.914288949623802,0.777835186236178,621,52,22.870036660538673,17.262092693734346
0.9220653184222234,0.7778274097126374,621,52,22.870036660538673,17.262092693734346
0.9298416094634012,0.7778196332668577,621,52,22.870036660538673,17.262092693734346
0.9376178227490237,0.7778118568988368,621,52,22.870036660538673,17.262092693734346
0.945393958280709,0.7778040806085733,621,52,22.870036660538673,17.262092693734346
0.9531700160600103,0.7777963043960653,621,52,22.870036660538673,17.262092693734346
0.9609459960884212,0.7777885282613113,621,52,22.870036660538673,17.262092693734346
0.9687218983673801,0.7777807522043095,621,52,22.870036660538673,17.262092693734346
0.9764977228982744,0.7777729762250588,621,52,22.870036660538673,17.262092693734346
0.9842734696824448,0.7777652003235574,621,52,22.870036660538673,17.262092693734346
0.9920491387211886,0.7777574244998041,621,52,22.870036660538673,17.262092693734346
0.9998247300157629,0.7777496487537976,621,52,22.870036660538673,17.262092693734346
1.0076002435673879,0.7777418730855364,621,52,22.870036660538673,17.262092693734346
1.0153756793772502,0.7777340974950194,621,52,22.870036660538673,17.262092693734346
1.0231510374465038,0.7777263219822453,621,52,22.870036660538673,17.262092693734346
1.030926317776275,0.7777185465472131,621,52,22.870036660538673,17.262092693734346
1.0387015203676624,0.7777107711899214,621,52,22.870036660538673,17.262092693734346
1.0464766452217396,0.7777029959103691,621,52,22.870036660538673,17.262092693734346
1.0542516923395584,0.7776952207085552,621,52,22.870036660538673,17.262092693734346
1.062026661722149,0.7776874455844787,621,52,22.870036660538673,17.262092693734346
1.0698015533705216,0.7776796705381384,621,52,22.870036660538673,17.262092693734346
1.077576367285669,0.7776718955695333,621,52,22.870036660538673,17.262092693734346
1.0853511034685677,0.7776641206786624,621,52,22.870036660538673,17.262092693734346
1.0931257619201777,0.7776563458655248,621,52,22.870036660538673,17.262092693734346
1.1009003426414465,0.7776485711301194,621,52,22.870036660538673,17.262092693734346
1.1086748456333073,0.7776407964724453,621,52,22.870036660538673,17.262092693734346
1.1164492708966811,0.7776330218925015,621,52,22.870036660538673,17.262092693734346
1.1242236184324794,0.777625247390287,621,52,22.870036660538673,17.262092693734346
1.1319978882416015,0.7776174729658012,621,52,22.870036660538673,17.262092693734346
1.139772080324938,0.7776096986190428,621,52,22.870036660538673,17.262092693734346
1.1475461946833714,0.7776019243500112,621,52,22.870036660538673,17.262092693734346
1.155320231317775,0.7775941501587053,621,52,22.870036660538673,17.262092693734346
1.1630941902290157,0.7775863760451243,621,52,22.870036660538673,17.262092693734346
1.1708680714179527,0.7775786020092672,621,52,22.870036660538673,17.262092693734346
1.1786418748854393,0.7775708280511334,621,52,22.870036660538673,17.262092693734346
1.1864156006323225,0.7775630541707219,621,52,22.870036660538673,17.262092693734346
1.1941892486594443,0.7775552803680318,621,52,22.870036660538673,17.262092693734346
1.2019628189676417,0.7775475066430623,621,52,22.870036660538673,17.262092693734346
1.2097363115577469,0.7775397329958126,621,52,22.870036660538673,17.262092693734346
1.217509726430588,0.7775319594262817,621,52,22.870036660538673,17.262092693734346
1.225283063586989,0.777524185934469,621,52,22.870036660538673,17.262092693734346
1.2330563230277702,0.7775164125203735,621,52,22.870036660538673,17.262092693734346
1.240829504753749,0.7775086391839945,621,52,22.870036660538673,17.262092693734346
1.2486026087657391,0.777500865925331,621,52,22.870036660538673,17.262092693734346
1.2563756350645519,0.7774930927443824,621,52,22.870036660538673,17.262092693734346
1.2641485836509956,0.7774853196411478,621,52,22.870036660538673,17.262092693734346
1.2719214545258761,0.7774775466156262,621,52,22.870036660538673,17.262092693734346
1.2796942476899977,0.7774697736678171,621,52,22.870036660538673,17.262092693734346
1.287466963144162,0.7774620007977195,621,52,22.870036660538673,17.262092693734346
1.295239600889169,0.7774542280053327,621,52,22.870036660538673,17.262092693734346
1.303012160925816,0.7774464552906558,621,52,22.870036660538673,17.262092693734346
1.3107846432549002,0.7774386826536881,621,52,22.870036660538673,17.262092693734346
1.3185570478772162,0.7774309100944287,621,52,22.870036660538673,17.262092693734346
1.3263293747935574,0.7774231376128768,621,52,22.870036660538673,17.262092693734346
1.3341016240047163,0.7774153652090318,621,52,22.870036660538673,17.262092693734346
1.3418737955114834,0.7774075928828927,621,52,22.870036660538673,17.262092693734346
1.34964588931465,0.7773998206344588,621,52,22.870036660538673,17.262092693734346
1.3574179054150033,0.7773920484637292,621,52,22.870036660538673,17.262092693734346
1.3651898438133327,0.7773842763707033,621,52,22.870036660538673,17.262092693734346
1.372961704510424,0.7773765043553802,621,52,22.870036660538673,17.262092693734346
1.380733487507065,0.7773687324177591,621,52,22.870036660538673,17.262092693734346
1.3885051928040397,0.7773609605578392,621,52,22.870036660538673,17.262092693734346
1.3962768204021343,0.7773531887756198,621,52,22.870036660538673,17.262092693734346
1.4040483703021323,0.7773454170710999,621,52,22.870036660538673,17.262092693734346
1.4118198425048178,0.7773376454442791,621,52,22.870036660538673,17.262092693734346
1.4195912370109733,0.7773298738951562,621,52,22.870036660538673,17.262092693734346
1.427362553821382,0.7773221024237307,621,52,22.870036660538673,17.262092693734346
1.4351337929368269,0.7773143310300017,621,52,22.870036660538673,17.262092693734346
1.442904954358088,0.7773065597139684,621,52,22.870036660538673,17.262092693734346
1.4506760380859478,0.77729878847563,621,52,22.870036660538673,17.262092693734346
1.458447044121187,0.777291017314986,621,52,22.870036660538673,17.262092693734346
1.4662179724645865,0.7772832462320353,621,52,22.870036660538673,17.262092693734346
1.4739888231169267,0.7772754752267771,621,52,22.870036660538673,17.262092693734346
1.481759596078988,0.7772677042992109,621,52,22.870036660538673,17.262092693734346
1.4895302913515494,0.7772599334493356,621,52,22.870036660538673,17.262092693734346
1.4973009089353913,0.7772521626771506,621,52,22.870036660538673,17.262092693734346
1.5050714488312924,0.7772443919826552,621,52,22.870036660538673,17.262092693734346
1.5128419110400317,0.7772366213658484,621,52,22.870036660538673,17.262092693734346
1.5206122955623884,0.7772288508267295,621,52,22.870036660538673,17.262092693734346
1.5283826023991414,0.7772210803652979,621,52,22.870036660538673,17.262092693734346
1.536152831551069,0.7772133099815526,621,52,22.870036660538673,17.262092693734346
1.5439229830189498,0.7772055396754929,621,52,22.870036660538673,17.262092693734346
1.5516930568035623,0.7771977694471179,621,52,22.870036660538673,17.262092693734346
1.559463052905684,0.7771899992964271,621,52,22.870036660538673,17.262092693734346
1.5672329713260942,0.7771822292234195,621,52,22.870036660538673,17.262092693734346
1.5750028120655695,0.7771744592280945,621,52,22.870036660538673,17.262092693734346
1.5827725751248882,0.7771666893104511,621,52,22.870036660538673,17.262092693734346
1.5905422605048283,0.7771589194704885,621,52,22.870036660538673,17.262092693734346
1.5983118682061668,0.7771511497082062,621,52,22.870036660538673,17.262092693734346
1.606081398229682,0.7771433800236033,621,52,22.870036660538673,17.262092693734346
1.6138508505761506,0.7771356104166789,621,52,22.870036660538673,17.262092693734346
1.6216202252463505,0.7771278408874324,621,52,22.870036660538673,17.262092693734346
1.6293895222410586,0.7771200714358628,621,52,22.870036660538673,17.262092693734346
1.6371587415610522,0.7771123020619696,621,52,22.870036660538673,17.262092693734346
1.6449278832071093,0.7771045327657519,621,52,22.870036660538673,17.262092693734346
1.6526969471800061,0.7770967635472088,621,52,22.870036660538673,17.262092693734346
1.6604659334805203,0.7770889944063396,621,52,22.870036660538673,17.262092693734346
1.6682348421094284,0.7770812253431437,621,52,22.870036660538673,17.262092693734346
1.6760036730675074,0.77707345635762,621,52,22.870036660538673,17.262092693734346
1.6837724263555347,0.7770656874497681,621,52,22.870036660538673,17.262092693734346
1.6915411019742868,0.7770579186195868,621,52,22.870036660538673,17.262092693734346
1.6993096999245407,0.7770501498670758,621,52,22.870036660538673,17.262092693734346
1.7070782202070733,0.7770423811922339,621,52,22.870036660538673,17.262092693734346
1.714846662822661,0.7770346125950605,621,52,22.870036660538673,17.262092693734346
1.722615027772081,0.7770268440755549,621,52,22.870036660538673,17.262092693734346
1.73038331505611,0.7770190756337161,621,52,22.870036660538673,17.262092693734346
1.7381515246755248,0.7770113072695436,621,52,22.870036660538673,17.262092693734346
1.7459196566311022,0.7770035389830363,621,52,22.870036660538673,17.262092693734346
1.7536877109236184,0.7769957707741938,621,52,22.870036660538673,17.262092693734346
1.7614556875538496,0.776988002643015,621,52,22.870036660538673,17.262092693734346
1.7692235865225734,0.7769802345894994,621,52,22.870036660538673,17.262092693734346
1.776991407830566,0.7769724666136459,621,52,22.870036660538673,17.262092693734346
1.7847591514786043,0.776964698715454,621,52,22.870036660538673,17.262092693734346
1.7925268174674647,0.7769569308949228,621,52,22.870036660538673,17.262092693734346
1.8002944057979233,0.7769491631520515,621,52,22.870036660538673,17.262092693734346
1.808061916470757,0.7769413954868395,621,52,22.870036660538673,17.262092693734346
1.8158293494867421,0.7769336278992858,621,52,22.870036660538673,17.262092693734346
1.8235967048466555,0.7769258603893897,621,52,22.870036660538673,17.262092693734346
1.8313639825512733,0.7769180929571505,621,52,22.870036660538673,17.262092693734346
1.839131182601372,0.7769103256025673,621,52,22.870036660538673,17.262092693734346
