Vout,Iout,Irradiance,Temperature,MaxVoltage,MaxPower
0.000626193978904049,0.12524,101,45,22.697952929137728,2.327195900510624
0.0018785703577928075,0.12524,101,45,22.697952929137728,2.327195900510624
0.003130921276183909,0.1252393612820211,101,45,22.697952929137728,2.327195900510624
0.004383242185567878,0.1252381089056422,101,45,22.697952929137728,2.327195900510624
0.005635531599412906,0.12523685655478767,101,45,22.697952929137728,2.327195900510624
0.006887790977965746,0.12523560423400354,101,45,22.697952929137728,2.327195900510624
0.008140021669170714,0.1252343519447149,101,45,22.697952929137728,2.327195900510624
0.009392224917282683,0.1252330996854616,101,45,22.697952929137728,2.327195900510624
0.010644401870831223,0.12523184745489563,101,45,22.697952929137728,2.327195900510624
0.01189655358998587,0.12523059525177274,101,45,22.697952929137728,2.327195900510624
0.013148681053354675,0.1252293430749444,101,45,22.697952929137728,2.327195900510624
0.014400785164259675,0.12522809092335047,101,45,22.697952929137728,2.327195900510624
0.01565286675652952,0.12522683879601232,101,45,22.697952929137728,2.327195900510624
0.016904926599846406,0.12522558669202663,101,45,22.697952929137728,2.327195900510624
0.018156965404681587,0.12522433461055957,101,45,22.697952929137728,2.327195900510624
0.019408983826851176,0.12522308255084147,101,45,22.697952929137728,2.327195900510624
0.0206609824717214,0.12522183051216185,101,45,22.697952929137728,2.327195900510624
0.021912961898090264,0.1252205784938649,101,45,22.697952929137728,2.327195900510624
0.02316492262177063,0.12521932649534523,101,45,22.697952929137728,2.327195900510624
0.02441686511889751,0.12521807451604405,101,45,22.697952929137728,2.327195900510624
0.025668789828980982,0.12521682255544558,101,45,22.697952929137728,2.327195900510624
0.02692069715772415,0.12521557061307365,101,45,22.697952929137728,2.327195900510624
0.028172587479624315,0.12521431868848876,101,45,22.697952929137728,2.327195900510624
0.029424461140373982,0.12521306678128521,101,45,22.697952929137728,2.327195900510624
0.030676318459077163,0.12521181489108849,101,45,22.697952929137728,2.327195900510624
0.03192815973029514,0.12521056301755293,101,45,22.697952929137728,2.327195900510624
0.033179985225934815,0.12520931116035944,101,45,22.697952929137728,2.327195900510624
0.03443179519699175,0.1252080593192134,101,45,22.697952929137728,2.327195900510624
0.03568358987515916,0.12520680749384294,101,45,22.697952929137728,2.327195900510624
0.03693536947431306,0.12520555568399708,101,45,22.697952929137728,2.327195900510624
0.03818713419188308,0.1252043038894441,101,45,22.697952929137728,2.327195900510624
0.039438884210117986,0.1252030521099701,101,45,22.697952929137728,2.327195900510624
0.04069061969725365,0.12520180034537773,101,45,22.697952929137728,2.327195900510624
0.04194234080859121,0.12520054859548466,101,45,22.697952929137728,2.327195900510624
0.04319404768749233,0.1251992968601227,101,45,22.697952929137728,2.327195900510624
0.04444574046629784,0.12519804513913654,101,45,22.697952929137728,2.327195900510624
0.045697419267175673,0.12519679343238282,101,45,22.697952929137728,2.327195900510624
0.0469490842029036,0.1251955417397292,101,45,22.697952929137728,2.327195900510624
0.04820073537759171,0.12519429006105348,101,45,22.697952929137728,2.327195900510624
0.04945237288734935,0.1251930383962429,101,45,22.697952929137728,2.327195900510624
0.050703996820900626,0.12519178674519338,101,45,22.697952929137728,2.327195900510624
0.051955607260152775,0.1251905351078088,101,45,22.697952929137728,2.327195900510624
0.05320720428072051,0.1251892834840004,101,45,22.697952929137728,2.327195900510624
0.054458787952410326,0.12518803187368632,101,45,22.697952929137728,2.327195900510624
0.05571035833966724,0.12518678027679092,101,45,22.697952929137728,2.327195900510624
0.05696191550198749,0.1251855286932444,101,45,22.697952929137728,2.327195900510624
0.05821345949429911,0.1251842771229823,101,45,22.697952929137728,2.327195900510624
0.05946499036731357,0.12518302556594513,101,45,22.697952929137728,2.327195900510624
0.06071650816785013,0.12518177402207797,101,45,22.697952929137728,2.327195900510624
0.06196801293913532,0.12518052249133013,101,45,22.697952929137728,2.327195900510624
0.06321950472107936,0.12517927097365475,101,45,22.697952929137728,2.327195900510624
0.06447098355053137,0.1251780194690086,101,45,22.697952929137728,2.327195900510624
0.06572244946151484,0.1251767679773518,101,45,22.697952929137728,2.327195900510624
0.06697390248544507,0.1251755164986475,101,45,22.697952929137728,2.327195900510624
0.06822534265132989,0.12517426503286166,101,45,22.697952929137728,2.327195900510624
0.06947676998595473,0.12517301357996288,101,45,22.697952929137728,2.327195900510624
0.07072818451405383,0.12517176213992215,101,45,22.697952929137728,2.327195900510624
0.07197958625846794,0.12517051071271268,101,45,22.697952929137728,2.327195900510624
0.07323097524028999,0.12516925929830972,101,45,22.697952929137728,2.327195900510624
0.07448235147899968,0.12516800789669044,101,45,22.697952929137728,2.327195900510624
0.07573371499258746,0.12516675650783377,101,45,22.697952929137728,2.327195900510624
0.07698506579766924,0.1251655051317202,101,45,22.697952929137728,2.327195900510624
0.07823640390959208,0.12516425376833176,101,45,22.697952929137728,2.327195900510624
0.07948772934253182,0.1251630024176518,101,45,22.697952929137728,2.327195900510624
0.08073904210958324,0.125161751079665,101,45,22.697952929137728,2.327195900510624
0.08199034222284321,0.12516049975435722,101,45,22.697952929137728,2.327195900510624
0.08324162969348745,0.1251592484417153,101,45,22.697952929137728,2.327195900510624
0.08449290453184141,0.12515799714172718,101,45,22.697952929137728,2.327195900510624
0.08574416674744573,0.12515674585438166,101,45,22.697952929137728,2.327195900510624
0.08699541634911662,0.12515549457966843,101,45,22.697952929137728,2.327195900510624
0.08824665334500154,0.12515424331757796,101,45,22.697952929137728,2.327195900510624
0.08949787774263071,0.1251529920681014,101,45,22.697952929137728,2.327195900510624
0.09074908954896459,0.12515174083123065,101,45,22.697952929137728,2.327195900510624
0.09200028877043771,0.12515048960695815,101,45,22.697952929137728,2.327195900510624
0.09325147541299912,0.12514923839527695,101,45,22.697952929137728,2.327195900510624
0.09450264948214979,0.1251479871961806,101,45,22.697952929137728,2.327195900510624
0.095753810982977,0.12514673600966314,101,45,22.697952929137728,2.327195900510624
0.09700495992018633,0.12514548483571913,101,45,22.697952929137728,2.327195900510624
0.09825609629813084,0.1251442336743434,101,45,22.697952929137728,2.327195900510624
0.09950722012083833,0.12514298252553133,101,45,22.697952929137728,2.327195900510624
0.10075833139203626,0.1251417313892785,101,45,22.697952929137728,2.327195900510624
0.10200943011517496,0.1251404802655809,101,45,22.697952929137728,2.327195900510624
0.1032605162934489,0.12513922915443482,101,45,22.697952929137728,2.327195900510624
0.10451158992981636,0.1251379780558368,101,45,22.697952929137728,2.327195900510624
0.10576265102701768,0.12513672696978362,101,45,22.697952929137728,2.327195900510624
0.10701369958759191,0.12513547589627236,101,45,22.697952929137728,2.327195900510624
0.10826473561389238,0.12513422483530026,101,45,22.697952929137728,2.327195900510624
0.10951575910810102,0.1251329737868648,101,45,22.697952929137728,2.327195900510624
0.1107667700722414,0.12513172275096363,101,45,22.697952929137728,2.327195900510624
0.1120177685081911,0.1251304717275945,101,45,22.697952929137728,2.327195900510624
0.11326875441769284,0.12512922071675547,101,45,22.697952929137728,2.327195900510624
0.11451972780236484,0.12512796971844461,101,45,22.697952929137728,2.327195900510624
0.11577068866371049,0.12512671873266024,101,45,22.697952929137728,2.327195900510624
0.11702163700312701,0.12512546775940064,101,45,22.697952929137728,2.327195900510624
0.11827257282191389,0.1251242167986644,101,45,22.697952929137728,2.327195900510624
0.11952349612128015,0.12512296585045007,101,45,22.697952929137728,2.327195900510624
0.12077440690235142,0.1251217149147564,101,45,22.697952929137728,2.327195900510624
0.12202530516617635,0.12512046399158214,101,45,22.697952929137728,2.327195900510624
0.12327619091373254,0.12511921308092613,101,45,22.697952929137728,2.327195900510624
0.124527064145932,0.12511796218278742,101,45,22.697952929137728,2.327195900510624
0.1257779248636261,0.12511671129716495,101,45,22.697952929137728,2.327195900510624
0.12702877306761048,0.12511546042405783,101,45,22.697952929137728,2.327195900510624
0.12827960875862904,0.12511420956346522,101,45,22.697952929137728,2.327195900510624
0.12953043193737812,0.12511295871538633,101,45,22.697952929137728,2.327195900510624
0.13078124260451007,0.1251117078798204,101,45,22.697952929137728,2.327195900510624
0.13203204076063674,0.12511045705676674,101,45,22.697952929137728,2.327195900510624
0.13328282640633238,0.12510920624622468,101,45,22.697952929137728,2.327195900510624
0.13453359954213687,0.12510795544819364,101,45,22.697952929137728,2.327195900510624
0.13578436016855797,0.12510670466267304,101,45,22.697952929137728,2.327195900510624
0.13703510828607415,0.12510545388966232,101,45,22.697952929137728,2.327195900510624
0.13828584389513657,0.12510420312916096,101,45,22.697952929137728,2.327195900510624
0.13953656699617137,0.12510295238116853,101,45,22.697952929137728,2.327195900510624
0.14078727758958148,0.12510170164568454,101,45,22.697952929137728,2.327195900510624
0.14203797567574847,0.12510045092270858,101,45,22.697952929137728,2.327195900510624
0.14328866125503412,0.12509920021224025,101,45,22.697952929137728,2.327195900510624
0.14453933432778215,0.12509794951427916,101,45,22.697952929137728,2.327195900510624
0.14578999489431912,0.12509669882882493,101,45,22.697952929137728,2.327195900510624
0.14704064295495647,0.12509544815587725,101,45,22.697952929137728,2.327195900510624
0.148291278509991,0.1250941974954358,101,45,22.697952929137728,2.327195900510624
0.14954190155970648,0.12509294684750022,101,45,22.697952929137728,2.327195900510624
0.15079251210437433,0.12509169621207025,101,45,22.697952929137728,2.327195900510624
0.15204311014425478,0.1250904455891456,101,45,22.697952929137728,2.327195900510624
0.15329369567959766,0.125089194978726,101,45,22.697952929137728,2.327195900510624
0.15454426871064314,0.12508794438081117,101,45,22.697952929137728,2.327195900510624
0.15579482923762256,0.12508669379540088,101,45,22.697952929137728,2.327195900510624
0.1570453772607591,0.1250854432224949,101,45,22.697952929137728,2.327195900510624
0.15829591278026833,0.12508419266209297,101,45,22.697952929137728,2.327195900510624
0.1595464357963589,0.1250829421141949,101,45,22.697952929137728,2.327195900510624
0.160796946309233,0.12508169157880045,101,45,22.697952929137728,2.327195900510624
0.16204744431908683,0.12508044105590943,101,45,22.697952929137728,2.327195900510624
0.16329792982611124,0.1250791905455216,101,45,22.697952929137728,2.327195900510624
0.16454840283049185,0.1250779400476368,101,45,22.697952929137728,2.327195900510624
0.16579886333240976,0.12507668956225482,101,45,22.697952929137728,2.327195900510624
0.16704931133204168,0.1250754390893755,101,45,22.697952929137728,2.327195900510624
0.16829974682956028,0.12507418862899863,101,45,22.697952929137728,2.327195900510624
0.16955016982513468,0.12507293818112403,101,45,22.697952929137728,2.327195900510624
0.17080058031893053,0.12507168774575156,101,45,22.697952929137728,2.327195900510624
0.17205097831111044,0.12507043732288103,101,45,22.697952929137728,2.327195900510624
0.1733013638018339,0.1250691869125123,101,45,22.697952929137728,2.327195900510624
0.17455173679125802,0.12506793651464515,101,45,22.697952929137728,2.327195900510624
0.17580209727953727,0.12506668612927946,101,45,22.697952929137728,2.327195900510624
0.17705244526682395,0.12506543575641507,101,45,22.697952929137728,2.327195900510624
0.1783027807532681,0.12506418539605185,101,45,22.697952929137728,2.327195900510624
0.17955310373901798,0.12506293504818958,101,45,22.697952929137728,2.327195900510624
0.18080341422422003,0.1250616847128282,101,45,22.697952929137728,2.327195900510624
0.18205371220901903,0.12506043438996747,101,45,22.697952929137728,2.327195900510624
0.18330399769355818,0.1250591840796073,101,45,22.697952929137728,2.327195900510624
0.1845542706779793,0.12505793378174754,101,45,22.697952929137728,2.327195900510624
0.18580453116242288,0.12505668349638802,101,45,22.697952929137728,2.327195900510624
0.18705477914702842,0.12505543322352863,101,45,22.697952929137728,2.327195900510624
0.18830501463193397,0.12505418296316922,101,45,22.697952929137728,2.327195900510624
0.18955523761727688,0.12505293271530965,101,45,22.697952929137728,2.327195900510624
0.1908054481031933,0.12505168247994977,101,45,22.697952929137728,2.327195900510624
0.1920556460898187,0.12505043225708945,101,45,22.697952929137728,2.327195900510624
0.19330583157728765,0.12504918204672855,101,45,22.697952929137728,2.327195900510624
0.194556004565734,0.12504793184886695,101,45,22.697952929137728,2.327195900510624
0.19580616505529091,0.1250466816635045,101,45,22.697952929137728,2.327195900510624
0.19705631304609095,0.12504543149064107,101,45,22.697952929137728,2.327195900510624
0.198306448538266,0.12504418133027653,101,45,22.697952929137728,2.327195900510624
0.19955657153194747,0.12504293118241075,101,45,22.697952929137728,2.327195900510624
0.20080668202726634,0.12504168104704358,101,45,22.697952929137728,2.327195900510624
0.20205678002435298,0.1250404309241749,101,45,22.697952929137728,2.327195900510624
0.2033068655233375,0.1250391808138046,101,45,22.697952929137728,2.327195900510624
0.2045569385243495,0.12503793071593255,101,45,22.697952929137728,2.327195900510624
0.20580699902751817,0.12503668063055856,101,45,22.697952929137728,2.327195900510624
0.2070570470329726,0.12503543055768257,101,45,22.697952929137728,2.327195900510624
0.20830708254084132,0.12503418049730441,101,45,22.697952929137728,2.327195900510624
0.20955710555125273,0.12503293044942396,101,45,22.697952929137728,2.327195900510624
0.21080711606433486,0.12503168041404109,101,45,22.697952929137728,2.327195900510624
0.21205711408021558,0.1250304303911557,101,45,22.697952929137728,2.327195900510624
0.2133070995990225,0.1250291803807676,101,45,22.697952929137728,2.327195900510624
0.21455707262088305,0.12502793038287674,101,45,22.697952929137728,2.327195900510624
0.21580703314592442,0.12502668039748294,101,45,22.697952929137728,2.327195900510624
0.21705698117427363,0.12502543042458608,101,45,22.697952929137728,2.327195900510624
0.21830691670605767,0.12502418046418604,101,45,22.697952929137728,2.327195900510624
0.21955683974140316,0.1250229305162827,101,45,22.697952929137728,2.327195900510624
0.22080675028043673,0.1250216805808759,101,45,22.697952929137728,2.327195900510624
0.2220566483232848,0.12502043065796553,101,45,22.697952929137728,2.327195900510624
0.22330653387007374,0.1250191807475515,101,45,22.697952929137728,2.327195900510624
0.22455640692092976,0.12501793084963364,101,45,22.697952929137728,2.327195900510624
0.2258062674759791,0.12501668096421184,101,45,22.697952929137728,2.327195900510624
0.22705611553534766,0.125015431091286,101,45,22.697952929137728,2.327195900510624
0.2283059510991615,0.12501418123085592,101,45,22.697952929137728,2.327195900510624
0.22955577416754636,0.12501293138292152,101,45,22.697952929137728,2.327195900510624
0.23080558474062812,0.1250116815474827,101,45,22.697952929137728,2.327195900510624
0.23205538281853252,0.1250104317245393,101,45,22.697952929137728,2.327195900510624
0.23330516840138518,0.12500918191409122,101,45,22.697952929137728,2.327195900510624
0.23455494148931172,0.12500793211613828,101,45,22.697952929137728,2.327195900510624
0.2358047020824377,0.1250066823306804,101,45,22.697952929137728,2.327195900510624
0.23705445018088867,0.12500543255771746,101,45,22.697952929137728,2.327195900510624
0.23830418578479,0.1250041827972493,101,45,22.697952929137728,2.327195900510624
0.23955390889426717,0.12500293304927584,101,45,22.697952929137728,2.327195900510624
0.2408036195094455,0.1250016833137969,101,45,22.697952929137728,2.327195900510624
0.2420533176304504,0.12500043359081242,101,45,22.697952929137728,2.327195900510624
0.24330300325740714,0.12499918388032222,101,45,22.697952929137728,2.327195900510624
0.24455267639044098,0.12499793418232619,101,45,22.697952929137728,2.327195900510624
0.24580233702967716,0.12499668449682419,101,45,22.697952929137728,2.327195900510624
0.24705198517524093,0.12499543482381613,101,45,22.697952929137728,2.327195900510624
0.2483016208272574,0.12499418516330187,101,45,22.697952929137728,2.327195900510624
0.24955124398585182,0.12499293551528126,101,45,22.697952929137728,2.327195900510624
0.2508008546511493,0.12499168587975422,101,45,22.697952929137728,2.327195900510624
0.252050452823275,0.12499043625672059,101,45,22.697952929137728,2.327195900510624
0.253300038502354,0.12498918664618025,101,45,22.697952929137728,2.327195900510624
0.2545496116885113,0.12498793704813309,101,45,22.697952929137728,2.327195900510624
0.2557991723818723,0.12498668746257897,101,45,22.697952929137728,2.327195900510624
0.2570487205825616,0.12498543788951777,101,45,22.697952929137728,2.327195900510624
0.2582982562907046,0.12498418832894938,101,45,22.697952929137728,2.327195900510624
0.25954777950642616,0.12498293878087365,101,45,22.697952929137728,2.327195900510624
0.2607972902298514,0.12498168924529045,101,45,22.697952929137728,2.327195900510624
0.2620467884611053,0.12498043972219969,101,45,22.697952929137728,2.327195900510624
0.26329627420031276,0.12497919021160121,101,45,22.697952929137728,2.327195900510624
0.264545747447599,0.12497794071349491,101,45,22.697952929137728,2.327195900510624
0.2657952082030888,0.12497669122788066,101,45,22.697952929137728,2.327195900510624
0.2670446564669071,0.12497544175475832,101,45,22.697952929137728,2.327195900510624
0.2682940922391791,0.12497419229412778,101,45,22.697952929137728,2.327195900510624
0.2695435155200296,0.12497294284598891,101,45,22.697952929137728,2.327195900510624
0.2707929263095835,0.12497169341034157,101,45,22.697952929137728,2.327195900510624
0.2720423246079659,0.12497044398718568,101,45,22.697952929137728,2.327195900510624
0.27329171041530165,0.12496919457652106,101,45,22.697952929137728,2.327195900510624
0.2745410837317157,0.12496794517834763,101,45,22.697952929137728,2.327195900510624
0.27579044455733304,0.12496669579266523,101,45,22.697952929137728,2.327195900510624
0.2770397928922784,0.12496544641947376,101,45,22.697952929137728,2.327195900510624
0.27828912873667694,0.12496419705877308,101,45,22.697952929137728,2.327195900510624
0.27953845209065337,0.12496294771056307,101,45,22.697952929137728,2.327195900510624
0.28078776295433266,0.12496169837484361,101,45,22.697952929137728,2.327195900510624
0.28203706132783984,0.12496044905161456,101,45,22.697952929137728,2.327195900510624
0.2832863472112997,0.12495919974087583,101,45,22.697952929137728,2.327195900510624
0.28453562060483717,0.12495795044262724,101,45,22.697952929137728,2.327195900510624
0.28578488150857717,0.12495670115686872,101,45,22.697952929137728,2.327195900510624
0.2870341299226445,0.1249554518836001,101,45,22.697952929137728,2.327195900510624
0.28828336584716413,0.1249542026228213,101,45,22.697952929137728,2.327195900510624
0.28953258928226094,0.12495295337453216,101,45,22.697952929137728,2.327195900510624
0.2907818002280597,0.12495170413873256,101,45,22.697952929137728,2.327195900510624
0.2920309986846854,0.1249504549154224,101,45,22.697952929137728,2.327195900510624
0.293280184652263,0.12494920570460151,101,45,22.697952929137728,2.327195900510624
0.29452935813091724,0.12494795650626982,101,45,22.697952929137728,2.327195900510624
