Vout,Iout,Irradiance,Temperature,MaxVoltage,MaxPower
0.0054004780723262286,1.080106,881,38,22.879382741485504,24.18917366915601
0.016201334357027773,1.080106,881,38,22.879382741485504,24.18917366915601
0.027001971063030164,1.0801004915113277,881,38,22.879382741485504,24.18917366915601
0.037802348962671505,1.080089690655043,881,38,22.879382741485504,24.18917366915601
0.048602455235671325,1.0800788900188878,881,38,22.879382741485504,24.18917366915601
0.05940230247562018,1.0800680896420682,881,38,22.879382741485504,24.18917366915601
0.0702019023075799,1.0800572895368754,881,38,22.879382741485504,24.18917366915601
0.0810012654623645,1.0800464896907154,881,38,22.879382741485504,24.18917366915601
0.09180040184522542,1.0800356900919634,881,38,22.879382741485504,24.18917366915601
0.10259932059937146,1.0800248907298886,881,38,22.879382741485504,24.18917366915601
0.1133980301646016,1.0800140915945857,881,38,22.879382741485504,24.18917366915601
0.12419653833142655,1.0800032926769116,881,38,22.879382741485504,24.18917366915601
0.1349948522910258,1.0799924939684262,881,38,22.879382741485504,24.18917366915601
0.14579297868136137,1.0799816954613393,881,38,22.879382741485504,24.18917366915601
0.15659092362974295,1.0799708971484596,881,38,22.879382741485504,24.18917366915601
0.16738869279211843,1.079960099023149,881,38,22.879382741485504,24.18917366915601
0.17818629138934136,1.0799493010792804,881,38,22.879382741485504,24.18917366915601
0.18898372424064744,1.079938503311198,881,38,22.879382741485504,24.18917366915601
0.1997809957945559,1.0799277057136805,881,38,22.879382741485504,24.18917366915601
0.21057811015739308,1.0799169082819091,881,38,22.879382741485504,24.18917366915601
0.22137507111962096,1.079906111011435,881,38,22.879382741485504,24.18917366915601
0.23217188218014054,1.0798953138981517,881,38,22.879382741485504,24.18917366915601
0.24296854656872482,1.0798845169382694,881,38,22.879382741485504,24.18917366915601
0.2537650672667261,1.0798737201282884,881,38,22.879382741485504,24.18917366915601
0.2645614470261897,1.0798629234649797,881,38,22.879382741485504,24.18917366915601
0.27535768838749736,1.0798521269453614,881,38,22.879382741485504,24.18917366915601
0.28615379369565275,1.0798413305666814,881,38,22.879382741485504,24.18917366915601
0.29694976511531446,1.0798305343263999,881,38,22.879382741485504,24.18917366915601
0.3077456046446717,1.0798197382221713,881,38,22.879382741485504,24.18917366915601
0.3185413141282529,1.0798089422518313,881,38,22.879382741485504,24.18917366915601
0.32933689526874865,1.0797981464133815,881,38,22.879382741485504,24.18917366915601
0.3401323496379249,1.0797873507049776,881,38,22.879382741485504,24.18917366915601
0.35092767868669633,1.0797765551249165,881,38,22.879382741485504,24.18917366915601
0.36172288375442524,1.079765759671627,881,38,22.879382741485504,24.18917366915601
0.372517966077504,1.0797549643436577,881,38,22.879382741485504,24.18917366915601
0.383312926797278,1.0797441691396696,881,38,22.879382741485504,24.18917366915601
0.3941077669673592,1.079733374058426,881,38,22.879382741485504,24.18917366915601
0.40490248756037545,1.0797225790987859,881,38,22.879382741485504,24.18917366915601
0.41569708947420236,1.0797117842596953,881,38,22.879382741485504,24.18917366915601
0.4264915735377146,1.0797009895401817,881,38,22.879382741485504,24.18917366915601
0.4372859405160948,1.0796901949393474,881,38,22.879382741485504,24.18917366915601
0.44808019111573455,1.0796794004563632,881,38,22.879382741485504,24.18917366915601
0.4588743259887571,1.0796686060904643,881,38,22.879382741485504,24.18917366915601
0.46966834573719357,1.0796578118409443,881,38,22.879382741485504,24.18917366915601
0.480462250916837,1.0796470177071507,881,38,22.879382741485504,24.18917366915601
0.4912560420407995,1.0796362236884816,881,38,22.879382741485504,24.18917366915601
0.5020497195827968,1.0796254297843815,881,38,22.879382741485504,24.18917366915601
0.5128432839801791,1.0796146359943368,881,38,22.879382741485504,24.18917366915601
0.5236367356367292,1.0796038423178742,881,38,22.879382741485504,24.18917366915601
0.5344300749252453,1.0795930487545562,881,38,22.879382741485504,24.18917366915601
0.5452233021899248,1.079582255303979,881,38,22.879382741485504,24.18917366915601
0.5560164177485648,1.07957146196577,881,38,22.879382741485504,24.18917366915601
0.5668094218945943,1.0795606687395845,881,38,22.879382741485504,24.18917366915601
0.5776023148989474,1.0795498756251052,881,38,22.879382741485504,24.18917366915601
0.588395097011796,1.0795390826220386,881,38,22.879382741485504,24.18917366915601
0.5991877684641461,1.0795282897301135,881,38,22.879382741485504,24.18917366915601
0.6099803294693124,1.07951749694908,881,38,22.879382741485504,24.18917366915601
0.6207727802242798,1.079506704278707,881,38,22.879382741485504,24.18917366915601
0.6315651209109607,1.079495911718781,881,38,22.879382741485504,24.18917366915601
0.642357351697353,1.0794851192691053,881,38,22.879382741485504,24.18917366915601
0.6531494727386118,1.079474326929498,881,38,22.879382741485504,24.18917366915601
0.6639414841780374,1.0794635346997907,881,38,22.879382741485504,24.18917366915601
0.6747333861479875,1.0794527425798288,881,38,22.879382741485504,24.18917366915601
0.6855251787707184,1.0794419505694686,881,38,22.879382741485504,24.18917366915601
0.6963168621591634,1.0794311586685779,881,38,22.879382741485504,24.18917366915601
0.7071084364176493,1.0794203668770341,881,38,22.879382741485504,24.18917366915601
0.7178999016425587,1.079409575194725,881,38,22.879382741485504,24.18917366915601
0.7286912579229415,1.0793987836215457,881,38,22.879382741485504,24.18917366915601
0.739482505341079,1.0793879921574,881,38,22.879382741485504,24.18917366915601
0.7502736439730044,1.0793772008021987,881,38,22.879382741485504,24.18917366915601
0.7610646738889841,1.0793664095558597,881,38,22.879382741485504,24.18917366915601
0.7718555951539606,1.0793556184183069,881,38,22.879382741485504,24.18917366915601
0.7826464078279629,1.0793448273894701,881,38,22.879382741485504,24.18917366915601
0.7934371119664845,1.0793340364692843,881,38,22.879382741485504,24.18917366915601
0.8042277076208315,1.0793232456576893,881,38,22.879382741485504,24.18917366915601
0.8150181948384462,1.0793124549546298,881,38,22.879382741485504,24.18917366915601
0.8258085736632026,1.0793016643600546,881,38,22.879382741485504,24.18917366915601
0.8365988441356826,1.079290873873916,881,38,22.879382741485504,24.18917366915601
0.8473890062934288,1.0792800834961704,881,38,22.879382741485504,24.18917366915601
0.858179060171178,1.079269293226777,881,38,22.879382741485504,24.18917366915601
0.8689690058010765,1.0792585030656983,881,38,22.879382741485504,24.18917366915601
0.8797588432128817,1.0792477130128995,881,38,22.879382741485504,24.18917366915601
0.8905485724341429,1.0792369230683487,881,38,22.879382741485504,24.18917366915601
0.9013381934903735,1.0792261332320159,881,38,22.879382741485504,24.18917366915601
0.9121277064052068,1.0792153435038736,881,38,22.879382741485504,24.18917366915601
0.9229171112005405,1.0792045538838964,881,38,22.879382741485504,24.18917366915601
0.9337064078966704,1.0791937643720604,881,38,22.879382741485504,24.18917366915601
0.9444955965124137,1.0791829749683441,881,38,22.879382741485504,24.18917366915601
0.9552846770652228,1.079172185672727,881,38,22.879382741485504,24.18917366915601
0.9660736495712903,1.07916139648519,881,38,22.879382741485504,24.18917366915601
0.9768625140456461,1.0791506074057162,881,38,22.879382741485504,24.18917366915601
0.9876512705022458,1.079139818434289,881,38,22.879382741485504,24.18917366915601
0.9984399189540547,1.0791290295708935,881,38,22.879382741485504,24.18917366915601
1.0092284594131242,1.079118240815516,881,38,22.879382741485504,24.18917366915601
1.02001689189066,1.079107452168143,881,38,22.879382741485504,24.18917366915601
1.0308052163970902,1.0790966636287629,881,38,22.879382741485504,24.18917366915601
1.0415934329421215,1.0790858751973642,881,38,22.879382741485504,24.18917366915601
1.0523815415347988,1.0790750868739365,881,38,22.879382741485504,24.18917366915601
1.0631695421835525,1.0790642986584704,881,38,22.879382741485504,24.18917366915601
1.0739574348962484,1.0790535105509564,881,38,22.879382741485504,24.18917366915601
1.084745219680229,1.0790427225513866,881,38,22.879382741485504,24.18917366915601
1.0955328965423556,1.0790319346597528,881,38,22.879382741485504,24.18917366915601
1.106320465489044,1.0790211468760476,881,38,22.879382741485504,24.18917366915601
1.1171079265263002,1.0790103592002642,881,38,22.879382741485504,24.18917366915601
1.1278952796597497,1.0789995716323963,881,38,22.879382741485504,24.18917366915601
1.1386825248946695,1.0789887841724377,881,38,22.879382741485504,24.18917366915601
1.1494696622360119,1.0789779968203832,881,38,22.879382741485504,24.18917366915601
1.1602566916884332,1.0789672095762268,881,38,22.879382741485504,24.18917366915601
1.1710436132563125,1.0789564224399644,881,38,22.879382741485504,24.18917366915601
1.181830426943776,1.0789456354115907,881,38,22.879382741485504,24.18917366915601
1.1926171327547148,1.0789348484911014,881,38,22.879382741485504,24.18917366915601
1.203403730692804,1.0789240616784928,881,38,22.879382741485504,24.18917366915601
1.2141902207615187,1.0789132749737604,881,38,22.879382741485504,24.18917366915601
1.2249766029641491,1.078902488376901,881,38,22.879382741485504,24.18917366915601
1.2357628773038165,1.078891701887911,881,38,22.879382741485504,24.18917366915601
1.2465490437834834,1.078880915506787,881,38,22.879382741485504,24.18917366915601
1.2573351024059685,1.078870129233526,881,38,22.879382741485504,24.18917366915601
1.2681210531739557,1.078859343068125,881,38,22.879382741485504,24.18917366915601
1.278906896090006,1.078848557010581,881,38,22.879382741485504,24.18917366915601
1.289692631156566,1.0788377710608918,881,38,22.879382741485504,24.18917366915601
1.3004782583759766,1.0788269852190544,881,38,22.879382741485504,24.18917366915601
1.3112637777504828,1.0788161994850662,881,38,22.879382741485504,24.18917366915601
1.3220491892822381,1.0788054138589256,881,38,22.879382741485504,24.18917366915601
1.3328344929733147,1.0787946283406296,881,38,22.879382741485504,24.18917366915601
1.3436196888257075,1.0787838429301764,881,38,22.879382741485504,24.18917366915601
1.3544047768413408,1.0787730576275638,881,38,22.879382741485504,24.18917366915601
1.3651897570220741,1.07876227243279,881,38,22.879382741485504,24.18917366915601
1.3759746293697068,1.0787514873458528,881,38,22.879382741485504,24.18917366915601
1.3867593938859826,1.0787407023667508,881,38,22.879382741485504,24.18917366915601
1.3975440505725938,1.0787299174954816,881,38,22.879382741485504,24.18917366915601
1.4083285994311863,1.0787191327320438,881,38,22.879382741485504,24.18917366915601
1.4191130404633607,1.0787083480764357,881,38,22.879382741485504,24.18917366915601
1.4298973736706788,1.0786975635286555,881,38,22.879382741485504,24.18917366915601
1.4406815990546646,1.0786867790887018,881,38,22.879382741485504,24.18917366915601
1.4514657166168077,1.078675994756573,881,38,22.879382741485504,24.18917366915601
1.462249726358567,1.0786652105322674,881,38,22.879382741485504,24.18917366915601
1.47303362828137,1.0786544264157838,881,38,22.879382741485504,24.18917366915601
1.4838174223866196,1.0786436424071204,881,38,22.879382741485504,24.18917366915601
1.4946011086756918,1.078632858506276,881,38,22.879382741485504,24.18917366915601
1.5053846871499408,1.0786220747132491,881,38,22.879382741485504,24.18917366915601
1.516168157810699,1.0786112910280385,881,38,22.879382741485504,24.18917366915601
1.5269515206592794,1.0786005074506426,881,38,22.879382741485504,24.18917366915601
1.537734775696977,1.0785897239810602,881,38,22.879382741485504,24.18917366915601
1.5485179229250698,1.07857894061929,881,38,22.879382741485504,24.18917366915601
1.559300962344821,1.0785681573653307,881,38,22.879382741485504,24.18917366915601
1.5700838939574788,1.078557374219181,881,38,22.879382741485504,24.18917366915601
1.5808667177642783,1.0785465911808394,881,38,22.879382741485504,24.18917366915601
1.5916494337664433,1.0785358082503052,881,38,22.879382741485504,24.18917366915601
1.6024320419651856,1.0785250254275767,881,38,22.879382741485504,24.18917366915601
1.6132145423617068,1.0785142427126528,881,38,22.879382741485504,24.18917366915601
1.6239969349571983,1.0785034601055323,881,38,22.879382741485504,24.18917366915601
1.6347792197528446,1.078492677606214,881,38,22.879382741485504,24.18917366915601
1.6455613967498204,1.0784818952146968,881,38,22.879382741485504,24.18917366915601
1.6563434659492937,1.0784711129309794,881,38,22.879382741485504,24.18917366915601
1.6671254273524247,1.0784603307550606,881,38,22.879382741485504,24.18917366915601
1.6779072809603681,1.0784495486869394,881,38,22.879382741485504,24.18917366915601
1.6886890267742727,1.0784387667266144,881,38,22.879382741485504,24.18917366915601
1.6994706647952802,1.0784279848740848,881,38,22.879382741485504,24.18917366915601
1.7102521950245302,1.078417203129349,881,38,22.879382741485504,24.18917366915601
1.7210336174631546,1.0784064214924063,881,38,22.879382741485504,24.18917366915601
1.7318149321122835,1.0783956399632553,881,38,22.879382741485504,24.18917366915601
1.742596138973041,1.0783848585418947,881,38,22.879382741485504,24.18917366915601
1.7533772380465495,1.0783740772283237,881,38,22.879382741485504,24.18917366915601
1.7641582293339262,1.078363296022541,881,38,22.879382741485504,24.18917366915601
1.7749391128362861,1.0783525149245456,881,38,22.879382741485504,24.18917366915601
1.7857198885547416,1.0783417339343364,881,38,22.879382741485504,24.18917366915601
1.7965005564904017,1.0783309530519123,881,38,22.879382741485504,24.18917366915601
1.8072811166443736,1.078320172277272,881,38,22.879382741485504,24.18917366915601
1.8180615690177613,1.0783093916104143,881,38,22.879382741485504,24.18917366915601
1.828841913611668,1.0782986110513384,881,38,22.879382741485504,24.18917366915601
1.8396221504271937,1.0782878306000432,881,38,22.879382741485504,24.18917366915601
1.8504022794654382,1.0782770502565273,881,38,22.879382741485504,24.18917366915601
1.861182300727498,1.0782662700207897,881,38,22.879382741485504,24.18917366915601
1.8719622142144685,1.0782554898928296,881,38,22.879382741485504,24.18917366915601
1.8827420199274443,1.0782447098726455,881,38,22.879382741485504,24.18917366915601
1.8935217178675183,1.0782339299602366,881,38,22.879382741485504,24.18917366915601
1.9043013080357822,1.0782231501556017,881,38,22.879382741485504,24.18917366915601
1.9150807904333265,1.0782123704587394,881,38,22.879382741485504,24.18917366915601
1.9258601650612412,1.0782015908696492,881,38,22.879382741485504,24.18917366915601
1.9366394319206146,1.0781908113883296,881,38,22.879382741485504,24.18917366915601
1.9474185910125346,1.0781800320147796,881,38,22.879382741485504,24.18917366915601
1.9581976423380885,1.0781692527489983,881,38,22.879382741485504,24.18917366915601
1.9689765858983619,1.0781584735909844,881,38,22.879382741485504,24.18917366915601
1.9797554216944406,1.0781476945407367,881,38,22.879382741485504,24.18917366915601
1.9905341497274096,1.0781369155982543,881,38,22.879382741485504,24.18917366915601
2.0013127699983535,1.0781261367635362,881,38,22.879382741485504,24.18917366915601
2.0120912825083557,1.078115358036581,881,38,22.879382741485504,24.18917366915601
2.0228696872584995,1.078104579417388,881,38,22.879382741485504,24.18917366915601
2.0336479842498676,1.0780938009059557,881,38,22.879382741485504,24.18917366915601
2.0444261734835427,1.0780830225022835,881,38,22.879382741485504,24.18917366915601
2.0552042549606067,1.0780722442063702,881,38,22.879382741485504,24.18917366915601
2.0659822286821408,1.0780614660182142,881,38,22.879382741485504,24.18917366915601
2.076760094649226,1.0780506879378149,881,38,22.879382741485504,24.18917366915601
2.0875378528629454,1.0780399099651712,881,38,22.879382741485504,24.18917366915601
2.098315503324377,1.078029132100282,881,38,22.879382741485504,24.18917366915601
2.1090930460346025,1.078018354343146,881,38,22.879382741485504,24.18917366915601
2.1198704809947015,1.0780075766937625,881,38,22.879382741485504,24.18917366915601
2.130647808205754,1.07799679915213,881,38,22.879382741485504,24.18917366915601
2.14142502766884,1.0779860217182475,881,38,22.879382741485504,24.18917366915601
2.152202139385039,1.0779752443921145,881,38,22.879382741485504,24.18917366915601
2.1629791433554306,1.077964467173729,881,38,22.879382741485504,24.18917366915601
2.173756039581093,1.0779536900630906,881,38,22.879382741485504,24.18917366915601
2.184532828063106,1.0779429130601978,881,38,22.879382741485504,24.18917366915601
2.1953095088025476,1.07793213616505,881,38,22.879382741485504,24.18917366915601
2.2060860818004975,1.0779213593776455,881,38,22.879382741485504,24.18917366915601
2.2168625470580334,1.0779105826979838,881,38,22.879382741485504,24.18917366915601
2.227638904576234,1.0778998061260636,881,38,22.879382741485504,24.18917366915601
2.2384151543561783,1.0778890296618837,881,38,22.879382741485504,24.18917366915601
2.2491912963989433,1.0778782533054432,881,38,22.879382741485504,24.18917366915601
2.2599673307056087,1.077867477056741,881,38,22.879382741485504,24.18917366915601
2.2707432572772506,1.0778567009157758,881,38,22.879382741485504,24.18917366915601
2.281519076114949,1.0778459248825467,881,38,22.879382741485504,24.18917366915601
2.2922947872197796,1.0778351489570526,881,38,22.879382741485504,24.18917366915601
2.3030703905928225,1.0778243731392925,881,38,22.879382741485504,24.18917366915601
2.313845886235154,1.0778135974292653,881,38,22.879382741485504,24.18917366915601
2.324621274147852,1.07780282182697,881,38,22.879382741485504,24.18917366915601
2.3353965543319943,1.077792046332405,881,38,22.879382741485504,24.18917366915601
2.346171726788658,1.07778127094557,881,38,22.879382741485504,24.18917366915601
2.3569467915189217,1.0777704956664633,881,38,22.879382741485504,24.18917366915601
2.3677217485238615,1.0777597204950842,881,38,22.879382741485504,24.18917366915601
2.3784965978045562,1.0777489454314315,881,38,22.879382741485504,24.18917366915601
2.3892713393620824,1.077738170475504,881,38,22.879382741485504,24.18917366915601
2.4000459731975172,1.077727395627301,881,38,22.879382741485504,24.18917366915601
2.4108204993119386,1.077716620886821,881,38,22.879382741485504,24.18917366915601
2.421594917706423,1.077705846254063,881,38,22.879382741485504,24.18917366915601
2.432369228382049,1.077695071729026,881,38,22.879382741485504,24.18917366915601
2.4431434313398923,1.077684297311709,881,38,22.879382741485504,24.18917366915601
2.4539175265810305,1.0776735230021108,881,38,22.879382741485504,24.18917366915601
2.4646915141065406,1.0776627488002304,881,38,22.879382741485504,24.18917366915601
2.4754653939175006,1.0776519747060667,881,38,22.879382741485504,24.18917366915601
2.486239166014987,1.0776412007196186,881,38,22.879382741485504,24.18917366915601
2.4970128304000765,1.077630426840885,881,38,22.879382741485504,24.18917366915601
2.5077863870738475,1.077619653069865,881,38,22.879382741485504,24.18917366915601
2.518559836037375,1.0776088794065573,881,38,22.879382741485504,24.18917366915601
2.529333177291737,1.077598105850961,881,38,22.879382741485504,24.18917366915601
2.5401064108380105,1.0775873324030747,881,38,22.879382741485504,24.18917366915601
2.550879536677273,1.0775765590628976,881,38,22.879382741485504,24.18917366915601
2.5616525548106006,1.0775657858304288,881,38,22.879382741485504,24.18917366915601
2.5724254652390695,1.0775550127056668,881,38,22.879382741485504,24.18917366915601
2.5831982679637586,1.0775442396886108,881,38,22.879382741485504,24.18917366915601
2.5939709629857433,1.0775334667792598,881,38,22.879382741485504,24.18917366915601
