Vout,Iout,Irradiance,Temperature,MaxVoltage,MaxPower
0.0035893454870626245,0.717876,621,3,20.302124179173845,14.162513217074158
0.010767970090792636,0.717876,621,3,20.302124179173845,14.162513217074158
0.01794644875488502,0.7178723388669129,621,3,20.302124179173845,14.162513217074158
0.02512475540727185,0.7178651602423092,621,3,20.302124179173845,14.162513217074158
0.03230288152714899,0.7178579817640112,621,3,20.302124179173845,14.162513217074158
0.039480835484654565,0.7178508034580766,621,3,20.302124179173845,14.162513217074158
0.04665862500620884,0.7178436253326747,621,3,20.302124179173845,14.162513217074158
0.053836257223883924,0.717836447379435,621,3,20.302124179173845,14.162513217074158
0.061013738721054256,0.7178292695906312,621,3,20.302124179173845,14.162513217074158
0.06819107557461432,0.7178220919591314,621,3,20.302124179173845,14.162513217074158
0.07536827339394794,0.717814914478352,621,3,20.302124179173845,14.162513217074158
0.08254533735689938,0.7178077371422161,621,3,20.302124179173845,14.162513217074158
0.0897222722429766,0.7178005599451146,621,3,20.302124179173845,14.162513217074158
0.09689908246399982,0.7177933828818693,621,3,20.302124179173845,14.162513217074158
0.10407577209239219,0.717786205947701,621,3,20.302124179173845,14.162513217074158
0.11125234488729333,0.7177790291381977,621,3,20.302124179173845,14.162513217074158
0.11842880431866391,0.717771852449287,621,3,20.302124179173845,14.162513217074158
0.12560515358953564,0.7177646758772097,621,3,20.302124179173845,14.162513217074158
0.1327813956565491,0.7177574994184961,621,3,20.302124179173845,14.162513217074158
0.1399575332489114,0.7177503230699428,621,3,20.302124179173845,14.162513217074158
0.14713356888589543,0.7177431468285934,621,3,20.302124179173845,14.162513217074158
0.15430950489299247,0.7177359706917188,621,3,20.302124179173845,14.162513217074158
0.1614853434168219,0.7177287946567994,621,3,20.302124179173845,14.162513217074158
0.16866108643889413,0.7177216187215099,621,3,20.302124179173845,14.162513217074158
0.17583673578831419,0.7177144428837037,621,3,20.302124179173845,14.162513217074158
0.183012293153508,0.7177072671413992,621,3,20.302124179173845,14.162513217074158
0.1901877600930467,0.7177000914927674,621,3,20.302124179173845,14.162513217074158
0.1973631380456375,0.7176929159361197,621,3,20.302124179173845,14.162513217074158
0.2045384283393464,0.7176857404698977,621,3,20.302124179173845,14.162513217074158
0.21171363220011133,0.7176785650926627,621,3,20.302124179173845,14.162513217074158
0.21888875075959952,0.7176713898030865,621,3,20.302124179173845,14.162513217074158
0.22606378506246122,0.7176642145999433,621,3,20.302124179173845,14.162513217074158
0.2332387360730249,0.7176570394821014,621,3,20.302124179173845,14.162513217074158
0.2404136046814771,0.7176498644485161,621,3,20.302124179173845,14.162513217074158
0.24758839170956737,0.717642689498223,621,3,20.302124179173845,14.162513217074158
0.25476309791587354,0.717635514630332,621,3,20.302124179173845,14.162513217074158
0.2619377240006626,0.7176283398440214,621,3,20.302124179173845,14.162513217074158
0.26911227061037696,0.7176211651385326,621,3,20.302124179173845,14.162513217074158
0.2762867383417759,0.7176139905131653,621,3,20.302124179173845,14.162513217074158
0.2834611277457584,0.717606815967273,621,3,20.302124179173845,14.162513217074158
0.2906354393308914,0.7175996415002591,621,3,20.302124179173845,14.162513217074158
0.2978096735666673,0.7175924671115727,621,3,20.302124179173845,14.162513217074158
0.30498383088650993,0.7175852928007049,621,3,20.302124179173845,14.162513217074158
0.31215791169055,0.7175781185671866,621,3,20.302124179173845,14.162513217074158
0.31933191634818703,0.7175709444105842,621,3,20.302124179173845,14.162513217074158
0.32650584520045317,0.7175637703304976,621,3,20.302124179173845,14.162513217074158
0.3336796985621962,0.7175565963265573,621,3,20.302124179173845,14.162513217074158
0.34085347672409455,0.7175494223984225,621,3,20.302124179173845,14.162513217074158
0.34802717995451593,0.7175422485457781,621,3,20.302124179173845,14.162513217074158
0.3552008085012352,0.7175350747683337,621,3,20.302124179173845,14.162513217074158
0.3623743625930178,0.7175279010658205,621,3,20.302124179173845,14.162513217074158
0.36954784244108313,0.7175207274379912,621,3,20.302124179173845,14.162513217074158
0.3767212482404537,0.7175135538846168,621,3,20.302124179173845,14.162513217074158
0.38389458017120226,0.7175063804054861,621,3,20.302124179173845,14.162513217074158
0.39106783839960146,0.7174992070004041,621,3,20.302124179173845,14.162513217074158
0.3982410230791858,0.7174920336691907,621,3,20.302124179173845,14.162513217074158
0.4054141343517318,0.7174848604116797,621,3,20.302124179173845,14.162513217074158
0.41258717234816283,0.7174776872277174,621,3,20.302124179173845,14.162513217074158
0.41976013718938376,0.7174705141171622,621,3,20.302124179173845,14.162513217074158
0.42693302898705193,0.7174633410798831,621,3,20.302124179173845,14.162513217074158
0.4341058478442888,0.7174561681157592,621,3,20.302124179173845,14.162513217074158
0.44127859385633683,0.7174489952246788,621,3,20.302124179173845,14.162513217074158
0.44845126711116534,0.7174418224065389,621,3,20.302124179173845,14.162513217074158
0.4556238676900303,0.7174346496612442,621,3,20.302124179173845,14.162513217074158
0.46279639566799113,0.7174274769887066,621,3,20.302124179173845,14.162513217074158
0.469968851114387,0.717420304388845,621,3,20.302124179173845,14.162513217074158
0.4771412340932772,0.7174131318615843,621,3,20.302124179173845,14.162513217074158
0.4843135446638472,0.7174059594068551,621,3,20.302124179173845,14.162513217074158
0.49148578288078404,0.7173987870245935,621,3,20.302124179173845,14.162513217074158
0.4986579487946223,0.7173916147147402,621,3,20.302124179173845,14.162513217074158
0.505830042452063,0.7173844424772404,621,3,20.302124179173845,14.162513217074158
0.5130020638962698,0.7173772703120439,621,3,20.302124179173845,14.162513217074158
0.5201740131671396,0.7173700982191037,621,3,20.302124179173845,14.162513217074158
0.5273458903015554,0.7173629261983766,621,3,20.302124179173845,14.162513217074158
0.5345176953336171,0.717355754249823,621,3,20.302124179173845,14.162513217074158
0.5416894282948564,0.7173485823734058,621,3,20.302124179173845,14.162513217074158
0.5488610892144337,0.717341410569091,621,3,20.302124179173845,14.162513217074158
0.556032678119321,0.7173342388368469,621,3,20.302124179173845,14.162513217074158
0.5632041950344703,0.7173270671766445,621,3,20.302124179173845,14.162513217074158
0.5703756399829689,0.7173198955884568,621,3,20.302124179173845,14.162513217074158
0.5775470129861825,0.7173127240722588,621,3,20.302124179173845,14.162513217074158
0.5847183140638886,0.7173055526280274,621,3,20.302124179173845,14.162513217074158
0.591889543234398,0.7172983812557414,621,3,20.302124179173845,14.162513217074158
0.5990607005146674,0.7172912099553808,621,3,20.302124179173845,14.162513217074158
0.6062317859204044,0.7172840387269275,621,3,20.302124179173845,14.162513217074158
0.6134027994661628,0.7172768675703642,621,3,20.302124179173845,14.162513217074158
0.6205737411654321,0.7172696964856757,621,3,20.302124179173845,14.162513217074158
0.6277446110307188,0.7172625254728471,621,3,20.302124179173845,14.162513217074158
0.6349154090736223,0.7172553545318648,621,3,20.302124179173845,14.162513217074158
0.6420861353049051,0.7172481836627167,621,3,20.302124179173845,14.162513217074158
0.6492567897345558,0.7172410128653909,621,3,20.302124179173845,14.162513217074158
0.6564273723718506,0.7172338421398767,621,3,20.302124179173845,14.162513217074158
0.6635978832254065,0.7172266714861641,621,3,20.302124179173845,14.162513217074158
0.6707683223032331,0.7172195009042439,621,3,20.302124179173845,14.162513217074158
0.6779386896127783,0.7172123303941074,621,3,20.302124179173845,14.162513217074158
0.6851089851609726,0.7172051599557466,621,3,20.302124179173845,14.162513217074158
0.6922792089542681,0.7171979895891542,621,3,20.302124179173845,14.162513217074158
0.6994493609986754,0.717190819294323,621,3,20.302124179173845,14.162513217074158
0.7066194412997985,0.7171836490712468,621,3,20.302124179173845,14.162513217074158
0.7137894498628645,0.7171764789199193,621,3,20.302124179173845,14.162513217074158
0.7209593866927543,0.7171693088403353,621,3,20.302124179173845,14.162513217074158
0.7281292517940278,0.7171621388324892,621,3,20.302124179173845,14.162513217074158
0.7352990451709491,0.7171549688963763,621,3,20.302124179173845,14.162513217074158
0.7424687668275098,0.717147799031992,621,3,20.302124179173845,14.162513217074158
0.7496384167674495,0.7171406292393321,621,3,20.302124179173845,14.162513217074158
0.7568079949942744,0.7171334595183926,621,3,20.302124179173845,14.162513217074158
0.7639775015112771,0.7171262898691696,621,3,20.302124179173845,14.162513217074158
0.7711469363215515,0.7171191202916597,621,3,20.302124179173845,14.162513217074158
0.7783162994280085,0.7171119507858597,621,3,20.302124179173845,14.162513217074158
0.7854855908333905,0.7171047813517664,621,3,20.302124179173845,14.162513217074158
0.7926548105402836,0.7170976119893768,621,3,20.302124179173845,14.162513217074158
0.7998239585511305,0.7170904426986884,621,3,20.302124179173845,14.162513217074158
0.8069930348682407,0.7170832734796985,621,3,20.302124179173845,14.162513217074158
0.8141620394938013,0.7170761043324045,621,3,20.302124179173845,14.162513217074158
0.8213309724298863,0.7170689352568044,621,3,20.302124179173845,14.162513217074158
0.828499833678465,0.7170617662528957,621,3,20.302124179173845,14.162513217074158
0.8356686232414108,0.7170545973206766,621,3,20.302124179173845,14.162513217074158
0.8428373411205075,0.7170474284601449,621,3,20.302124179173845,14.162513217074158
0.8500059873174571,0.7170402596712988,621,3,20.302124179173845,14.162513217074158
0.8571745618338859,0.7170330909541366,621,3,20.302124179173845,14.162513217074158
0.8643430646713497,0.7170259223086566,621,3,20.302124179173845,14.162513217074158
0.8715114958313406,0.717018753734857,621,3,20.302124179173845,14.162513217074158
0.8786798553152897,0.7170115852327363,621,3,20.302124179173845,14.162513217074158
0.8858481431245745,0.7170044168022932,621,3,20.302124179173845,14.162513217074158
0.8930163592605204,0.7169972484435262,621,3,20.302124179173845,14.162513217074158
0.9001845037244068,0.7169900801564337,621,3,20.302124179173845,14.162513217074158
0.9073525765174699,0.7169829119410146,621,3,20.302124179173845,14.162513217074158
0.9145205776409053,0.7169757437972676,621,3,20.302124179173845,14.162513217074158
0.9216885070958717,0.7169685757251913,621,3,20.302124179173845,14.162513217074158
0.9288563648834943,0.7169614077247847,621,3,20.302124179173845,14.162513217074158
0.9360241510048665,0.7169542397960466,621,3,20.302124179173845,14.162513217074158
0.9431918654610524,0.7169470719389757,621,3,20.302124179173845,14.162513217074158
0.9503595082530901,0.7169399041535711,621,3,20.302124179173845,14.162513217074158
0.9575270793819928,0.7169327364398317,621,3,20.302124179173845,14.162513217074158
0.96469457884875,0.7169255687977565,621,3,20.302124179173845,14.162513217074158
0.9718620066543311,0.7169184012273443,621,3,20.302124179173845,14.162513217074158
0.9790293627996857,0.7169112337285943,621,3,20.302124179173845,14.162513217074158
0.9861966472857454,0.7169040663015055,621,3,20.302124179173845,14.162513217074158
0.9933638601134254,0.7168968989460769,621,3,20.302124179173845,14.162513217074158
1.0005310012836253,0.7168897316623076,621,3,20.302124179173845,14.162513217074158
1.0076980707972307,0.7168825644501966,621,3,20.302124179173845,14.162513217074158
1.014865068655115,0.7168753973097431,621,3,20.302124179173845,14.162513217074158
1.022031994858138,0.7168682302409463,621,3,20.302124179173845,14.162513217074158
1.0291988494071493,0.7168610632438052,621,3,20.302124179173845,14.162513217074158
1.0363656323029888,0.7168538963183188,621,3,20.302124179173845,14.162513217074158
1.0435323435464858,0.7168467294644865,621,3,20.302124179173845,14.162513217074158
1.0506989831384612,0.7168395626823073,621,3,20.302124179173845,14.162513217074158
1.0578655510797281,0.7168323959717805,621,3,20.302124179173845,14.162513217074158
1.0650320473710926,0.7168252293329053,621,3,20.302124179173845,14.162513217074158
1.0721984720133526,0.7168180627656806,621,3,20.302124179173845,14.162513217074158
1.079364825007301,0.716810896270106,621,3,20.302124179173845,14.162513217074158
1.086531106353724,0.7168037298461803,621,3,20.302124179173845,14.162513217074158
1.0936973160534027,0.7167965634939031,621,3,20.302124179173845,14.162513217074158
1.1008634541071132,0.7167893972132733,621,3,20.302124179173845,14.162513217074158
1.108029520515627,0.7167822310042902,621,3,20.302124179173845,14.162513217074158
1.1151955152797115,0.7167750648669531,621,3,20.302124179173845,14.162513217074158
1.1223614384001295,0.7167678988012612,621,3,20.302124179173845,14.162513217074158
1.129527289877641,0.7167607328072138,621,3,20.302124179173845,14.162513217074158
1.1366930697130027,0.71675356688481,621,3,20.302124179173845,14.162513217074158
1.1438587779069669,0.7167464010340491,621,3,20.302124179173845,14.162513217074158
1.1510244144602848,0.7167392352549302,621,3,20.302124179173845,14.162513217074158
1.1581899793737036,0.7167320695474529,621,3,20.302124179173845,14.162513217074158
1.1653554726479693,0.7167249039116161,621,3,20.302124179173845,14.162513217074158
1.1725208942838241,0.7167177383474193,621,3,20.302124179173845,14.162513217074158
1.1796862442820095,0.7167105728548616,621,3,20.302124179173845,14.162513217074158
1.1868515226432648,0.7167034074339423,621,3,20.302124179173845,14.162513217074158
1.1940167293683266,0.7166962420846607,621,3,20.302124179173845,14.162513217074158
1.2011818644579315,0.716689076807016,621,3,20.302124179173845,14.162513217074158
1.2083469279128127,0.7166819116010075,621,3,20.302124179173845,14.162513217074158
1.2155119197337036,0.7166747464666343,621,3,20.302124179173845,14.162513217074158
1.222676839921336,0.716667581403896,621,3,20.302124179173845,14.162513217074158
1.2298416884764394,0.7166604164127917,621,3,20.302124179173845,14.162513217074158
1.2370064653997435,0.7166532514933205,621,3,20.302124179173845,14.162513217074158
1.2441711706919762,0.7166460866454819,621,3,20.302124179173845,14.162513217074158
1.2513358043538652,0.716638921869275,621,3,20.302124179173845,14.162513217074158
1.2585003663861365,0.7166317571646993,621,3,20.302124179173845,14.162513217074158
1.2656648567895161,0.7166245925317539,621,3,20.302124179173845,14.162513217074158
1.2728292755647286,0.7166174279704381,621,3,20.302124179173845,14.162513217074158
1.279993622712498,0.7166102634807512,621,3,20.302124179173845,14.162513217074158
1.2871578982335483,0.7166030990626925,621,3,20.302124179173845,14.162513217074158
1.2943221021286024,0.7165959347162612,621,3,20.302124179173845,14.162513217074158
1.3014862343983824,0.7165887704414565,621,3,20.302124179173845,14.162513217074158
1.308650295043611,0.7165816062382779,621,3,20.302124179173845,14.162513217074158
1.3158142840650087,0.7165744421067245,621,3,20.302124179173845,14.162513217074158
1.3229782014632974,0.7165672780467958,621,3,20.302124179173845,14.162513217074158
1.330142047239197,0.7165601140584907,621,3,20.302124179173845,14.162513217074158
1.3373058213934284,0.7165529501418089,621,3,20.302124179173845,14.162513217074158
1.3444695239267115,0.7165457862967494,621,3,20.302124179173845,14.162513217074158
1.3516331548397658,0.7165386225233115,621,3,20.302124179173845,14.162513217074158
1.358796714133311,0.7165314588214946,621,3,20.302124179173845,14.162513217074158
1.365960201808066,0.7165242951912979,621,3,20.302124179173845,14.162513217074158
1.3731236178647495,0.7165171316327208,621,3,20.302124179173845,14.162513217074158
1.38028696230408,0.7165099681457624,621,3,20.302124179173845,14.162513217074158
1.3874502351267766,0.716502804730422,621,3,20.302124179173845,14.162513217074158
1.394613436333557,0.7164956413866991,621,3,20.302124179173845,14.162513217074158
1.401776565925139,0.7164884781145927,621,3,20.302124179173845,14.162513217074158
1.4089396239022414,0.7164813149141023,621,3,20.302124179173845,14.162513217074158
1.4161026102655814,0.716474151785227,621,3,20.302124179173845,14.162513217074158
1.423265525015877,0.7164669887279662,621,3,20.302124179173845,14.162513217074158
1.4304283681538454,0.7164598257423191,621,3,20.302124179173845,14.162513217074158
1.4375911396802032,0.7164526628282852,621,3,20.302124179173845,14.162513217074158
1.444753839595669,0.7164454999858635,621,3,20.302124179173845,14.162513217074158
1.4519164679009589,0.7164383372150535,621,3,20.302124179173845,14.162513217074158
1.4590790245967906,0.7164311745158543,621,3,20.302124179173845,14.162513217074158
1.4662415096838801,0.7164240118882653,621,3,20.302124179173845,14.162513217074158
1.473403923162945,0.7164168493322857,621,3,20.302124179173845,14.162513217074158
1.480566265034702,0.7164096868479148,621,3,20.302124179173845,14.162513217074158
1.4877285352998677,0.7164025244351521,621,3,20.302124179173845,14.162513217074158
1.4948907339591588,0.7163953620939966,621,3,20.302124179173845,14.162513217074158
1.5020528610132917,0.7163881998244477,621,3,20.302124179173845,14.162513217074158
1.509214916462983,0.7163810376265046,621,3,20.302124179173845,14.162513217074158
1.5163769003089491,0.7163738755001667,621,3,20.302124179173845,14.162513217074158
1.523538812551907,0.7163667134454332,621,3,20.302124179173845,14.162513217074158
1.530700653192572,0.7163595514623035,621,3,20.302124179173845,14.162513217074158
1.537862422231661,0.7163523895507767,621,3,20.302124179173845,14.162513217074158
1.54502411966989,0.7163452277108523,621,3,20.302124179173845,14.162513217074158
1.5521857455079755,0.7163380659425294,621,3,20.302124179173845,14.162513217074158
1.5593472997466338,0.7163309042458073,621,3,20.302124179173845,14.162513217074158
1.5665087823865806,0.7163237426206854,621,3,20.302124179173845,14.162513217074158
1.5736701934285326,0.7163165810671629,621,3,20.302124179173845,14.162513217074158
1.580831532873205,0.7163094195852391,621,3,20.302124179173845,14.162513217074158
1.5879928007213147,0.7163022581749133,621,3,20.302124179173845,14.162513217074158
1.5951539969735773,0.7162950968361848,621,3,20.302124179173845,14.162513217074158
1.6023151216307092,0.7162879355690528,621,3,20.302124179173845,14.162513217074158
1.6094761746934263,0.7162807743735167,621,3,20.302124179173845,14.162513217074158
1.6166371561624444,0.7162736132495757,621,3,20.302124179173845,14.162513217074158
1.6237980660384796,0.7162664521972291,621,3,20.302124179173845,14.162513217074158
1.6309589043222472,0.7162592912164761,621,3,20.302124179173845,14.162513217074158
1.6381196710144639,0.7162521303073163,621,3,20.302124179173845,14.162513217074158
1.6452803661158455,0.7162449694697486,621,3,20.302124179173845,14.162513217074158
1.6524409896271068,0.7162378087037725,621,3,20.302124179173845,14.162513217074158
1.659601541548965,0.7162306480093872,621,3,20.302124179173845,14.162513217074158
1.666762021882136,0.716223487386592,621,3,20.302124179173845,14.162513217074158
1.6739224306273346,0.7162163268353862,621,3,20.302124179173845,14.162513217074158
1.6810827677852769,0.716209166355769,621,3,20.302124179173845,14.162513217074158
1.6882430333566794,0.71620200594774,621,3,20.302124179173845,14.162513217074158
1.6954032273422566,0.7161948456112981,621,3,20.302124179173845,14.162513217074158
1.7025633497427255,0.7161876853464427,621,3,20.302124179173845,14.162513217074158
1.7097234005588011,0.7161805251531731,621,3,20.302124179173845,14.162513217074158
1.716883379791199,0.7161733650314887,621,3,20.302124179173845,14.162513217074158
