Vout,Iout,Irradiance,Temperature,MaxVoltage,MaxPower
0.0013998465399371162,0.279972,231,31,22.35506908090247,5.75915886671553
0.004199513735323922,0.279972,231,31,22.35506908090247,5.75915886671553
0.006999124014178867,0.2799705721562601,231,31,22.35506908090247,5.75915886671553
0.009798667208382385,0.2799677724890647,231,31,22.35506908090247,5.75915886671553
0.012598139994816593,0.27996497287892863,231,31,22.35506908090247,5.75915886671553
0.015397545637839554,0.27996217333601436,231,31,22.35506908090247,5.75915886671553
0.01819688715075905,0.2799593738635079,231,31,22.35506908090247,5.75915886671553
0.02099616731508677,0.2799565744581448,231,31,22.35506908090247,5.75915886671553
0.02379538869834205,0.27995377511691183,231,31,22.35506908090247,5.75915886671553
0.026594553670516802,0.2799509758370275,231,31,22.35506908090247,5.75915886671553
0.029393664419273515,0.27994817661592414,231,31,22.35506908090247,5.75915886671553
0.032192722963974046,0.2799453774512319,231,31,22.35506908090247,5.75915886671553
0.0349917311686289,0.2799425783407631,231,31,22.35506908090247,5.75915886671553
0.037790690753850185,0.2799397792824983,231,31,22.35506908090247,5.75915886671553
0.040589603307884956,0.27993698027457353,231,31,22.35506908090247,5.75915886671553
0.04338847029679956,0.2799341813152682,231,31,22.35506908090247,5.75915886671553
0.04618729307388041,0.2799313824029941,231,31,22.35506908090247,5.75915886671553
0.04898607288831146,0.2799285835362851,231,31,22.35506908090247,5.75915886671553
0.05178481089318401,0.2799257847137879,231,31,22.35506908090247,5.75915886671553
0.054583508152890245,0.27992298593425335,231,31,22.35506908090247,5.75915886671553
0.057382165649947824,0.27992018719652834,231,31,22.35506908090247,5.75915886671553
0.06018078429129948,0.2799173884995485,231,31,22.35506908090247,5.75915886671553
0.0629793649141279,0.2799145898423313,231,31,22.35506908090247,5.75915886671553
0.06577790829122311,0.27991179122396986,231,31,22.35506908090247,5.75915886671553
0.06857641513593701,0.2799089926436269,231,31,22.35506908090247,5.75915886671553
0.07137488610675656,0.27990619410052964,231,31,22.35506908090247,5.75915886671553
0.07417332181152525,0.2799033955939648,231,31,22.35506908090247,5.75915886671553
0.07697172281133963,0.2799005971232738,231,31,22.35506908090247,5.75915886671553
0.07977008962414613,0.2798977986878489,231,31,22.35506908090247,5.75915886671553
0.0825684227280611,0.27989500028712894,231,31,22.35506908090247,5.75915886671553
0.08536672256443541,0.279892201920596,231,31,22.35506908090247,5.75915886671553
0.08816498954068311,0.2798894035877719,231,31,22.35506908090247,5.75915886671553
0.09096322403289282,0.27988660528821535,231,31,22.35506908090247,5.75915886671553
0.09376142638823773,0.27988380702151894,231,31,22.35506908090247,5.75915886671553
0.09655959692720058,0.2798810087873066,231,31,22.35506908090247,5.75915886671553
0.09935773594562711,0.27987821058523105,231,31,22.35506908090247,5.75915886671553
0.10215584371662176,0.27987541241497194,231,31,22.35506908090247,5.75915886671553
0.1049539204922974,0.27987261427623333,231,31,22.35506908090247,5.75915886671553
0.10775196650539053,0.2798698161687421,231,31,22.35506908090247,5.75915886671553
0.11054998197075194,0.2798670180922463,231,31,22.35506908090247,5.75915886671553
0.11334796708672303,0.279864220046513,231,31,22.35506908090247,5.75915886671553
0.11614592203640602,0.2798614220313274,231,31,22.35506908090247,5.75915886671553
0.11894384698883649,0.27985862404649126,231,31,22.35506908090247,5.75915886671553
0.12174174210006564,0.2798558260918214,231,31,22.35506908090247,5.75915886671553
0.12453960751415935,0.27985302816714874,231,31,22.35506908090247,5.75915886671553
0.12733744336412045,0.2798502302723173,231,31,22.35506908090247,5.75915886671553
0.13013524977273963,0.279847432407183,231,31,22.35506908090247,5.75915886671553
0.13293302685338168,0.27984463457161285,231,31,22.35506908090247,5.75915886671553
0.13573077471071016,0.279841836765484,231,31,22.35506908090247,5.75915886671553
0.13852849344135734,0.2798390389886832,231,31,22.35506908090247,5.75915886671553
0.14132618313454193,0.2798362412411056,231,31,22.35506908090247,5.75915886671553
0.14412384387263952,0.27983344352265477,231,31,22.35506908090247,5.75915886671553
0.14692147573170902,0.27983064583324135,231,31,22.35506908090247,5.75915886671553
0.1497190787819789,0.279827848172783,231,31,22.35506908090247,5.75915886671553
0.15251665308829554,0.2798250505412037,231,31,22.35506908090247,5.75915886671553
0.15531419871053756,0.2798222529384332,231,31,22.35506908090247,5.75915886671553
0.1581117157039978,0.27981945536440667,231,31,22.35506908090247,5.75915886671553
0.16090920411973642,0.2798166578190642,231,31,22.35506908090247,5.75915886671553
0.16370666400490638,0.27981386030235045,231,31,22.35506908090247,5.75915886671553
0.16650409540305414,0.2798110628142145,231,31,22.35506908090247,5.75915886671553
0.16930149835439717,0.27980826535460906,231,31,22.35506908090247,5.75915886671553
0.17209887289608003,0.27980546792349065,231,31,22.35506908090247,5.75915886671553
0.1748962190624108,0.2798026705208191,231,31,22.35506908090247,5.75915886671553
0.17769353688507933,0.27979987314655713,231,31,22.35506908090247,5.75915886671553
0.1804908263933588,0.27979707580067054,231,31,22.35506908090247,5.75915886671553
0.18328808761429158,0.2797942784831276,231,31,22.35506908090247,5.75915886671553
0.1860853205728608,0.27979148119389907,231,31,22.35506908090247,5.75915886671553
0.18888252529214888,0.27978868393295786,231,31,22.35506908090247,5.75915886671553
0.19167970179348373,0.27978588670027904,231,31,22.35506908090247,5.75915886671553
0.1944768500965739,0.27978308949583947,231,31,22.35506908090247,5.75915886671553
0.19727397021963275,0.2797802923196178,231,31,22.35506908090247,5.75915886671553
0.2000710621794941,0.27977749517159445,231,31,22.35506908090247,5.75915886671553
0.20286812599171794,0.27977469805175115,231,31,22.35506908090247,5.75915886671553
0.2056651616706885,0.279771900960071,231,31,22.35506908090247,5.75915886671553
0.20846216922970479,0.2797691038965385,231,31,22.35506908090247,5.75915886671553
0.21125914868106416,0.27976630686113924,231,31,22.35506908090247,5.75915886671553
0.21405610003613926,0.2797635098538599,231,31,22.35506908090247,5.75915886671553
0.21685302330544917,0.27976071287468823,231,31,22.35506908090247,5.75915886671553
0.21964991849872514,0.2797579159236129,231,31,22.35506908090247,5.75915886671553
0.22244678562497122,0.2797551190006233,231,31,22.35506908090247,5.75915886671553
0.22524362469252016,0.27975232210570966,231,31,22.35506908090247,5.75915886671553
0.22804043570908505,0.27974952523886315,231,31,22.35506908090247,5.75915886671553
0.23083721868180718,0.27974672840007525,231,31,22.35506908090247,5.75915886671553
0.23363397361729962,0.2797439315893384,231,31,22.35506908090247,5.75915886671553
0.23643070052168835,0.27974113480664536,231,31,22.35506908090247,5.75915886671553
0.23922739940064944,0.27973833805198955,231,31,22.35506908090247,5.75915886671553
0.24202407025944375,0.2797355413253648,231,31,22.35506908090247,5.75915886671553
0.2448207131029488,0.27973274462676556,231,31,22.35506908090247,5.75915886671553
0.2476173279356885,0.27972994795618644,231,31,22.35506908090247,5.75915886671553
0.25041391476186,0.2797271513136226,231,31,22.35506908090247,5.75915886671553
0.253210473585359,0.27972435469906953,231,31,22.35506908090247,5.75915886671553
0.2560070044098032,0.279721558112523,231,31,22.35506908090247,5.75915886671553
0.2588035072385532,0.2797187615539792,231,31,22.35506908090247,5.75915886671553
0.2615999820747328,0.2797159650234344,231,31,22.35506908090247,5.75915886671553
0.2643964289212467,0.2797131685208853,231,31,22.35506908090247,5.75915886671553
0.26719284778079766,0.27971037204632876,231,31,22.35506908090247,5.75915886671553
0.26998923865590224,0.2797075755997619,231,31,22.35506908090247,5.75915886671553
0.27278560154890447,0.279704779181182,231,31,22.35506908090247,5.75915886671553
0.27558193646198975,0.27970198279058656,231,31,22.35506908090247,5.75915886671553
0.27837824339719697,0.2796991864279732,231,31,22.35506908090247,5.75915886671553
0.2811745223564293,0.27969639009333974,231,31,22.35506908090247,5.75915886671553
0.2839707733414653,0.2796935937866842,231,31,22.35506908090247,5.75915886671553
0.2867669963539681,0.2796907975080046,231,31,22.35506908090247,5.75915886671553
0.28956319139549425,0.27968800125729915,231,31,22.35506908090247,5.75915886671553
0.2923593584675021,0.2796852050345663,231,31,22.35506908090247,5.75915886671553
0.29515549757135945,0.2796824088398044,231,31,22.35506908090247,5.75915886671553
0.2979516087083501,0.279679612673012,231,31,22.35506908090247,5.75915886671553
0.3007476918796807,0.27967681653418774,231,31,22.35506908090247,5.75915886671553
0.30354374708648657,0.2796740204233304,231,31,22.35506908090247,5.75915886671553
0.3063397743298373,0.2796712243404387,231,31,22.35506908090247,5.75915886671553
0.3091357736107414,0.2796684282855115,231,31,22.35506908090247,5.75915886671553
0.3119317449301514,0.27966563225854774,231,31,22.35506908090247,5.75915886671553
0.31472768828896824,0.2796628362595464,231,31,22.35506908090247,5.75915886671553
0.3175236036880447,0.2796600402885066,231,31,22.35506908090247,5.75915886671553
0.3203194911281898,0.2796572443454274,231,31,22.35506908090247,5.75915886671553
0.3231153506101715,0.2796544484303079,231,31,22.35506908090247,5.75915886671553
0.32591118213472037,0.2796516525431474,231,31,22.35506908090247,5.75915886671553
0.32870698570253215,0.27964885668394496,231,31,22.35506908090247,5.75915886671553
0.3315027613142707,0.27964606085270005,231,31,22.35506908090247,5.75915886671553
0.33429850897057006,0.2796432650494118,231,31,22.35506908090247,5.75915886671553
0.33709422867203725,0.27964046927407965,231,31,22.35506908090247,5.75915886671553
0.33988992041925387,0.27963767352670293,231,31,22.35506908090247,5.75915886671553
0.34268558421277845,0.279634877807281,231,31,22.35506908090247,5.75915886671553
0.3454812200531479,0.2796320821158134,231,31,22.35506908090247,5.75915886671553
0.3482768279408793,0.27962928645229945,231,31,22.35506908090247,5.75915886671553
0.3510724078764716,0.2796264908167386,231,31,22.35506908090247,5.75915886671553
0.35386795986040676,0.2796236952091305,231,31,22.35506908090247,5.75915886671553
0.35666348389315106,0.27962089962947445,231,31,22.35506908090247,5.75915886671553
0.35945897997515663,0.27961810407777005,231,31,22.35506908090247,5.75915886671553
0.36225444810686225,0.2796153085540169,231,31,22.35506908090247,5.75915886671553
0.3650498882886942,0.27961251305821444,231,31,22.35506908090247,5.75915886671553
0.3678453005210677,0.2796097175903623,231,31,22.35506908090247,5.75915886671553
0.37064068480438733,0.27960692215046,231,31,22.35506908090247,5.75915886671553
0.3734360411390484,0.27960412673850715,231,31,22.35506908090247,5.75915886671553
0.37623136952543673,0.2796013313545034,231,31,22.35506908090247,5.75915886671553
0.37902666996393053,0.27959853599844825,231,31,22.35506908090247,5.75915886671553
0.3818219424548999,0.27959574067034143,231,31,22.35506908090247,5.75915886671553
0.38461718699870845,0.2795929453701825,231,31,22.35506908090247,5.75915886671553
0.3874124035957129,0.27959015009797106,231,31,22.35506908090247,5.75915886671553
0.3902075922462643,0.2795873548537067,231,31,22.35506908090247,5.75915886671553
0.3930027529507079,0.27958455963738926,231,31,22.35506908090247,5.75915886671553
0.3957978857093843,0.2795817644490182,231,31,22.35506908090247,5.75915886671553
0.39859299052262875,0.2795789692885933,231,31,22.35506908090247,5.75915886671553
0.4013880673907729,0.2795761741561142,231,31,22.35506908090247,5.75915886671553
0.4041831163141439,0.2795733790515804,231,31,22.35506908090247,5.75915886671553
0.4069781372930656,0.2795705839749918,231,31,22.35506908090247,5.75915886671553
0.40977313032785784,0.2795677889263479,231,31,22.35506908090247,5.75915886671553
0.41256809541883793,0.27956499390564854,231,31,22.35506908090247,5.75915886671553
0.41536303256632,0.27956219891289324,231,31,22.35506908090247,5.75915886671553
0.41815794177061544,0.27955940394808176,231,31,22.35506908090247,5.75915886671553
0.4209528230320334,0.27955660901121376,231,31,22.35506908090247,5.75915886671553
0.42374767635088056,0.27955381410228897,231,31,22.35506908090247,5.75915886671553
0.42654250172746155,0.27955101922130704,231,31,22.35506908090247,5.75915886671553
0.4293372991620791,0.2795482243682677,231,31,22.35506908090247,5.75915886671553
0.4321320686550338,0.27954542954317063,231,31,22.35506908090247,5.75915886671553
0.4349268102066251,0.2795426347460155,231,31,22.35506908090247,5.75915886671553
0.4377215238171508,0.279539839976802,231,31,22.35506908090247,5.75915886671553
0.440516209486907,0.2795370452355299,231,31,22.35506908090247,5.75915886671553
0.4433108672161887,0.2795342505221988,231,31,22.35506908090247,5.75915886671553
0.4461054970052895,0.27953145583680855,231,31,22.35506908090247,5.75915886671553
0.4489000988545024,0.27952866117935876,231,31,22.35506908090247,5.75915886671553
0.4516946727641186,0.2795258665498491,231,31,22.35506908090247,5.75915886671553
0.4544892187344291,0.27952307194827936,231,31,22.35506908090247,5.75915886671553
0.4572837367657236,0.27952027737464924,231,31,22.35506908090247,5.75915886671553
0.46007822685829114,0.2795174828289584,231,31,22.35506908090247,5.75915886671553
0.46287268901241985,0.2795146883112065,231,31,22.35506908090247,5.75915886671553
0.46566712322839743,0.2795118938213934,231,31,22.35506908090247,5.75915886671553
0.46846152950651065,0.27950909935951873,231,31,22.35506908090247,5.75915886671553
0.4712559078470458,0.2795063049255822,231,31,22.35506908090247,5.75915886671553
0.4740502582502889,0.27950351051958355,231,31,22.35506908090247,5.75915886671553
0.4768445807165251,0.27950071614152244,231,31,22.35506908090247,5.75915886671553
0.47963887524603915,0.27949792179139865,231,31,22.35506908090247,5.75915886671553
0.4824331418391155,0.27949512746921185,231,31,22.35506908090247,5.75915886671553
0.48522738049603814,0.2794923331749618,231,31,22.35506908090247,5.75915886671553
0.4880215912170908,0.27948953890864814,231,31,22.35506908090247,5.75915886671553
0.4908157740025566,0.2794867446702706,231,31,22.35506908090247,5.75915886671553
0.49360992885271876,0.279483950459829,231,31,22.35506908090247,5.75915886671553
0.49640405576785973,0.27948115627732295,231,31,22.35506908090247,5.75915886671553
0.4991981547482621,0.27947836212275223,231,31,22.35506908090247,5.75915886671553
0.5019922257942081,0.2794755679961165,231,31,22.35506908090247,5.75915886671553
0.5047862689059797,0.27947277389741554,231,31,22.35506908090247,5.75915886671553
0.5075802840838584,0.279469979826649,231,31,22.35506908090247,5.75915886671553
0.510374271328126,0.27946718578381663,231,31,22.35506908090247,5.75915886671553
0.5131682306390639,0.27946439176891813,231,31,22.35506908090247,5.75915886671553
0.5159621620169531,0.2794615977819533,231,31,22.35506908090247,5.75915886671553
0.5187560654620749,0.27945880382292176,231,31,22.35506908090247,5.75915886671553
0.52154994097471,0.2794560098918233,231,31,22.35506908090247,5.75915886671553
0.5243437885551394,0.2794532159886575,231,31,22.35506908090247,5.75915886671553
0.5271376082036435,0.2794504221134243,231,31,22.35506908090247,5.75915886671553
0.5299313999205032,0.27944762826612324,231,31,22.35506908090247,5.75915886671553
0.5327251637059989,0.27944483444675416,231,31,22.35506908090247,5.75915886671553
0.5355188995604109,0.2794420406553167,231,31,22.35506908090247,5.75915886671553
0.5383126074840191,0.27943924689181054,231,31,22.35506908090247,5.75915886671553
0.5411062874771042,0.2794364531562355,231,31,22.35506908090247,5.75915886671553
0.5438999395399462,0.2794336594485913,231,31,22.35506908090247,5.75915886671553
0.5466935636728251,0.2794308657688776,231,31,22.35506908090247,5.75915886671553
0.5494871598760207,0.2794280721170941,231,31,22.35506908090247,5.75915886671553
0.5522807281498132,0.2794252784932406,231,31,22.35506908090247,5.75915886671553
0.5550742684944823,0.27942248489731675,231,31,22.35506908090247,5.75915886671553
0.5578677809103079,0.2794196913293223,231,31,22.35506908090247,5.75915886671553
0.5606612653975697,0.27941689778925705,231,31,22.35506908090247,5.75915886671553
0.5634547219565474,0.27941410427712055,231,31,22.35506908090247,5.75915886671553
0.5662481505875209,0.27941131079291265,231,31,22.35506908090247,5.75915886671553
0.5690415512907695,0.279408517336633,231,31,22.35506908090247,5.75915886671553
0.571834924066573,0.2794057239082814,231,31,22.35506908090247,5.75915886671553
0.5746282689152109,0.27940293050785747,231,31,22.35506908090247,5.75915886671553
0.5774215858369629,0.27940013713536105,231,31,22.35506908090247,5.75915886671553
0.5802148748321083,0.27939734379079173,231,31,22.35506908090247,5.75915886671553
0.5830081359009266,0.2793945504741493,231,31,22.35506908090247,5.75915886671553
0.5858013690436973,0.2793917571854335,231,31,22.35506908090247,5.75915886671553
0.5885945742606999,0.279388963924644,231,31,22.35506908090247,5.75915886671553
0.5913877515522139,0.27938617069178057,231,31,22.35506908090247,5.75915886671553
0.5941809009185184,0.2793833774868429,231,31,22.35506908090247,5.75915886671553
0.5969740223598932,0.2793805843098307,231,31,22.35506908090247,5.75915886671553
0.5997671158766172,0.27937779116074374,231,31,22.35506908090247,5.75915886671553
0.6025601814689702,0.27937499803958166,231,31,22.35506908090247,5.75915886671553
0.6053532191372311,0.27937220494634424,231,31,22.35506908090247,5.75915886671553
0.6081462288816795,0.2793694118810312,231,31,22.35506908090247,5.75915886671553
0.6109392107025945,0.2793666188436423,231,31,22.35506908090247,5.75915886671553
0.6137321646002556,0.2793638258341771,231,31,22.35506908090247,5.75915886671553
0.616525090574942,0.2793610328526355,231,31,22.35506908090247,5.75915886671553
0.619317988626933,0.27935823989901715,231,31,22.35506908090247,5.75915886671553
0.6221108587565075,0.27935544697332176,231,31,22.35506908090247,5.75915886671553
0.6249037009639451,0.2793526540755491,231,31,22.35506908090247,5.75915886671553
0.6276965152495252,0.27934986120569877,231,31,22.35506908090247,5.75915886671553
0.6304893016135267,0.27934706836377066,231,31,22.35506908090247,5.75915886671553
0.6332820600562289,0.2793442755497644,231,31,22.35506908090247,5.75915886671553
0.6360747905779109,0.27934148276367965,231,31,22.35506908090247,5.75915886671553
0.6388674931788522,0.2793386900055162,231,31,22.35506908090247,5.75915886671553
0.6416601678593317,0.2793358972752738,231,31,22.35506908090247,5.75915886671553
0.6444528146196287,0.27933310457295213,231,31,22.35506908090247,5.75915886671553
0.6472454334600225,0.27933031189855095,231,31,22.35506908090247,5.75915886671553
0.6500380243807922,0.2793275192520699,231,31,22.35506908090247,5.75915886671553
0.6528305873822169,0.27932472663350877,231,31,22.35506908090247,5.75915886671553
0.6556231224645758,0.27932193404286726,231,31,22.35506908090247,5.75915886671553
0.658415629628148,0.27931914148014514,231,31,22.35506908090247,5.75915886671553
0.6612081088732127,0.279316348945342,231,31,22.35506908090247,5.75915886671553
0.6640005602000493,0.2793135564384577,231,31,22.35506908090247,5.75915886671553
0.6667929836089364,0.2793107639594919,231,31,22.35506908090247,5.75915886671553
0.6695853791001535,0.27930797150844433,231,31,22.35506908090247,5.75915886671553
0.6723777466739796,0.27930517908531466,231,31,22.35506908090247,5.75915886671553
0.6751700863306939,0.2793023866901027,231,31,22.35506908090247,5.75915886671553
0.6779623980705755,0.2792995943228081,231,31,22.35506908090247,5.75915886671553
