Vout,Iout,Irradiance,Temperature,MaxVoltage,MaxPower
0.007613216795992347,1.5226579999999998,1271,24,21.861767486992726,32.81071105616444
0.022839509612392856,1.5226579999999998,1271,24,21.861767486992726,32.81071105616444
0.03806549288207952,1.5226502345174038,1271,24,21.861767486992726,32.81071105616444
0.05329111130463441,1.5226350082245874,1271,24,21.861767486992726,32.81071105616444
0.06851634680692156,1.5226197822420944,1271,24,21.861767486992726,32.81071105616444
0.08374121714250533,1.5226045566251944,1271,24,21.861767486992726,32.81071105616444
0.09896573869958593,1.5225893313912147,1271,24,21.861767486992726,32.81071105616444
0.11418992660571554,1.5225741065224017,1271,24,21.861767486992726,32.81071105616444
0.12941379482462576,1.5225588820023672,1271,24,21.861767486992726,32.81071105616444
0.14463735624577376,1.5225436578159834,1271,24,21.861767486992726,32.81071105616444
0.15986062276699875,1.522528433949287,1271,24,21.861767486992726,32.81071105616444
0.17508360537081852,1.5225132103893884,1271,24,21.861767486992726,32.81071105616444
0.19030631419485575,1.5224979871243896,1271,24,21.861767486992726,32.81071105616444
0.2055287585968455,1.522482764143308,1271,24,21.861767486992726,32.81071105616444
0.22075094721464114,1.5224675414360063,1271,24,21.861767486992726,32.81071105616444
0.235972888021603,1.5224523189931265,1271,24,21.861767486992726,32.81071105616444
0.25119458837772557,1.522437096806031,1271,24,21.861767486992726,32.81071105616444
0.266416055076831,1.5224218748667464,1271,24,21.861767486992726,32.81071105616444
0.281637294390131,1.5224066531679123,1271,24,21.861767486992726,32.81071105616444
0.29685831210643754,1.5223914317027356,1271,24,21.861767486992726,32.81071105616444
0.3120791135692791,1.5223762104649443,1271,24,21.861767486992726,32.81071105616444
0.32729970371116196,1.5223609894487502,1271,24,21.861767486992726,32.81071105616444
0.3425200870851946,1.5223457686488095,1271,24,21.861767486992726,32.81071105616444
0.35774026789427926,1.5223305480601896,1271,24,21.861767486992726,32.81071105616444
0.3729602500180572,1.5223153276783379,1271,24,21.861767486992726,32.81071105616444
0.38818003703778126,1.5223001074990508,1271,24,21.861767486992726,32.81071105616444
0.40339963225927367,1.522284887518449,1271,24,21.861767486992726,32.81071105616444
0.41861903873411893,1.5222696677329512,1271,24,21.861767486992726,32.81071105616444
0.4338382592792247,1.522254448139252,1271,24,21.861767486992726,32.81071105616444
0.4490572964948783,1.522239228734299,1271,24,21.861767486992726,32.81071105616444
0.4642761527814141,1.5222240095152757,1271,24,21.861767486992726,32.81071105616444
0.4794948303545979,1.522208790479582,1271,24,21.861767486992726,32.81071105616444
0.49471333125982775,1.5221935716248174,1271,24,21.861767486992726,32.81071105616444
0.5099316573852432,1.5221783529487662,1271,24,21.861767486992726,32.81071105616444
0.5251498104738237,1.522163134449383,1271,24,21.861767486992726,32.81071105616444
0.5403677921345588,1.5221479161247793,1271,24,21.861767486992726,32.81071105616444
0.5555856038527562,1.5221326979732126,1271,24,21.861767486992726,32.81071105616444
0.5708032469995593,1.5221174799930737,1271,24,21.861767486992726,32.81071105616444
0.5860207228407304,1.5221022621828773,1271,24,21.861767486992726,32.81071105616444
0.6012380325447589,1.5220870445412522,1271,24,21.861767486992726,32.81071105616444
0.6164551771903459,1.522071827066933,1271,24,21.861767486992726,32.81071105616444
0.6316721577733129,1.5220566097587507,1271,24,21.861767486992726,32.81071105616444
0.6468889752129777,1.5220413926156269,1271,24,21.861767486992726,32.81071105616444
0.6621056303580422,1.5220261756365656,1271,24,21.861767486992726,32.81071105616444
0.6773221239920239,1.5220109588206476,1271,24,21.861767486992726,32.81071105616444
0.6925384568382728,1.5219957421670243,1271,24,21.861767486992726,32.81071105616444
0.7077546295646001,1.521980525674912,1271,24,21.861767486992726,32.81071105616444
0.7229706427875516,1.5219653093435874,1271,24,21.861767486992726,32.81071105616444
0.738186497076352,1.5219500931723826,1271,24,21.861767486992726,32.81071105616444
0.7534021929565464,1.5219348771606813,1271,24,21.861767486992726,32.81071105616444
0.76861773091336,1.5219196613079142,1271,24,21.861767486992726,32.81071105616444
0.7838331113948017,1.5219044456135555,1271,24,21.861767486992726,32.81071105616444
0.7990483348145259,1.5218892300771203,1271,24,21.861767486992726,32.81071105616444
0.8142634015544776,1.5218740146981604,1271,24,21.861767486992726,32.81071105616444
0.8294783119673313,1.5218587994762622,1271,24,21.861767486992726,32.81071105616444
0.8446930663787431,1.5218435844110438,1271,24,21.861767486992726,32.81071105616444
0.8599076650894293,1.5218283695021526,1271,24,21.861767486992726,32.81071105616444
0.8751221083770858,1.5218131547492626,1271,24,21.861767486992726,32.81071105616444
0.8903363964981592,1.5217979401520734,1271,24,21.861767486992726,32.81071105616444
0.9055505296894816,1.5217827257103074,1271,24,21.861767486992726,32.81071105616444
0.9207645081697797,1.5217675114237077,1271,24,21.861767486992726,32.81071105616444
0.9359783321410685,1.5217522972920379,1271,24,21.861767486992726,32.81071105616444
0.9511920017899365,1.521737083315079,1271,24,21.861767486992726,32.81071105616444
0.9664055172887323,1.521721869492629,1271,24,21.861767486992726,32.81071105616444
0.9816188787966611,1.5217066558245016,1271,24,21.861767486992726,32.81071105616444
0.9968320864607956,1.5216914423105241,1271,24,21.861767486992726,32.81071105616444
1.0120451404170094,1.5216762289505377,1271,24,21.861767486992726,32.81071105616444
1.0272580407908385,1.5216610157443948,1271,24,21.861767486992726,32.81071105616444
1.0424707876982773,1.52164580269196,1271,24,21.861767486992726,32.81071105616444
1.057683381246513,1.5216305897931075,1271,24,21.861767486992726,32.81071105616444
1.072895821534601,1.5216153770477212,1271,24,21.861767486992726,32.81071105616444
1.0881081086540936,1.5216001644556945,1271,24,21.861767486992726,32.81071105616444
1.1033202426896151,1.5215849520169276,1271,24,21.861767486992726,32.81071105616444
1.1185322237193966,1.5215697397313293,1271,24,21.861767486992726,32.81071105616444
1.1337440518157655,1.521554527598815,1271,24,21.861767486992726,32.81071105616444
1.1489557270456023,1.5215393156193064,1271,24,21.861767486992726,32.81071105616444
1.164167249470759,1.5215241037927314,1271,24,21.861767486992726,32.81071105616444
1.179378619148444,1.5215088921190227,1271,24,21.861767486992726,32.81071105616444
1.1945898361315823,1.5214936805981187,1271,24,21.861767486992726,32.81071105616444
1.2098009004691428,1.521478469229962,1271,24,21.861767486992726,32.81071105616444
1.2250118122064448,1.5214632580145002,1271,24,21.861767486992726,32.81071105616444
1.2402225713854367,1.5214480469516838,1271,24,21.861767486992726,32.81071105616444
1.2554331780449561,1.5214328360414675,1271,24,21.861767486992726,32.81071105616444
1.2706436322209709,1.5214176252838096,1271,24,21.861767486992726,32.81071105616444
1.2858539339467958,1.5214024146786713,1271,24,21.861767486992726,32.81071105616444
1.301064083253302,1.5213872042260164,1271,24,21.861767486992726,32.81071105616444
1.3162740801691009,1.5213719939258117,1271,24,21.861767486992726,32.81071105616444
1.3314839247207193,1.5213567837780262,1271,24,21.861767486992726,32.81071105616444
1.346693616932761,1.5213415737826315,1271,24,21.861767486992726,32.81071105616444
1.3619031568280529,1.5213263639396009,1271,24,21.861767486992726,32.81071105616444
1.3771125444277819,1.5213111542489097,1271,24,21.861767486992726,32.81071105616444
1.3923217797516236,1.5212959447105354,1271,24,21.861767486992726,32.81071105616444
1.4075308628178549,1.5212807353244566,1271,24,21.861767486992726,32.81071105616444
1.4227397936434645,1.5212655260906538,1271,24,21.861767486992726,32.81071105616444
1.43794857224425,1.5212503170091085,1271,24,21.861767486992726,32.81071105616444
1.4531571986349112,1.5212351080798037,1271,24,21.861767486992726,32.81071105616444
1.468365672829134,1.521219899302724,1271,24,21.861767486992726,32.81071105616444
1.483573994839667,1.521204690677854,1271,24,21.861767486992726,32.81071105616444
1.498782164678396,1.5211894822051808,1271,24,21.861767486992726,32.81071105616444
1.513990182356409,1.5211742738846912,1271,24,21.861767486992726,32.81071105616444
1.5291980478840577,1.5211590657163732,1271,24,21.861767486992726,32.81071105616444
1.5444057612710138,1.521143857700216,1271,24,21.861767486992726,32.81071105616444
1.5596133225263233,1.5211286498362093,1271,24,21.861767486992726,32.81071105616444
1.574820731658451,1.521113442124343,1271,24,21.861767486992726,32.81071105616444
1.590027988675329,1.5210982345646085,1271,24,21.861767486992726,32.81071105616444
1.605235093584395,1.5210830271569973,1271,24,21.861767486992726,32.81071105616444
1.620442046392633,1.521067819901501,1271,24,21.861767486992726,32.81071105616444
1.6356488471066042,1.5210526127981128,1271,24,21.861767486992726,32.81071105616444
1.6508554957324835,1.5210374058468252,1271,24,21.861767486992726,32.81071105616444
1.666061992276087,1.521022199047632,1271,24,21.861767486992726,32.81071105616444
1.681268336742901,1.5210069924005267,1271,24,21.861767486992726,32.81071105616444
1.6964745291381058,1.5209917859055038,1271,24,21.861767486992726,32.81071105616444
1.7116805694666004,1.5209765795625576,1271,24,21.861767486992726,32.81071105616444
1.7268864577330236,1.5209613733716831,1271,24,21.861767486992726,32.81071105616444
1.7420921939417744,1.5209461673328752,1271,24,21.861767486992726,32.81071105616444
1.7572977780970305,1.5209309614461295,1271,24,21.861767486992726,32.81071105616444
1.7725032102027642,1.5209157557114414,1271,24,21.861767486992726,32.81071105616444
1.7877084902627602,1.5209005501288066,1271,24,21.861767486992726,32.81071105616444
1.8029136182806278,1.5208853446982216,1271,24,21.861767486992726,32.81071105616444
1.818118594259817,1.520870139419682,1271,24,21.861767486992726,32.81071105616444
1.8333234182036278,1.5208549342931847,1271,24,21.861767486992726,32.81071105616444
1.8485280901152235,1.5208397293187261,1271,24,21.861767486992726,32.81071105616444
1.8637326099976426,1.5208245244963028,1271,24,21.861767486992726,32.81071105616444
1.8789369778538036,1.5208093198259116,1271,24,21.861767486992726,32.81071105616444
1.8941411936865202,1.5207941153075497,1271,24,21.861767486992726,32.81071105616444
1.9093452574985057,1.520778910941214,1271,24,21.861767486992726,32.81071105616444
1.9245491692923806,1.5207637067269018,1271,24,21.861767486992726,32.81071105616444
1.9397529290706816,1.5207485026646101,1271,24,21.861767486992726,32.81071105616444
1.9549565368358666,1.5207332987543367,1271,24,21.861767486992726,32.81071105616444
1.9701599925903228,1.5207180949960788,1271,24,21.861767486992726,32.81071105616444
1.9853632963363679,1.5207028913898342,1271,24,21.861767486992726,32.81071105616444
2.0005664480762606,1.5206876879356,1271,24,21.861767486992726,32.81071105616444
2.015769447812202,1.5206724846333743,1271,24,21.861767486992726,32.81071105616444
2.030972295546341,1.5206572814831547,1271,24,21.861767486992726,32.81071105616444
2.0461749912807763,1.5206420784849393,1271,24,21.861767486992726,32.81071105616444
2.061377535017564,1.5206268756387253,1271,24,21.861767486992726,32.81071105616444
2.0765799267587184,1.5206116729445112,1271,24,21.861767486992726,32.81071105616444
2.091782166506216,1.5205964704022947,1271,24,21.861767486992726,32.81071105616444
2.1069842542619983,1.5205812680120738,1271,24,21.861767486992726,32.81071105616444
2.1221861900279717,1.5205660657738467,1271,24,21.861767486992726,32.81071105616444
2.1373879738060166,1.520550863687611,1271,24,21.861767486992726,32.81071105616444
2.152589605597984,1.5205356617533652,1271,24,21.861767486992726,32.81071105616444
2.167791085405698,1.5205204599711075,1271,24,21.861767486992726,32.81071105616444
2.182992413230961,1.5205052583408356,1271,24,21.861767486992726,32.81071105616444
2.1981935890755535,1.5204900568625481,1271,24,21.861767486992726,32.81071105616444
2.2133946129412356,1.520474855536243,1271,24,21.861767486992726,32.81071105616444
2.2285954848297487,1.5204596543619187,1271,24,21.861767486992726,32.81071105616444
2.243796204742817,1.5204444533395731,1271,24,21.861767486992726,32.81071105616444
2.2589967726821496,1.5204292524692047,1271,24,21.861767486992726,32.81071105616444
2.2741971886494396,1.5204140517508118,1271,24,21.861767486992726,32.81071105616444
2.2893974526463685,1.5203988511843924,1271,24,21.861767486992726,32.81071105616444
2.304597564674604,1.5203836507699453,1271,24,21.861767486992726,32.81071105616444
2.3197975247358036,1.5203684505074684,1271,24,21.861767486992726,32.81071105616444
2.3349973328316116,1.5203532503969601,1271,24,21.861767486992726,32.81071105616444
2.3501969889636665,1.520338050438419,1271,24,21.861767486992726,32.81071105616444
2.365396493133594,1.5203228506318431,1271,24,21.861767486992726,32.81071105616444
2.3805958453430143,1.520307650977231,1271,24,21.861767486992726,32.81071105616444
2.395795045593537,1.5202924514745813,1271,24,21.861767486992726,32.81071105616444
2.410994093886768,1.5202772521238916,1271,24,21.861767486992726,32.81071105616444
2.4261929902243047,1.5202620529251611,1271,24,21.861767486992726,32.81071105616444
2.4413917346077385,1.5202468538783878,1271,24,21.861767486992726,32.81071105616444
2.456590327038655,1.5202316549835702,1271,24,21.861767486992726,32.81071105616444
2.471788767518636,1.5202164562407068,1271,24,21.861767486992726,32.81071105616444
2.4869870560492555,1.5202012576497956,1271,24,21.861767486992726,32.81071105616444
2.5021851926320875,1.5201860592108356,1271,24,21.861767486992726,32.81071105616444
2.5173831772686985,1.520170860923825,1271,24,21.861767486992726,32.81071105616444
2.532581009960653,1.5201556627887618,1271,24,21.861767486992726,32.81071105616444
2.5477786907095115,1.5201404648056451,1271,24,21.861767486992726,32.81071105616444
2.5629762195168304,1.520125266974473,1271,24,21.861767486992726,32.81071105616444
2.5781735963841643,1.5201100692952438,1271,24,21.861767486992726,32.81071105616444
2.593370821313065,1.5200948717679563,1271,24,21.861767486992726,32.81071105616444
2.608567894305081,1.5200796743926088,1271,24,21.861767486992726,32.81071105616444
2.62376481536176,1.5200644771691996,1271,24,21.861767486992726,32.81071105616444
2.638961584484646,1.5200492800977272,1271,24,21.861767486992726,32.81071105616444
2.6541582016752807,1.5200340831781904,1271,24,21.861767486992726,32.81071105616444
2.669354666935207,1.5200188864105872,1271,24,21.861767486992726,32.81071105616444
2.684550980265961,1.5200036897949163,1271,24,21.861767486992726,32.81071105616444
2.6997471416690826,1.519988493331176,1271,24,21.861767486992726,32.81071105616444
2.7149431511461075,1.519973297019365,1271,24,21.861767486992726,32.81071105616444
2.7301390086985693,1.5199581008594814,1271,24,21.861767486992726,32.81071105616444
2.745334714328003,1.519942904851524,1271,24,21.861767486992726,32.81071105616444
2.7605302680359403,1.5199277089954912,1271,24,21.861767486992726,32.81071105616444
2.7757256698239123,1.5199125132913813,1271,24,21.861767486992726,32.81071105616444
2.790920919693449,1.519897317739193,1271,24,21.861767486992726,32.81071105616444
2.8061160176460795,1.5198821223389245,1271,24,21.861767486992726,32.81071105616444
2.821310963683334,1.5198669270905747,1271,24,21.861767486992726,32.81071105616444
2.83650575780674,1.5198517319941416,1271,24,21.861767486992726,32.81071105616444
2.851700400017823,1.5198365370496238,1271,24,21.861767486992726,32.81071105616444
2.8668948903181106,1.51982134225702,1271,24,21.861767486992726,32.81071105616444
2.882089228709129,1.5198061476163283,1271,24,21.861767486992726,32.81071105616444
2.8972834151924025,1.5197909531275475,1271,24,21.861767486992726,32.81071105616444
2.9124774497694577,1.519775758790676,1271,24,21.861767486992726,32.81071105616444
2.927671332441817,1.5197605646057122,1271,24,21.861767486992726,32.81071105616444
2.9428650632110043,1.5197453705726545,1271,24,21.861767486992726,32.81071105616444
2.9580586420785435,1.5197301766915017,1271,24,21.861767486992726,32.81071105616444
2.973252069045958,1.5197149829622518,1271,24,21.861767486992726,32.81071105616444
2.988445344114771,1.5196997893849036,1271,24,21.861767486992726,32.81071105616444
3.003638467286503,1.5196845959594556,1271,24,21.861767486992726,32.81071105616444
3.0188314385626778,1.5196694026859061,1271,24,21.861767486992726,32.81071105616444
3.0340242579448162,1.5196542095642538,1271,24,21.861767486992726,32.81071105616444
3.04921692543444,1.5196390165944968,1271,24,21.861767486992726,32.81071105616444
3.064409441033071,1.519623823776634,1271,24,21.861767486992726,32.81071105616444
3.0796018047422296,1.5196086311106638,1271,24,21.861767486992726,32.81071105616444
3.094794016563437,1.5195934385965844,1271,24,21.861767486992726,32.81071105616444
3.1099860764982137,1.5195782462343945,1271,24,21.861767486992726,32.81071105616444
3.1251779845480803,1.5195630540240925,1271,24,21.861767486992726,32.81071105616444
3.140369740714557,1.519547861965677,1271,24,21.861767486992726,32.81071105616444
3.1555613449991644,1.5195326700591463,1271,24,21.861767486992726,32.81071105616444
3.1707527974034218,1.5195174783044991,1271,24,21.861767486992726,32.81071105616444
3.1859440979288505,1.5195022867017336,1271,24,21.861767486992726,32.81071105616444
3.201135246576968,1.5194870952508486,1271,24,21.861767486992726,32.81071105616444
3.216326243349295,1.5194719039518423,1271,24,21.861767486992726,32.81071105616444
3.2315170882473523,1.5194567128047134,1271,24,21.861767486992726,32.81071105616444
3.246707781272656,1.5194415218094601,1271,24,21.861767486992726,32.81071105616444
3.2618983224267297,1.5194263309660812,1271,24,21.861767486992726,32.81071105616444
3.277088711711089,1.519411140274575,1271,24,21.861767486992726,32.81071105616444
3.2922789491272555,1.51939594973494,1271,24,21.861767486992726,32.81071105616444
3.307469034676747,1.5193807593471746,1271,24,21.861767486992726,32.81071105616444
3.322658968361083,1.5193655691112775,1271,24,21.861767486992726,32.81071105616444
3.3378487501817817,1.5193503790272471,1271,24,21.861767486992726,32.81071105616444
3.3530383801403634,1.519335189095082,1271,24,21.861767486992726,32.81071105616444
3.3682278582383463,1.5193199993147801,1271,24,21.861767486992726,32.81071105616444
3.3834171844772487,1.5193048096863406,1271,24,21.861767486992726,32.81071105616444
3.3986063588585895,1.5192896202097617,1271,24,21.861767486992726,32.81071105616444
3.413795381383887,1.5192744308850417,1271,24,21.861767486992726,32.81071105616444
3.4289842520546605,1.5192592417121793,1271,24,21.861767486992726,32.81071105616444
3.444172970872428,1.5192440526911728,1271,24,21.861767486992726,32.81071105616444
3.4593615378387077,1.519228863822021,1271,24,21.861767486992726,32.81071105616444
3.4745499529550186,1.519213675104722,1271,24,21.861767486992726,32.81071105616444
3.4897382162228796,1.5191984865392747,1271,24,21.861767486992726,32.81071105616444
3.504926327643809,1.5191832981256772,1271,24,21.861767486992726,32.81071105616444
3.5201142872193256,1.5191681098639283,1271,24,21.861767486992726,32.81071105616444
3.535302094950946,1.5191529217540263,1271,24,21.861767486992726,32.81071105616444
3.5504897508401894,1.5191377337959695,1271,24,21.861767486992726,32.81071105616444
3.5656772548885742,1.5191225459897568,1271,24,21.861767486992726,32.81071105616444
3.580864607097619,1.5191073583353862,1271,24,21.861767486992726,32.81071105616444
3.596051807468841,1.5190921708328566,1271,24,21.861767486992726,32.81071105616444
3.6112388560037587,1.5190769834821665,1271,24,21.861767486992726,32.81071105616444
