Vout,Iout,Irradiance,Temperature,MaxVoltage,MaxPower
0.009850405284564571,1.9700999999999997,1791,-25,18.262151689186215,35.64546803221014
0.029551033710376956,1.9700999999999997,1791,-25,18.262151689186215,35.64546803221014
0.049251261627354825,1.970089952584715,1791,-25,18.262151689186215,35.64546803221014
0.06895101748472753,1.9700702519562894,1791,-25,18.262151689186215,35.64546803221014
0.08865027789846187,1.9700505517293772,1791,-25,18.262151689186215,35.64546803221014
0.10834906583911146,1.9700308519754899,1791,-25,18.262151689186215,35.64546803221014
0.1280474025106454,1.970011152717046,1791,-25,18.262151689186215,35.64546803221014
0.14774530748593592,1.9699914539310754,1791,-25,18.262151689186215,35.64546803221014
0.16744279883203925,1.9699717555963738,1791,-25,18.262151689186215,35.64546803221014
0.18713989322605531,1.9699520576933685,1791,-25,18.262151689186215,35.64546803221014
0.20683660606207319,1.9699323602039922,1791,-25,18.262151689186215,35.64546803221014
0.22653295154988812,1.969912663111568,1791,-25,18.262151689186215,35.64546803221014
0.24622894280612273,1.9698929664007017,1791,-25,18.262151689186215,35.64546803221014
0.26592459193833756,1.9698732700571835,1791,-25,18.262151689186215,35.64546803221014
0.28561991012266996,1.969853574067897,1791,-25,18.262151689186215,35.64546803221014
0.305314907675499,1.9698338784207343,1791,-25,18.262151689186215,35.64546803221014
0.32500959411959696,1.9698141831045197,1791,-25,18.262151689186215,35.64546803221014
0.3447039782451902,1.9697944881089364,1791,-25,18.262151689186215,35.64546803221014
0.36439806816632303,1.9697747934244618,1791,-25,18.262151689186215,35.64546803221014
0.38409187137288375,1.9697550990423058,1791,-25,18.262151689186215,35.64546803221014
0.40378539477862835,1.969735404954354,1791,-25,18.262151689186215,35.64546803221014
0.4234786447655088,1.969715711153117,1791,-25,18.262151689186215,35.64546803221014
0.4431716272245914,1.9696960176316807,1791,-25,18.262151689186215,35.64546803221014
0.4628643475938258,1.969676324383663,1791,-25,18.262151689186215,35.64546803221014
0.48255681089290875,1.9696566314031734,1791,-25,18.262151689186215,35.64546803221014
0.502249021755465,1.9696369386847734,1791,-25,18.262151689186215,35.64546803221014
0.5219409844587524,1.9696172462234436,1791,-25,18.262151689186215,35.64546803221014
0.5416327029510813,1.9695975540145505,1791,-25,18.262151689186215,35.64546803221014
0.5613241808771244,1.9695778620538165,1791,-25,18.262151689186215,35.64546803221014
0.5810154216012787,1.9695581703372933,1791,-25,18.262151689186215,35.64546803221014
0.6007064282292307,1.9695384788613364,1791,-25,18.262151689186215,35.64546803221014
0.6203972036278621,1.9695187876225815,1791,-25,18.262151689186215,35.64546803221014
0.6400877504436234,1.9694990966179227,1791,-25,18.262151689186215,35.64546803221014
0.6597780711194947,1.969479405844493,1791,-25,18.262151689186215,35.64546803221014
0.6794681679106406,1.9694597152996465,1791,-25,18.262151689186215,35.64546803221014
0.699158042898861,1.9694400249809396,1791,-25,18.262151689186215,35.64546803221014
0.7188476980059311,1.9694203348861177,1791,-25,18.262151689186215,35.64546803221014
0.7385371350059119,1.9694006450130983,1791,-25,18.262151689186215,35.64546803221014
0.7582263555365175,1.9693809553599604,1791,-25,18.262151689186215,35.64546803221014
0.7779153611096054,1.9693612659249293,1791,-25,18.262151689186215,35.64546803221014
0.797604153120859,1.9693415767063678,1791,-25,18.262151689186215,35.64546803221014
0.8172927328587273,1.9693218877027636,1791,-25,18.262151689186215,35.64546803221014
0.8369811015126757,1.9693021989127213,1791,-25,18.262151689186215,35.64546803221014
0.8566692601808015,1.9692825103349523,1791,-25,18.262151689186215,35.64546803221014
0.8763572098768643,1.969262821968267,1791,-25,18.262151689186215,35.64546803221014
0.896044951536774,1.969243133811568,1791,-25,18.262151689186215,35.64546803221014
0.9157324860245827,1.9692234458638407,1791,-25,18.262151689186215,35.64546803221014
0.9354198141380115,1.9692037581241495,1791,-25,18.262151689186215,35.64546803221014
0.9551069366135551,1.9691840705916306,1791,-25,18.262151689186215,35.64546803221014
0.9747938541311927,1.969164383265486,1791,-25,18.262151689186215,35.64546803221014
0.9944805673187364,1.9691446961449792,1791,-25,18.262151689186215,35.64546803221014
1.0141670767558442,1.9691250092294301,1791,-25,18.262151689186215,35.64546803221014
1.0338533829777266,1.9691053225182114,1791,-25,18.262151689186215,35.64546803221014
1.0535394864785648,1.969085636010743,1791,-25,18.262151689186215,35.64546803221014
1.0732253877146687,1.9690659497064897,1791,-25,18.262151689186215,35.64546803221014
1.09291108710739,1.9690462636049575,1791,-25,18.262151689186215,35.64546803221014
1.1125965850458126,1.9690265777056901,1791,-25,18.262151689186215,35.64546803221014
1.132281881889235,1.969006892008266,1791,-25,18.262151689186215,35.64546803221014
1.1519669779694621,1.9689872065122962,1791,-25,18.262151689186215,35.64546803221014
1.1716518735929207,1.9689675212174214,1791,-25,18.262151689186215,35.64546803221014
1.1913365690426119,1.9689478361233097,1791,-25,18.262151689186215,35.64546803221014
1.211021064579913,1.9689281512296546,1791,-25,18.262151689186215,35.64546803221014
1.230705360446243,1.9689084665361736,1791,-25,18.262151689186215,35.64546803221014
1.2503894568645968,1.9688887820426046,1791,-25,18.262151689186215,35.64546803221014
1.2700733540409626,1.9688690977487069,1791,-25,18.262151689186215,35.64546803221014
1.2897570521656307,1.968849413654257,1791,-25,18.262151689186215,35.64546803221014
1.3094405514144027,1.968829729759049,1791,-25,18.262151689186215,35.64546803221014
1.329123851949704,1.9688100460628928,1791,-25,18.262151689186215,35.64546803221014
1.3488069539216143,1.9687903625656125,1791,-25,18.262151689186215,35.64546803221014
1.368489857468818,1.9687706792670454,1791,-25,18.262151689186215,35.64546803221014
1.38817256271948,1.968750996167042,1791,-25,18.262151689186215,35.64546803221014
1.4078550697920544,1.968731313265463,1791,-25,18.262151689186215,35.64546803221014
1.4275373787960337,1.9687116305621806,1791,-25,18.262151689186215,35.64546803221014
1.4472194898326367,1.9686919480570764,1791,-25,18.262151689186215,35.64546803221014
1.466901402995446,1.9686722657500406,1791,-25,18.262151689186215,35.64546803221014
1.4865831183709943,1.9686525836409723,1791,-25,18.262151689186215,35.64546803221014
1.506264636039309,1.9686329017297777,1791,-25,18.262151689186215,35.64546803221014
1.5259459560744104,1.9686132200163704,1791,-25,18.262151689186215,35.64546803221014
1.545627078544775,1.9685935385006703,1791,-25,18.262151689186215,35.64546803221014
1.5653080035137623,1.9685738571826032,1791,-25,18.262151689186215,35.64546803221014
1.584988731040008,1.968554176062101,1791,-25,18.262151689186215,35.64546803221014
1.604669261177788,1.9685344951391002,1791,-25,18.262151689186215,35.64546803221014
1.624349593977353,1.968514814413542,1791,-25,18.262151689186215,35.64546803221014
1.6440297294852377,1.9684951338853725,1791,-25,18.262151689186215,35.64546803221014
1.6637096677445502,1.968475453554541,1791,-25,18.262151689186215,35.64546803221014
1.6833894087952312,1.968455773421001,1791,-25,18.262151689186215,35.64546803221014
1.7030689526742997,1.9684360934847098,1791,-25,18.262151689186215,35.64546803221014
1.7227482994160788,1.9684164137456273,1791,-25,18.262151689186215,35.64546803221014
1.7424274490524005,1.968396734203716,1791,-25,18.262151689186215,35.64546803221014
1.762106401612801,1.9683770548589423,1791,-25,18.262151689186215,35.64546803221014
1.7817851571246934,1.968357375711274,1791,-25,18.262151689186215,35.64546803221014
1.8014637156135338,1.9683376967606814,1791,-25,18.262151689186215,35.64546803221014
1.82114207710297,1.9683180180071376,1791,-25,18.262151689186215,35.64546803221014
1.840820241614983,1.9682983394506166,1791,-25,18.262151689186215,35.64546803221014
1.8604982091700137,1.968278661091095,1791,-25,18.262151689186215,35.64546803221014
1.8801759797870805,1.9682589829285508,1791,-25,18.262151689186215,35.64546803221014
1.8998535534838905,1.9682393049629636,1791,-25,18.262151689186215,35.64546803221014
1.91953093027694,1.9682196271943144,1791,-25,18.262151689186215,35.64546803221014
1.939208110181607,1.9681999496225853,1791,-25,18.262151689186215,35.64546803221014
1.9588850932122372,1.9681802722477602,1791,-25,18.262151689186215,35.64546803221014
1.9785618793822242,1.968160595069823,1791,-25,18.262151689186215,35.64546803221014
1.9982384687040833,1.9681409180887603,1791,-25,18.262151689186215,35.64546803221014
2.017914861189517,1.968121241304558,1791,-25,18.262151689186215,35.64546803221014
2.037591056849477,1.9681015647172038,1791,-25,18.262151689186215,35.64546803221014
2.0572670556942287,1.9680818883266862,1791,-25,18.262151689186215,35.64546803221014
2.076942857733394,1.9680622121329938,1791,-25,18.262151689186215,35.64546803221014
2.0966184629760085,1.9680425361361167,1791,-25,18.262151689186215,35.64546803221014
2.1162938714305626,1.9680228603360452,1791,-25,18.262151689186215,35.64546803221014
2.1359690831050457,1.9680031847327701,1791,-25,18.262151689186215,35.64546803221014
2.1556440980069826,1.9679835093262832,1791,-25,18.262151689186215,35.64546803221014
2.1753189161434716,1.9679638341165762,1791,-25,18.262151689186215,35.64546803221014
2.194993537521216,1.9679441591036417,1791,-25,18.262151689186215,35.64546803221014
2.214667962146554,1.9679244842874728,1791,-25,18.262151689186215,35.64546803221014
2.2343421900254867,1.9679048096680627,1791,-25,18.262151689186215,35.64546803221014
2.254016221163707,1.9678851352454048,1791,-25,18.262151689186215,35.64546803221014
2.2736900555666195,1.9678654610194932,1791,-25,18.262151689186215,35.64546803221014
2.2933636932393644,1.9678457869903225,1791,-25,18.262151689186215,35.64546803221014
2.313037134186838,1.967826113157887,1791,-25,18.262151689186215,35.64546803221014
2.3327103784137107,1.9678064395221817,1791,-25,18.262151689186215,35.64546803221014
2.3523834259244456,1.9677867660832016,1791,-25,18.262151689186215,35.64546803221014
2.3720562767233124,1.967767092840942,1791,-25,18.262151689186215,35.64546803221014
2.3917289308144056,1.9677474197953986,1791,-25,18.262151689186215,35.64546803221014
2.4114013882016545,1.967727746946567,1791,-25,18.262151689186215,35.64546803221014
2.4310736488888365,1.9677080742944433,1791,-25,18.262151689186215,35.64546803221014
2.4507457128795918,1.9676884018390235,1791,-25,18.262151689186215,35.64546803221014
2.47041758017743,1.9676687295803035,1791,-25,18.262151689186215,35.64546803221014
2.4900892507857435,1.96764905751828,1791,-25,18.262151689186215,35.64546803221014
2.509760724707813,1.9676293856529494,1791,-25,18.262151689186215,35.64546803221014
2.52943200194682,1.9676097139843083,1791,-25,18.262151689186215,35.64546803221014
2.549103082505851,1.9675900425123534,1791,-25,18.262151689186215,35.64546803221014
2.5687739663879077,1.9675703712370816,1791,-25,18.262151689186215,35.64546803221014
2.5884446535959107,1.9675507001584895,1791,-25,18.262151689186215,35.64546803221014
2.6081151441327077,1.9675310292765746,1791,-25,18.262151689186215,35.64546803221014
2.6277854380010783,1.9675113585913337,1791,-25,18.262151689186215,35.64546803221014
2.6474555352037408,1.9674916881027642,1791,-25,18.262151689186215,35.64546803221014
2.667125435743353,1.967472017810863,1791,-25,18.262151689186215,35.64546803221014
2.686795139622522,1.9674523477156272,1791,-25,18.262151689186215,35.64546803221014
2.7064646468438056,1.9674326778170546,1791,-25,18.262151689186215,35.64546803221014
2.726133957409714,1.9674130081151424,1791,-25,18.262151689186215,35.64546803221014
2.7458030713227166,1.967393338609888,1791,-25,18.262151689186215,35.64546803221014
2.765471988585245,1.9673736693012893,1791,-25,18.262151689186215,35.64546803221014
2.785140709199693,1.9673540001893433,1791,-25,18.262151689186215,35.64546803221014
2.804809233168422,1.9673343312740477,1791,-25,18.262151689186215,35.64546803221014
2.8244775604937646,1.9673146625554,1791,-25,18.262151689186215,35.64546803221014
2.844145691178024,1.9672949940333981,1791,-25,18.262151689186215,35.64546803221014
2.863813625223476,1.9672753257080398,1791,-25,18.262151689186215,35.64546803221014
2.8834813626323745,1.9672556575793223,1791,-25,18.262151689186215,35.64546803221014
2.9031489034069518,1.9672359896472438,1791,-25,18.262151689186215,35.64546803221014
2.922816247549417,1.9672163219118015,1791,-25,18.262151689186215,35.64546803221014
2.9424833950619633,1.9671966543729937,1791,-25,18.262151689186215,35.64546803221014
2.9621503459467644,1.9671769870308182,1791,-25,18.262151689186215,35.64546803221014
2.981817100205979,1.9671573198852723,1791,-25,18.262151689186215,35.64546803221014
3.0014836578417503,1.9671376529363542,1791,-25,18.262151689186215,35.64546803221014
3.021150018856209,1.9671179861840618,1791,-25,18.262151689186215,35.64546803221014
3.0408161832514704,1.9670983196283927,1791,-25,18.262151689186215,35.64546803221014
3.0604821510296416,1.967078653269345,1791,-25,18.262151689186215,35.64546803221014
3.0801479221928174,1.9670589871069164,1791,-25,18.262151689186215,35.64546803221014
3.099813496743082,1.9670393211411048,1791,-25,18.262151689186215,35.64546803221014
3.1194788746825104,1.9670196553719081,1791,-25,18.262151689186215,35.64546803221014
3.139144056013171,1.9669999897993244,1791,-25,18.262151689186215,35.64546803221014
3.1588090407371228,1.9669803244233517,1791,-25,18.262151689186215,35.64546803221014
3.1784738288564176,1.9669606592439877,1791,-25,18.262151689186215,35.64546803221014
3.1981384203731005,1.9669409942612301,1791,-25,18.262151689186215,35.64546803221014
3.2178028152892115,1.9669213294750774,1791,-25,18.262151689186215,35.64546803221014
3.2374670136067834,1.9669016648855273,1791,-25,18.262151689186215,35.64546803221014
3.257131015327845,1.9668820004925776,1791,-25,18.262151689186215,35.64546803221014
3.2767948204544197,1.9668623362962265,1791,-25,18.262151689186215,35.64546803221014
3.296458428988526,1.9668426722964718,1791,-25,18.262151689186215,35.64546803221014
3.316121840932179,1.9668230084933116,1791,-25,18.262151689186215,35.64546803221014
3.3357850562873894,1.966803344886744,1791,-25,18.262151689186215,35.64546803221014
3.355448075056166,1.9667836814767667,1791,-25,18.262151689186215,35.64546803221014
3.375110897240512,1.9667640182633779,1791,-25,18.262151689186215,35.64546803221014
3.394773522842428,1.9667443552465755,1791,-25,18.262151689186215,35.64546803221014
3.414435951863914,1.9667246924263575,1791,-25,18.262151689186215,35.64546803221014
3.4340981843069645,1.9667050298027218,1791,-25,18.262151689186215,35.64546803221014
3.4537602201735744,1.9666853673756666,1791,-25,18.262151689186215,35.64546803221014
3.4734220594657335,1.96666570514519,1791,-25,18.262151689186215,35.64546803221014
3.493083702185432,1.9666460431112893,1791,-25,18.262151689186215,35.64546803221014
3.512745148334657,1.9666263812739635,1791,-25,18.262151689186215,35.64546803221014
3.532406397915394,1.96660671963321,1791,-25,18.262151689186215,35.64546803221014
3.552067450929627,1.966587058189027,1791,-25,18.262151689186215,35.64546803221014
3.571728307379339,1.9665673969414124,1791,-25,18.262151689186215,35.64546803221014
3.5913889672665125,1.9665477358903642,1791,-25,18.262151689186215,35.64546803221014
3.6110494305931264,1.9665280750358807,1791,-25,18.262151689186215,35.64546803221014
3.630709697361159,1.9665084143779596,1791,-25,18.262151689186215,35.64546803221014
3.6503697675725886,1.9664887539165992,1791,-25,18.262151689186215,35.64546803221014
3.6700296412293922,1.9664690936517972,1791,-25,18.262151689186215,35.64546803221014
3.6896893183335453,1.9664494335835518,1791,-25,18.262151689186215,35.64546803221014
3.7093487988870226,1.966429773711861,1791,-25,18.262151689186215,35.64546803221014
3.7290080828917986,1.966410114036723,1791,-25,18.262151689186215,35.64546803221014
3.7486671703498486,1.9663904545581354,1791,-25,18.262151689186215,35.64546803221014
3.7683260612631426,1.9663707952760965,1791,-25,18.262151689186215,35.64546803221014
3.7879847556336546,1.9663511361906045,1791,-25,18.262151689186215,35.64546803221014
3.8076432534633553,1.9663314773016571,1791,-25,18.262151689186215,35.64546803221014
3.827301554754216,1.9663118186092525,1791,-25,18.262151689186215,35.64546803221014
3.8469596595082085,1.9662921601133887,1791,-25,18.262151689186215,35.64546803221014
3.8666175677273014,1.9662725018140637,1791,-25,18.262151689186215,35.64546803221014
3.8862752794134647,1.9662528437112756,1791,-25,18.262151689186215,35.64546803221014
3.9059327945686677,1.9662331858050222,1791,-25,18.262151689186215,35.64546803221014
3.92559011319488,1.966213528095302,1791,-25,18.262151689186215,35.64546803221014
3.9452472352940706,1.9661938705821125,1791,-25,18.262151689186215,35.64546803221014
3.964904160868207,1.966174213265452,1791,-25,18.262151689186215,35.64546803221014
3.9845608899192566,1.9661545561453186,1791,-25,18.262151689186215,35.64546803221014
4.004217422449188,1.9661348992217103,1791,-25,18.262151689186215,35.64546803221014
4.0238737584599695,1.9661152424946249,1791,-25,18.262151689186215,35.64546803221014
4.043529897953567,1.9660955859640605,1791,-25,18.262151689186215,35.64546803221014
4.063185840931949,1.9660759296300154,1791,-25,18.262151689186215,35.64546803221014
4.0828415873970805,1.9660562734924876,1791,-25,18.262151689186215,35.64546803221014
4.1024971373509285,1.9660366175514747,1791,-25,18.262151689186215,35.64546803221014
4.122152490795461,1.9660169618069754,1791,-25,18.262151689186215,35.64546803221014
4.1418076477326435,1.965997306258987,1791,-25,18.262151689186215,35.64546803221014
4.161462608164443,1.9659776509075082,1791,-25,18.262151689186215,35.64546803221014
4.181117372092823,1.9659579957525364,1791,-25,18.262151689186215,35.64546803221014
4.200771939519753,1.9659383407940703,1791,-25,18.262151689186215,35.64546803221014
4.220426310447195,1.9659186860321074,1791,-25,18.262151689186215,35.64546803221014
4.240080484877119,1.965899031466646,1791,-25,18.262151689186215,35.64546803221014
4.259734462811488,1.965879377097684,1791,-25,18.262151689186215,35.64546803221014
4.2793882442522655,1.9658597229252195,1791,-25,18.262151689186215,35.64546803221014
4.29904182920142,1.9658400689492506,1791,-25,18.262151689186215,35.64546803221014
4.318695217660916,1.9658204151697751,1791,-25,18.262151689186215,35.64546803221014
4.33834840963272,1.9658007615867914,1791,-25,18.262151689186215,35.64546803221014
4.358001405118793,1.9657811082002974,1791,-25,18.262151689186215,35.64546803221014
4.377654204121105,1.9657614550102909,1791,-25,18.262151689186215,35.64546803221014
4.397306806641618,1.96574180201677,1791,-25,18.262151689186215,35.64546803221014
4.416959212682297,1.9657221492197332,1791,-25,18.262151689186215,35.64546803221014
4.436611422245108,1.9657024966191778,1791,-25,18.262151689186215,35.64546803221014
4.4562634353320165,1.9656828442151024,1791,-25,18.262151689186215,35.64546803221014
4.4759152519449845,1.965663192007505,1791,-25,18.262151689186215,35.64546803221014
4.495566872085979,1.9656435399963832,1791,-25,18.262151689186215,35.64546803221014
4.515218295756962,1.9656238881817356,1791,-25,18.262151689186215,35.64546803221014
4.534869522959901,1.9656042365635598,1791,-25,18.262151689186215,35.64546803221014
4.55452055369676,1.9655845851418539,1791,-25,18.262151689186215,35.64546803221014
4.5741713879695025,1.9655649339166161,1791,-25,18.262151689186215,35.64546803221014
4.593822025780094,1.9655452828878444,1791,-25,18.262151689186215,35.64546803221014
4.613472467130498,1.9655256320555368,1791,-25,18.262151689186215,35.64546803221014
4.633122712022678,1.9655059814196914,1791,-25,18.262151689186215,35.64546803221014
