Vout,Iout,Irradiance,Temperature,MaxVoltage,MaxPower
0.008956263882078057,1.79127,1531,10,20.83987149807182,36.896270432920275
0.02686862603643822,1.79127,1531,10,20.83987149807182,36.896270432920275
0.044780624036968635,1.791260864609118,1531,10,20.83987149807182,36.896270432920275
0.06269219282770817,1.7912429522469635,1531,10,20.83987149807182,36.896270432920275
0.08060331114724015,1.7912250402498764,1531,10,20.83987149807182,36.896270432920275
0.09851399988103401,1.791207128682877,1531,10,20.83987149807182,36.896270432920275
0.11642427830833141,1.7911892175663486,1531,10,20.83987149807182,36.896270432920275
0.13433416422533492,1.791171306879406,1531,10,20.83987149807182,36.896270432920275
0.15224367405911723,1.7911533966027697,1531,10,20.83987149807182,36.896270432920275
0.1701528229729638,1.791135486718644,1531,10,20.83987149807182,36.896270432920275
0.18806162496361087,1.7911175772106012,1531,10,20.83987149807182,36.896270432920275
0.20597009295100152,1.7910996680634783,1531,10,20.83987149807182,36.896270432920275
0.22387823886113567,1.7910817592632786,1531,10,20.83987149807182,36.896270432920275
0.24178607370254607,1.7910638507970822,1531,10,20.83987149807182,36.896270432920275
0.25969360763688903,1.7910459426529628,1531,10,20.83987149807182,36.896270432920275
0.27760085004410495,1.7910280348199124,1531,10,20.83987149807182,36.896270432920275
0.2955078095825645,1.7910101272877688,1531,10,20.83987149807182,36.896270432920275
0.3134144942445875,1.7909922200471524,1531,10,20.83987149807182,36.896270432920275
0.3313209114076897,1.7909743130894047,1531,10,20.83987149807182,36.896270432920275
0.349227067881887,1.7909564064065333,1531,10,20.83987149807182,36.896270432920275
0.3671329699533594,1.7909384999911608,1531,10,20.83987149807182,36.896270432920275
0.38503862342475664,1.7909205938364774,1531,10,20.83987149807182,36.896270432920275
0.4029440336524004,1.7909026879361967,1531,10,20.83987149807182,36.896270432920275
0.42084920558062666,1.7908847822845158,1531,10,20.83987149807182,36.896270432920275
0.438754143773484,1.7908668768760787,1531,10,20.83987149807182,36.896270432920275
0.4566588524439937,1.790848971705941,1531,10,20.83987149807182,36.896270432920275
0.4745633354811582,1.7908310667695388,1531,10,20.83987149807182,36.896270432920275
0.4924675964748916,1.7908131620626588,1531,10,20.83987149807182,36.896270432920275
0.510371638739032,1.7907952575814121,1531,10,20.83987149807182,36.896270432920275
0.5282754653325835,1.7907773533222089,1531,10,20.83987149807182,36.896270432920275
0.5461790790793231,1.7907594492817351,1531,10,20.83987149807182,36.896270432920275
0.5640824825858995,1.790741545456932,1531,10,20.83987149807182,36.896270432920275
0.58198567825854,1.7907236418449757,1531,10,20.83987149807182,36.896270432920275
0.5998886683184699,1.7907057384432594,1531,10,20.83987149807182,36.896270432920275
0.6177914548161481,1.7906878352493771,1531,10,20.83987149807182,36.896270432920275
0.6356940396444054,1.7906699322611077,1531,10,20.83987149807182,36.896270432920275
0.653596424550573,1.7906520294764003,1531,10,20.83987149807182,36.896270432920275
0.6714986111476777,1.7906341268933623,1531,10,20.83987149807182,36.896270432920275
0.6894006009247744,1.7906162245102464,1531,10,20.83987149807182,36.896270432920275
0.707302395256486,1.7905983223254396,1531,10,20.83987149807182,36.896270432920275
0.725203995411807,1.7905804203374527,1531,10,20.83987149807182,36.896270432920275
0.7431054025622316,1.7905625185449112,1531,10,20.83987149807182,36.896270432920275
0.7610066177892547,1.790544616946546,1531,10,20.83987149807182,36.896270432920275
0.778907642091297,1.790526715541186,1531,10,20.83987149807182,36.896270432920275
0.7968084763900971,1.790508814327749,1531,10,20.83987149807182,36.896270432920275
0.8147091215366108,1.7904909133052371,1531,10,20.83987149807182,36.896270432920275
0.832609578316458,1.7904730124727284,1531,10,20.83987149807182,36.896270432920275
0.8505098474549491,1.790455111829372,1531,10,20.83987149807182,36.896270432920275
0.8684099296217258,1.7904372113743823,1531,10,20.83987149807182,36.896270432920275
0.8863098254350442,1.790419311107034,1531,10,20.83987149807182,36.896270432920275
0.9042095354657286,1.790401411026657,1531,10,20.83987149807182,36.896270432920275
0.9221090602408204,1.7903835111326338,1531,10,20.83987149807182,36.896270432920275
0.9400084002469474,1.790365611424393,1531,10,20.83987149807182,36.896270432920275
0.9579075559334337,1.790347711901408,1531,10,20.83987149807182,36.896270432920275
0.9758065277151686,1.790329812563192,1531,10,20.83987149807182,36.896270432920275
0.9937053159752569,1.7903119134092953,1531,10,20.83987149807182,36.896270432920275
1.0116039210674643,1.7902940144393036,1531,10,20.83987149807182,36.896270432920275
1.0295023433184758,1.7902761156528333,1531,10,20.83987149807182,36.896270432920275
1.0474005830299766,1.790258217049531,1531,10,20.83987149807182,36.896270432920275
1.0652986404805795,1.7902403186290698,1531,10,20.83987149807182,36.896270432920275
1.0831965159275967,1.7902224203911483,1531,10,20.83987149807182,36.896270432920275
1.1010942096086798,1.7902045223354874,1531,10,20.83987149807182,36.896270432920275
1.1189917217433336,1.7901866244618303,1531,10,20.83987149807182,36.896270432920275
1.1368890525343107,1.790168726769939,1531,10,20.83987149807182,36.896270432920275
1.1547862021689022,1.7901508292595942,1531,10,20.83987149807182,36.896270432920275
1.172683170820125,1.790132931930593,1531,10,20.83987149807182,36.896270432920275
1.190579958647823,1.7901150347827481,1531,10,20.83987149807182,36.896270432920275
1.208476565799678,1.7900971378158865,1531,10,20.83987149807182,36.896270432920275
1.2263729924121467,1.7900792410298487,1531,10,20.83987149807182,36.896270432920275
1.2442692386113243,1.7900613444244864,1531,10,20.83987149807182,36.896270432920275
1.262165304513742,1.7900434479996636,1531,10,20.83987149807182,36.896270432920275
1.280061190227102,1.7900255517552541,1531,10,20.83987149807182,36.896270432920275
1.297956895850958,1.7900076556911413,1531,10,20.83987149807182,36.896270432920275
1.3158524214773402,1.7899897598072176,1531,10,20.83987149807182,36.896270432920275
1.3337477671913371,1.7899718641033835,1531,10,20.83987149807182,36.896270432920275
1.351642933071627,1.7899539685795467,1531,10,20.83987149807182,36.896270432920275
1.3695379191909722,1.7899360732356222,1531,10,20.83987149807182,36.896270432920275
1.3874327256166743,1.7899181780715314,1531,10,20.83987149807182,36.896270432920275
1.4053273524109946,1.7899002830872017,1531,10,20.83987149807182,36.896270432920275
1.4232217996315406,1.7898823882825654,1531,10,20.83987149807182,36.896270432920275
1.4411160673316266,1.7898644936575605,1531,10,20.83987149807182,36.896270432920275
1.4590101555606003,1.7898465992121295,1531,10,20.83987149807182,36.896270432920275
1.4769040643641518,1.789828704946219,1531,10,20.83987149807182,36.896270432920275
1.4947977937845927,1.7898108108597794,1531,10,20.83987149807182,36.896270432920275
1.512691343861116,1.7897929169527653,1531,10,20.83987149807182,36.896270432920275
1.5305847146300382,1.7897750232251342,1531,10,20.83987149807182,36.896270432920275
1.5484779061250176,1.789757129676847,1531,10,20.83987149807182,36.896270432920275
1.5663709183772616,1.7897392363078675,1531,10,20.83987149807182,36.896270432920275
1.5842637514157136,1.789721343118162,1531,10,20.83987149807182,36.896270432920275
1.6021564052672277,1.789703450107699,1531,10,20.83987149807182,36.896270432920275
1.6200488799567294,1.7896855572764498,1531,10,20.83987149807182,36.896270432920275
1.6379411755073634,1.7896676646243876,1531,10,20.83987149807182,36.896270432920275
1.6558332919406324,1.7896497721514875,1531,10,20.83987149807182,36.896270432920275
1.6737252292765208,1.789631879857726,1531,10,20.83987149807182,36.896270432920275
1.6916169875336142,1.7896139877430821,1531,10,20.83987149807182,36.896270432920275
1.709508566729205,1.7895960958075354,1531,10,20.83987149807182,36.896270432920275
1.7273999668793927,1.7895782040510675,1531,10,20.83987149807182,36.896270432920275
1.7452911879991764,1.7895603124736612,1531,10,20.83987149807182,36.896270432920275
1.7631822301025382,1.7895424210753001,1531,10,20.83987149807182,36.896270432920275
1.7810730932025214,1.7895245298559694,1531,10,20.83987149807182,36.896270432920275
1.7989637773113043,1.7895066388156553,1531,10,20.83987149807182,36.896270432920275
1.8168542824402651,1.7894887479543444,1531,10,20.83987149807182,36.896270432920275
1.8347446086000445,1.7894708572720248,1531,10,20.83987149807182,36.896270432920275
1.8526347558006022,1.789452966768685,1531,10,20.83987149807182,36.896270432920275
1.870524724051269,1.789435076444314,1531,10,20.83987149807182,36.896270432920275
1.888414513360794,1.7894171862989026,1531,10,20.83987149807182,36.896270432920275
1.906304123737393,1.789399296332441,1531,10,20.83987149807182,36.896270432920275
1.9241935551887863,1.7893814065449205,1531,10,20.83987149807182,36.896270432920275
1.9420828077222365,1.7893635169363329,1531,10,20.83987149807182,36.896270432920275
1.9599718813445872,1.7893456275066704,1531,10,20.83987149807182,36.896270432920275
1.9778607760622915,1.789327738255926,1531,10,20.83987149807182,36.896270432920275
1.9957494918814438,1.7893098491840926,1531,10,20.83987149807182,36.896270432920275
2.013638028807807,1.7892919602911639,1531,10,20.83987149807182,36.896270432920275
2.031526386846839,1.7892740715771336,1531,10,20.83987149807182,36.896270432920275
2.0494145660037137,1.7892561830419962,1531,10,20.83987149807182,36.896270432920275
2.067302566283347,1.789238294685746,1531,10,20.83987149807182,36.896270432920275
2.0851903876904117,1.7892204065083779,1531,10,20.83987149807182,36.896270432920275
2.1030780302293595,1.7892025185098872,1531,10,20.83987149807182,36.896270432920275
2.120965493904437,1.7891846306902688,1531,10,20.83987149807182,36.896270432920275
2.1388527787197016,1.7891667430495186,1531,10,20.83987149807182,36.896270432920275
2.156739884679037,1.7891488555876325,1531,10,20.83987149807182,36.896270432920275
2.1746268117861653,1.789130968304606,1531,10,20.83987149807182,36.896270432920275
2.1925135600446577,1.7891130812004352,1531,10,20.83987149807182,36.896270432920275
2.2104001294579505,1.789095194275117,1531,10,20.83987149807182,36.896270432920275
2.2282865200293536,1.7890773075286472,1531,10,20.83987149807182,36.896270432920275
2.2461727317620563,1.7890594209610224,1531,10,20.83987149807182,36.896270432920275
2.264058764659145,1.78904153457224,1531,10,20.83987149807182,36.896270432920275
2.281944618723601,1.7890236483622957,1531,10,20.83987149807182,36.896270432920275
2.299830293958318,1.7890057623311872,1531,10,20.83987149807182,36.896270432920275
2.317715790366102,1.7889878764789116,1531,10,20.83987149807182,36.896270432920275
2.335601107949682,1.7889699908054653,1531,10,20.83987149807182,36.896270432920275
2.3534862467117144,1.7889521053108461,1531,10,20.83987149807182,36.896270432920275
2.3713712066547874,1.788934219995051,1531,10,20.83987149807182,36.896270432920275
2.389255987781429,1.7889163348580777,1531,10,20.83987149807182,36.896270432920275
2.4071405900941096,1.7888984498999232,1531,10,20.83987149807182,36.896270432920275
2.4250250135952482,1.788880565120585,1531,10,20.83987149807182,36.896270432920275
2.442909258287213,1.788862680520061,1531,10,20.83987149807182,36.896270432920275
2.46079332417233,1.7888447960983482,1531,10,20.83987149807182,36.896270432920275
2.478677211252882,1.7888269118554447,1531,10,20.83987149807182,36.896270432920275
2.496560919531114,1.788809027791348,1531,10,20.83987149807182,36.896270432920275
2.5144444490092357,1.7887911439060558,1531,10,20.83987149807182,36.896270432920275
2.532327799689426,1.788773260199566,1531,10,20.83987149807182,36.896270432920275
2.55021097157383,1.7887553766718762,1531,10,20.83987149807182,36.896270432920275
2.56809396466457,1.7887374933229845,1531,10,20.83987149807182,36.896270432920275
2.5859767789637385,1.7887196101528884,1531,10,20.83987149807182,36.896270432920275
2.603859414473407,1.788701727161586,1531,10,20.83987149807182,36.896270432920275
2.6217418711956237,1.7886838443490751,1531,10,20.83987149807182,36.896270432920275
2.639624149132417,1.7886659617153537,1531,10,20.83987149807182,36.896270432920275
2.6575062482857974,1.7886480792604198,1531,10,20.83987149807182,36.896270432920275
2.675388168657758,1.7886301969842713,1531,10,20.83987149807182,36.896270432920275
2.6932699102502746,1.7886123148869062,1531,10,20.83987149807182,36.896270432920275
2.711151473065311,1.7885944329683225,1531,10,20.83987149807182,36.896270432920275
2.7290328571048152,1.788576551228518,1531,10,20.83987149807182,36.896270432920275
2.746914062370724,1.7885586696674913,1531,10,20.83987149807182,36.896270432920275
2.7647950888649633,1.78854078828524,1531,10,20.83987149807182,36.896270432920275
2.7826759365894462,1.7885229070817623,1531,10,20.83987149807182,36.896270432920275
2.800556605546079,1.788505026057056,1531,10,20.83987149807182,36.896270432920275
2.818437095736756,1.7884871452111197,1531,10,20.83987149807182,36.896270432920275
2.8363174071633646,1.7884692645439513,1531,10,20.83987149807182,36.896270432920275
2.8541975398277835,1.7884513840555487,1531,10,20.83987149807182,36.896270432920275
2.872077493731886,1.78843350374591,1531,10,20.83987149807182,36.896270432920275
2.8899572688775375,1.7884156236150337,1531,10,20.83987149807182,36.896270432920275
2.9078368652665985,1.7883977436629177,1531,10,20.83987149807182,36.896270432920275
2.925716282900922,1.78837986388956,1531,10,20.83987149807182,36.896270432920275
2.943595521782358,1.788361984294959,1531,10,20.83987149807182,36.896270432920275
2.96147458191275,1.7883441048791127,1531,10,20.83987149807182,36.896270432920275
2.9793534632939376,1.7883262256420192,1531,10,20.83987149807182,36.896270432920275
2.9972321659277577,1.7883083465836767,1531,10,20.83987149807182,36.896270432920275
3.015110689816041,1.7882904677040834,1531,10,20.83987149807182,36.896270432920275
3.032989034960617,1.7882725890032376,1531,10,20.83987149807182,36.896270432920275
3.0508672013633102,1.788254710481137,1531,10,20.83987149807182,36.896270432920275
3.068745189025943,1.7882368321377804,1531,10,20.83987149807182,36.896270432920275
3.0866229979503346,1.7882189539731657,1531,10,20.83987149807182,36.896270432920275
3.104500628138303,1.7882010759872908,1531,10,20.83987149807182,36.896270432920275
3.1223780795916616,1.7881831981801541,1531,10,20.83987149807182,36.896270432920275
3.1402553523122245,1.788165320551754,1531,10,20.83987149807182,36.896270432920275
3.1581324463018015,1.7881474431020885,1531,10,20.83987149807182,36.896270432920275
3.1760093615622025,1.7881295658311556,1531,10,20.83987149807182,36.896270432920275
3.193886098095232,1.7881116887389539,1531,10,20.83987149807182,36.896270432920275
3.2117626559026973,1.7880938118254812,1531,10,20.83987149807182,36.896270432920275
3.229639034986402,1.7880759350907358,1531,10,20.83987149807182,36.896270432920275
3.2475152353481493,1.788058058534716,1531,10,20.83987149807182,36.896270432920275
3.2653912569897394,1.78804018215742,1531,10,20.83987149807182,36.896270432920275
3.2832670999129725,1.7880223059588458,1531,10,20.83987149807182,36.896270432920275
3.3011427641196494,1.788004429938992,1531,10,20.83987149807182,36.896270432920275
3.3190182496115668,1.7879865540978563,1531,10,20.83987149807182,36.896270432920275
3.3368935563905233,1.7879686784354372,1531,10,20.83987149807182,36.896270432920275
3.354768684458315,1.787950802951733,1531,10,20.83987149807182,36.896270432920275
3.372643633816737,1.7879329276467415,1531,10,20.83987149807182,36.896270432920275
3.3905184044675853,1.7879150525204612,1531,10,20.83987149807182,36.896270432920275
3.4083929964126534,1.7878971775728905,1531,10,20.83987149807182,36.896270432920275
3.426267409653736,1.7878793028040272,1531,10,20.83987149807182,36.896270432920275
3.444141644192625,1.7878614282138694,1531,10,20.83987149807182,36.896270432920275
3.4620157000311145,1.787843553802416,1531,10,20.83987149807182,36.896270432920275
3.479889577170996,1.7878256795696645,1531,10,20.83987149807182,36.896270432920275
3.4977632756140613,1.7878078055156135,1531,10,20.83987149807182,36.896270432920275
3.5156367953621017,1.787789931640261,1531,10,20.83987149807182,36.896270432920275
3.533510136416908,1.7877720579436054,1531,10,20.83987149807182,36.896270432920275
3.5513832987802716,1.7877541844256446,1531,10,20.83987149807182,36.896270432920275
3.5692562824539813,1.7877363110863773,1531,10,20.83987149807182,36.896270432920275
3.5871290874398274,1.787718437925801,1531,10,20.83987149807182,36.896270432920275
3.6050017137396,1.7877005649439148,1531,10,20.83987149807182,36.896270432920275
3.6228741613550888,1.7876826921407163,1531,10,20.83987149807182,36.896270432920275
3.6407464302880825,1.787664819516204,1531,10,20.83987149807182,36.896270432920275
3.6586185205403696,1.7876469470703755,1531,10,20.83987149807182,36.896270432920275
3.676490432113741,1.78762907480323,1531,10,20.83987149807182,36.896270432920275
3.6943621650099816,1.7876112027147648,1531,10,20.83987149807182,36.896270432920275
3.712233719230883,1.7875933308049787,1531,10,20.83987149807182,36.896270432920275
3.730105094778231,1.7875754590738697,1531,10,20.83987149807182,36.896270432920275
3.7479762916538153,1.787557587521436,1531,10,20.83987149807182,36.896270432920275
3.765847309859423,1.7875397161476758,1531,10,20.83987149807182,36.896270432920275
3.783718149396841,1.7875218449525874,1531,10,20.83987149807182,36.896270432920275
3.8015888102678588,1.7875039739361689,1531,10,20.83987149807182,36.896270432920275
3.819459292474262,1.7874861030984186,1531,10,20.83987149807182,36.896270432920275
3.837329596017839,1.7874682324393347,1531,10,20.83987149807182,36.896270432920275
3.855199720900377,1.7874503619589153,1531,10,20.83987149807182,36.896270432920275
3.8730696671236626,1.787432491657159,1531,10,20.83987149807182,36.896270432920275
3.890939434689484,1.7874146215340634,1531,10,20.83987149807182,36.896270432920275
3.9088090235996256,1.7873967515896272,1531,10,20.83987149807182,36.896270432920275
3.926678433855878,1.7873788818238483,1531,10,20.83987149807182,36.896270432920275
3.9445476654600244,1.7873610122367252,1531,10,20.83987149807182,36.896270432920275
3.9624167184138552,1.7873431428282558,1531,10,20.83987149807182,36.896270432920275
3.9802855927191545,1.7873252735984386,1531,10,20.83987149807182,36.896270432920275
3.9981542883777097,1.7873074045472719,1531,10,20.83987149807182,36.896270432920275
4.016022805391306,1.7872895356747533,1531,10,20.83987149807182,36.896270432920275
4.033891143761733,1.7872716669808817,1531,10,20.83987149807182,36.896270432920275
4.0517593034907735,1.7872537984656551,1531,10,20.83987149807182,36.896270432920275
4.069627284580218,1.7872359301290714,1531,10,20.83987149807182,36.896270432920275
4.087495087031847,1.7872180619711293,1531,10,20.83987149807182,36.896270432920275
4.105362710847452,1.7872001939918267,1531,10,20.83987149807182,36.896270432920275
4.123230156028819,1.787182326191162,1531,10,20.83987149807182,36.896270432920275
4.14109742257773,1.787164458569133,1531,10,20.83987149807182,36.896270432920275
4.158964510495976,1.7871465911257385,1531,10,20.83987149807182,36.896270432920275
4.17683141978534,1.7871287238609763,1531,10,20.83987149807182,36.896270432920275
4.19469815044761,1.7871108567748448,1531,10,20.83987149807182,36.896270432920275
4.212564702484571,1.7870929898673422,1531,10,20.83987149807182,36.896270432920275
4.230431075898009,1.7870751231384667,1531,10,20.83987149807182,36.896270432920275
4.2482972706897115,1.7870572565882163,1531,10,20.83987149807182,36.896270432920275
4.266163286861462,1.7870393902165895,1531,10,20.83987149807182,36.896270432920275
