Vout,Iout,Irradiance,Temperature,MaxVoltage,MaxPower
0.011229462024403615,2.2459140000000004,1791,52,22.93115955310077,50.91212837010671
0.03368817842982975,2.2459140000000004,1791,52,22.93115955310077,50.91212837010671
0.05614643825518452,2.245902545946576,1791,52,22.93115955310077,50.91212837010671
0.0786041599325894,2.2458800872301707,1791,52,22.93115955310077,50.91212837010671
0.10106131680424657,2.2458576289714904,1791,52,22.93115955310077,50.91212837010671
0.12351793505658706,2.2458351712520592,1791,52,22.93115955310077,50.91212837010671
0.14597403886213578,2.245812714097433,1791,52,22.93115955310077,50.91212837010671
0.16842965053396697,2.245790257481427,1791,52,22.93115955310077,50.91212837010671
0.1908847906685248,2.2457678013798668,1791,52,22.93115955310077,50.91212837010671
0.21333947827770308,2.2457453457704406,1791,52,22.93115955310077,50.91212837010671
0.23579373091076353,2.245722890632552,1791,52,22.93115955310077,50.91212837010671
0.2582475647668725,2.245700435947188,1791,52,22.93115955310077,50.91212837010671
0.28070099479898,2.2456779816968004,1791,52,22.93115955310077,50.91212837010671
0.3031540348097049,2.24565552786519,1791,52,22.93115955310077,50.91212837010671
0.3256066975398439,2.245633074437403,1791,52,22.93115955310077,50.91212837010671
0.34805899475006896,2.245610621399638,1791,52,22.93115955310077,50.91212837010671
0.3705109372963405,2.245588168739153,1791,52,22.93115955310077,50.91212837010671
0.39296253519951696,2.245565716444188,1791,52,22.93115955310077,50.91212837010671
0.41541379770960846,2.2455432645038873,1791,52,22.93115955310077,50.91212837010671
0.4378647333650877,2.245520812908229,1791,52,22.93115955310077,50.91212837010671
0.46031535004763646,2.2454983616479645,1791,52,22.93115955310077,50.91212837010671
0.4827656550326803,2.245475910714554,1791,52,22.93115955310077,50.91212837010671
0.5052156550360345,2.2454534601001166,1791,52,22.93115955310077,50.91212837010671
0.5276653562569616,2.2454310097973766,1791,52,22.93115955310077,50.91212837010671
0.5501147644179162,2.2454085597996185,1791,52,22.93115955310077,50.91212837010671
0.5725638848012304,2.2453861101006423,1791,52,22.93115955310077,50.91212837010671
0.5950127222829782,2.2453636606947267,1791,52,22.93115955310077,50.91212837010671
0.6174612813642331,2.245341211576588,1791,52,22.93115955310077,50.91212837010671
0.6399095661999222,2.2453187627413516,1791,52,22.93115955310077,50.91212837010671
0.662357580625458,2.245296314184515,1791,52,22.93115955310077,50.91212837010671
0.6848053281813233,2.245273865901924,1791,52,22.93115955310077,50.91212837010671
0.7072528121357632,2.2452514178897434,1791,52,22.93115955310077,50.91212837010671
0.7297000355057313,2.2452289701444323,1791,52,22.93115955310077,50.91212837010671
0.7521470010762246,2.245206522662723,1791,52,22.93115955310077,50.91212837010671
0.7745937114181309,2.2451840754415975,1791,52,22.93115955310077,50.91212837010671
0.7970401689047022,2.245161628478272,1791,52,22.93115955310077,50.91212837010671
0.8194863757267619,2.245139181770175,1791,52,22.93115955310077,50.91212837010671
0.84193233390674,2.245116735314933,1791,52,22.93115955310077,50.91212837010671
0.8643780453116305,2.2450942891103556,1791,52,22.93115955310077,50.91212837010671
0.8868235116649504,2.2450718431544203,1791,52,22.93115955310077,50.91212837010671
0.9092687345577795,2.2450493974452597,1791,52,22.93115955310077,50.91212837010671
0.9317137154589492,2.245026951981151,1791,52,22.93115955310077,50.91212837010671
0.9541584557244506,2.2450045067605027,1791,52,22.93115955310077,50.91212837010671
0.9766029566061141,2.244982061781846,1791,52,22.93115955310077,50.91212837010671
0.9990472192596255,2.244959617043825,1791,52,22.93115955310077,50.91212837010671
1.0214912447519229,2.244937172545188,1791,52,22.93115955310077,50.91212837010671
1.0439350340680245,2.2449147282847792,1791,52,22.93115955310077,50.91212837010671
1.0663785881173329,2.2448922842615313,1791,52,22.93115955310077,50.91212837010671
1.0888219077394528,2.2448698404744594,1791,52,22.93115955310077,50.91212837010671
1.1112649937095593,2.244847396922655,1791,52,22.93115955310077,50.91212837010671
1.133707846743359,2.244824953605277,1791,52,22.93115955310077,50.91212837010671
1.1561504675016623,2.244802510521551,1791,52,22.93115955310077,50.91212837010671
1.1785928565946082,2.244780067670762,1791,52,22.93115955310077,50.91212837010671
1.2010350145855635,2.2447576250522476,1791,52,22.93115955310077,50.91212837010671
1.223476941994722,2.244735182665399,1791,52,22.93115955310077,50.91212837010671
1.2459186393024244,2.2447127405096525,1791,52,22.93115955310077,50.91212837010671
1.2683601069522263,2.244690298584487,1791,52,22.93115955310077,50.91212837010671
1.290801345353728,2.244667856889424,1791,52,22.93115955310077,50.91212837010671
1.313242354885187,2.2446454154240185,1791,52,22.93115955310077,50.91212837010671
1.3356831358959296,2.244622974187861,1791,52,22.93115955310077,50.91212837010671
1.3581236887085772,2.2446005331805736,1791,52,22.93115955310077,50.91212837010671
1.3805640136211006,2.2445780924018073,1791,52,22.93115955310077,50.91212837010671
1.4030041109087172,2.2445556518512384,1791,52,22.93115955310077,50.91212837010671
1.42544398082564,2.24453321152857,1791,52,22.93115955310077,50.91212837010671
1.4478836236066965,2.2445107714335264,1791,52,22.93115955310077,50.91212837010671
1.4703230394688187,2.2444883315658535,1791,52,22.93115955310077,50.91212837010671
1.492762228612419,2.2444658919253166,1791,52,22.93115955310077,50.91212837010671
1.5152011912226624,2.2444434525116983,1791,52,22.93115955310077,50.91212837010671
1.5376399274706407,2.2444210133247986,1791,52,22.93115955310077,50.91212837010671
1.5600784375144532,2.2443985743644324,1791,52,22.93115955310077,50.91212837010671
1.5825167215002076,2.2443761356304286,1791,52,22.93115955310077,50.91212837010671
1.6049547795629426,2.2443536971226283,1791,52,22.93115955310077,50.91212837010671
1.6273926118274795,2.244331258840887,1791,52,22.93115955310077,50.91212837010671
1.6498302184092073,2.2443088207850677,1791,52,22.93115955310077,50.91212837010671
1.67226759941481,2.244286382955047,1791,52,22.93115955310077,50.91212837010671
1.6947047549429355,2.244263945350709,1791,52,22.93115955310077,50.91212837010671
1.7171416850848142,2.2442415079719473,1791,52,22.93115955310077,50.91212837010671
1.7395783899248296,2.244219070818663,1791,52,22.93115955310077,50.91212837010671
1.7620148695410456,2.244196633890765,1791,52,22.93115955310077,50.91212837010671
1.784451124005691,2.2441741971881686,1791,52,22.93115955310077,50.91212837010671
1.8068871533856117,2.244151760710796,1791,52,22.93115955310077,50.91212837010671
1.829322957742681,2.244129324458575,1791,52,22.93115955310077,50.91212837010671
1.8517585371341847,2.2441068884314386,1791,52,22.93115955310077,50.91212837010671
1.8741938916131737,2.244084452629325,1791,52,22.93115955310077,50.91212837010671
1.8966290212287904,2.2440620170521774,1791,52,22.93115955310077,50.91212837010671
1.919063926026567,2.244039581699942,1791,52,22.93115955310077,50.91212837010671
1.941498606048705,2.24401714657257,1791,52,22.93115955310077,50.91212837010671
1.9639330613343327,2.2439947116700156,1791,52,22.93115955310077,50.91212837010671
1.98636729191974,2.243972276992237,1791,52,22.93115955310077,50.91212837010671
2.008801297838596,2.243949842539195,1791,52,22.93115955310077,50.91212837010671
2.0312350791221534,2.243927408310853,1791,52,22.93115955310077,50.91212837010671
2.0536686357994305,2.2439049743071777,1791,52,22.93115955310077,50.91212837010671
2.0761019678973884,2.2438825405281375,1791,52,22.93115955310077,50.91212837010671
2.098535075441083,2.2438601069737034,1791,52,22.93115955310077,50.91212837010671
2.120967958453818,2.243837673643849,1791,52,22.93115955310077,50.91212837010671
2.1434006169572744,2.2438152405385487,1791,52,22.93115955310077,50.91212837010671
2.1658330509716386,2.2437928076577793,1791,52,22.93115955310077,50.91212837010671
2.1882652605157142,2.243770375001519,1791,52,22.93115955310077,50.91212837010671
2.2106972456070353,2.243747942569748,1791,52,22.93115955310077,50.91212837010671
2.2331290062619535,2.2437255103624474,1791,52,22.93115955310077,50.91212837010671
2.2555605424957386,2.2437030783795993,1791,52,22.93115955310077,50.91212837010671
2.277991854322658,2.2436806466211876,1791,52,22.93115955310077,50.91212837010671
2.3004229417560516,2.243658215087197,1791,52,22.93115955310077,50.91212837010671
2.3228538048084073,2.2436357837776133,1791,52,22.93115955310077,50.91212837010671
2.3452844434914244,2.2436133526924227,1791,52,22.93115955310077,50.91212837010671
2.3677148578160727,2.2435909218316135,1791,52,22.93115955310077,50.91212837010671
2.3901450477926534,2.2435684911951737,1791,52,22.93115955310077,50.91212837010671
2.4125750134308452,2.243546060783092,1791,52,22.93115955310077,50.91212837010671
2.435004754739756,2.2435236305953588,1791,52,22.93115955310077,50.91212837010671
2.4574342717279642,2.2435012006319637,1791,52,22.93115955310077,50.91212837010671
2.4798635644035616,2.2434787708928976,1791,52,22.93115955310077,50.91212837010671
2.5022926327741897,2.2434563413781525,1791,52,22.93115955310077,50.91212837010671
2.5247214768470743,2.2434339120877196,1791,52,22.93115955310077,50.91212837010671
2.547150096629058,2.243411483021592,1791,52,22.93115955310077,50.91212837010671
2.5695784921266287,2.243389054179762,1791,52,22.93115955310077,50.91212837010671
2.592006663345949,2.243366625562223,1791,52,22.93115955310077,50.91212837010671
2.614434610292878,2.2433441971689683,1791,52,22.93115955310077,50.91212837010671
2.636862332972998,2.243321768999992,1791,52,22.93115955310077,50.91212837010671
2.6592898313916327,2.243299341055288,1791,52,22.93115955310077,50.91212837010671
2.681717105553871,2.2432769133348507,1791,52,22.93115955310077,50.91212837010671
2.7041441554645793,2.2432544858386745,1791,52,22.93115955310077,50.91212837010671
2.7265709811284244,2.2432320585667553,1791,52,22.93115955310077,50.91212837010671
2.7489975825498876,2.243209631519087,1791,52,22.93115955310077,50.91212837010671
2.771423959733276,2.243187204695666,1791,52,22.93115955310077,50.91212837010671
2.7938501126827373,2.2431647780964874,1791,52,22.93115955310077,50.91212837010671
2.816276041402273,2.2431423517215467,1791,52,22.93115955310077,50.91212837010671
2.83870174589575,2.24311992557084,1791,52,22.93115955310077,50.91212837010671
2.8611272261669094,2.243097499644363,1791,52,22.93115955310077,50.91212837010671
2.883552482219377,2.243075073942112,1791,52,22.93115955310077,50.91212837010671
2.905977514056673,2.2430526484640834,1791,52,22.93115955310077,50.91212837010671
2.928402321682217,2.2430302232102735,1791,52,22.93115955310077,50.91212837010671
2.9508269050993396,2.243007798180679,1791,52,22.93115955310077,50.91212837010671
2.9732512643112883,2.242985373375296,1791,52,22.93115955310077,50.91212837010671
2.9956753993212315,2.2429629487941214,1791,52,22.93115955310077,50.91212837010671
3.018099310132267,2.242940524437152,1791,52,22.93115955310077,50.91212837010671
3.040522996747425,2.2429181003043843,1791,52,22.93115955310077,50.91212837010671
3.0629464591696784,2.2428956763958157,1791,52,22.93115955310077,50.91212837010671
3.085369697401941,2.2428732527114428,1791,52,22.93115955310077,50.91212837010671
3.1077927114470767,2.242850829251263,1791,52,22.93115955310077,50.91212837010671
3.1302155013078994,2.2428284060152732,1791,52,22.93115955310077,50.91212837010671
3.152638066987181,2.2428059830034703,1791,52,22.93115955310077,50.91212837010671
3.175060408487651,2.242783560215852,1791,52,22.93115955310077,50.91212837010671
3.197482525812003,2.242761137652415,1791,52,22.93115955310077,50.91212837010671
3.219904418962894,2.242738715313157,1791,52,22.93115955310077,50.91212837010671
3.2423260879429487,2.242716293198075,1791,52,22.93115955310077,50.91212837010671
3.264747532754764,2.242693871307166,1791,52,22.93115955310077,50.91212837010671
3.2871687534009095,2.242671449640428,1791,52,22.93115955310077,50.91212837010671
3.3095897498839264,2.2426490281978584,1791,52,22.93115955310077,50.91212837010671
3.332010522206338,2.2426266069794547,1791,52,22.93115955310077,50.91212837010671
3.3544310703706395,2.2426041859852135,1791,52,22.93115955310077,50.91212837010671
3.376851394379313,2.2425817652151334,1791,52,22.93115955310077,50.91212837010671
3.3992714942348177,2.2425593446692114,1791,52,22.93115955310077,50.91212837010671
3.4216913699395963,2.2425369243474447,1791,52,22.93115955310077,50.91212837010671
3.4441110214960786,2.242514504249831,1791,52,22.93115955310077,50.91212837010671
3.4665304489066773,2.2424920843763685,1791,52,22.93115955310077,50.91212837010671
3.4889496521737926,2.242469664727054,1791,52,22.93115955310077,50.91212837010671
3.511368631299812,2.2424472453018853,1791,52,22.93115955310077,50.91212837010671
3.5337873862871136,2.2424248261008604,1791,52,22.93115955310077,50.91212837010671
3.556205917138062,2.242402407123976,1791,52,22.93115955310077,50.91212837010671
3.5786242238550154,2.2423799883712308,1791,52,22.93115955310077,50.91212837010671
3.60104230644032,2.2423575698426217,1791,52,22.93115955310077,50.91212837010671
3.623460164896316,2.2423351515381467,1791,52,22.93115955310077,50.91212837010671
3.6458777992253335,2.242312733457803,1791,52,22.93115955310077,50.91212837010671
3.6682952094297008,2.242290315601589,1791,52,22.93115955310077,50.91212837010671
3.6907123955117322,2.242267897969502,1791,52,22.93115955310077,50.91212837010671
3.7131293574737425,2.242245480561539,1791,52,22.93115955310077,50.91212837010671
3.7355460953180373,2.2422230633776987,1791,52,22.93115955310077,50.91212837010671
3.7579626090469187,2.2422006464179787,1791,52,22.93115955310077,50.91212837010671
3.780378898662684,2.2421782296823762,1791,52,22.93115955310077,50.91212837010671
3.8027949641676244,2.2421558131708887,1791,52,22.93115955310077,50.91212837010671
3.82521080556403,2.242133396883515,1791,52,22.93115955310077,50.91212837010671
3.847626422854184,2.2421109808202515,1791,52,22.93115955310077,50.91212837010671
3.8700418160403687,2.242088564981097,1791,52,22.93115955310077,50.91212837010671
3.892456985124862,2.2420661493660483,1791,52,22.93115955310077,50.91212837010671
3.914871930109939,2.2420437339751036,1791,52,22.93115955310077,50.91212837010671
3.9372866509978732,2.2420213188082605,1791,52,22.93115955310077,50.91212837010671
3.959701147790934,2.2419989038655173,1791,52,22.93115955310077,50.91212837010671
3.9821154204913904,2.2419764891468708,1791,52,22.93115955310077,50.91212837010671
4.004529469101507,2.241954074652319,1791,52,22.93115955310077,50.91212837010671
4.026943293623547,2.24193166038186,1791,52,22.93115955310077,50.91212837010671
4.049356894059773,2.2419092463354913,1791,52,22.93115955310077,50.91212837010671
4.071770270412445,2.241886832513211,1791,52,22.93115955310077,50.91212837010671
4.094183422683823,2.241864418915016,1791,52,22.93115955310077,50.91212837010671
4.116596350876162,2.2418420055409047,1791,52,22.93115955310077,50.91212837010671
4.139009054991719,2.2418195923908746,1791,52,22.93115955310077,50.91212837010671
4.161421535032749,2.241797179464924,1791,52,22.93115955310077,50.91212837010671
4.183833791001504,2.2417747667630494,1791,52,22.93115955310077,50.91212837010671
4.206245822900239,2.2417523542852495,1791,52,22.93115955310077,50.91212837010671
4.2286576307312025,2.2417299420315224,1791,52,22.93115955310077,50.91212837010671
4.251069214496649,2.241707530001865,1791,52,22.93115955310077,50.91212837010671
4.273480574198824,2.241685118196275,1791,52,22.93115955310077,50.91212837010671
4.295891709839979,2.241662706614751,1791,52,22.93115955310077,50.91212837010671
4.318302621422362,2.2416402952572896,1791,52,22.93115955310077,50.91212837010671
4.340713308948221,2.24161788412389,1791,52,22.93115955310077,50.91212837010671
4.363123772419802,2.2415954732145487,1791,52,22.93115955310077,50.91212837010671
4.385534011839352,2.241573062529264,1791,52,22.93115955310077,50.91212837010671
4.407944027209118,2.2415506520680335,1791,52,22.93115955310077,50.91212837010671
4.430353818531345,2.2415282418308546,1791,52,22.93115955310077,50.91212837010671
4.452763385808277,2.241505831817726,1791,52,22.93115955310077,50.91212837010671
4.47517272904216,2.241483422028645,1791,52,22.93115955310077,50.91212837010671
4.497581848235236,2.241461012463609,1791,52,22.93115955310077,50.91212837010671
4.51999074338975,2.241438603122616,1791,52,22.93115955310077,50.91212837010671
4.542399414507948,2.241416194005664,1791,52,22.93115955310077,50.91212837010671
4.564807861592069,2.2413937851127503,1791,52,22.93115955310077,50.91212837010671
4.58721608464436,2.241371376443873,1791,52,22.93115955310077,50.91212837010671
4.609624083667062,2.2413489679990297,1791,52,22.93115955310077,50.91212837010671
4.632031858662416,2.2413265597782184,1791,52,22.93115955310077,50.91212837010671
4.6544394096326664,2.2413041517814367,1791,52,22.93115955310077,50.91212837010671
4.676846736580054,2.241281744008682,1791,52,22.93115955310077,50.91212837010671
4.699253839506821,2.2412593364599527,1791,52,22.93115955310077,50.91212837010671
4.721660718415209,2.241236929135246,1791,52,22.93115955310077,50.91212837010671
4.74406737330746,2.24121452203456,1791,52,22.93115955310077,50.91212837010671
4.766473804185815,2.2411921151578924,1791,52,22.93115955310077,50.91212837010671
4.788880011052514,2.241169708505241,1791,52,22.93115955310077,50.91212837010671
4.811285993909799,2.241147302076603,1791,52,22.93115955310077,50.91212837010671
4.833691752759912,2.241124895871977,1791,52,22.93115955310077,50.91212837010671
4.856097287605092,2.2411024898913605,1791,52,22.93115955310077,50.91212837010671
4.87850259844758,2.241080084134751,1791,52,22.93115955310077,50.91212837010671
4.900907685289615,2.241057678602146,1791,52,22.93115955310077,50.91212837010671
4.923312548133441,2.2410352732935443,1791,52,22.93115955310077,50.91212837010671
4.945717186981296,2.241012868208943,1791,52,22.93115955310077,50.91212837010671
4.968121601835421,2.2409904633483397,1791,52,22.93115955310077,50.91212837010671
4.9905257926980555,2.2409680587117324,1791,52,22.93115955310077,50.91212837010671
5.01292975957144,2.240945654299119,1791,52,22.93115955310077,50.91212837010671
5.0353335024578145,2.2409232501104963,1791,52,22.93115955310077,50.91212837010671
5.057737021359419,2.2409008461458635,1791,52,22.93115955310077,50.91212837010671
5.080140316278494,2.2408784424052177,1791,52,22.93115955310077,50.91212837010671
5.1025433872172785,2.2408560388885563,1791,52,22.93115955310077,50.91212837010671
5.124946234178012,2.2408336355958776,1791,52,22.93115955310077,50.91212837010671
5.1473488571629336,2.240811232527179,1791,52,22.93115955310077,50.91212837010671
5.169751256174284,2.240788829682459,1791,52,22.93115955310077,50.91212837010671
5.192153431214303,2.2407664270617142,1791,52,22.93115955310077,50.91212837010671
5.214555382285228,2.2407440246649433,1791,52,22.93115955310077,50.91212837010671
5.236957109389302,2.2407216224921434,1791,52,22.93115955310077,50.91212837010671
5.259358612528763,2.2406992205433127,1791,52,22.93115955310077,50.91212837010671
5.281759891705851,2.2406768188184487,1791,52,22.93115955310077,50.91212837010671
5.304160946922801,2.2406544173175496,1791,52,22.93115955310077,50.91212837010671
5.326561778181858,2.2406320160406126,1791,52,22.93115955310077,50.91212837010671
5.348962385485258,2.240609614987636,1791,52,22.93115955310077,50.91212837010671
5.371362768835241,2.240587214158617,1791,52,22.93115955310077,50.91212837010671
5.393762928234046,2.240564813553554,1791,52,22.93115955310077,50.91212837010671
5.416162863683911,2.240542413172444,1791,52,22.93115955310077,50.91212837010671
5.4385625751870785,2.240520013015285,1791,52,22.93115955310077,50.91212837010671
