Vout,Iout,Irradiance,Temperature,MaxVoltage,MaxPower
0.0005837743867847425,0.11675599999999998,101,3,20.295345498584815,1.9577412597768769
0.001751312365813295,0.11675599999999998,101,3,20.295345498584815,1.9577412597768769
0.0029188266090875797,0.1167554045500132,101,3,20.295345498584815,1.9577412597768769
0.004086312876222957,0.11675423701203418,101,3,20.295345498584815,1.9577412597768769
0.00525376978138816,0.11675306949785044,101,3,20.295345498584815,1.9577412597768769
0.00642119868591,0.11675190201170006,101,3,20.295345498584815,1.9577412597768769
0.00758860084642044,0.11675073455491165,101,3,20.295345498584815,1.9577412597768769
0.008755977422886113,0.11674956712612387,101,3,20.295345498584815,1.9577412597768769
0.009923329486032978,0.1167483997240801,101,3,20.295345498584815,1.9577412597768769
0.011090658024212635,0.11674723234762038,101,3,20.295345498584815,1.9577412597768769
0.012257963949740327,0.11674606499567398,101,3,20.295345498584815,1.9577412597768769
0.013425248104745314,0.11674489766725253,101,3,20.295345498584815,1.9577412597768769
0.014592511266571073,0.11674373036144374,101,3,20.295345498584815,1.9577412597768769
0.015759754152760038,0.11674256307740548,101,3,20.295345498584815,1.9577412597768769
0.016926977425654768,0.11674139581436038,101,3,20.295345498584815,1.9577412597768769
0.01809418169664513,0.11674022857159091,101,3,20.295345498584815,1.9577412597768769
0.019261367530088655,0.11673906134843474,101,3,20.295345498584815,1.9577412597768769
0.02042853544692931,0.11673789414428049,101,3,20.295345498584815,1.9577412597768769
0.021595685928037775,0.11673672695856376,101,3,20.295345498584815,1.9577412597768769
0.022762819417294775,0.11673555979076364,101,3,20.295345498584815,1.9577412597768769
0.023929936324437105,0.11673439264039925,101,3,20.295345498584815,1.9577412597768769
0.025097037027684767,0.11673322550702671,101,3,20.295345498584815,1.9577412597768769
0.026264121876165877,0.11673205839023629,101,3,20.295345498584815,1.9577412597768769
0.02743119119215508,0.11673089128964975,101,3,20.295345498584815,1.9577412597768769
0.028598245273139665,0.11672972420491798,101,3,20.295345498584815,1.9577412597768769
0.029765284393726756,0.1167285571357187,101,3,20.295345498584815,1.9577412597768769
0.030932308807403743,0.11672739008175442,101,3,20.295345498584815,1.9577412597768769
0.032099318748163276,0.11672622304275054,101,3,20.295345498584815,1.9577412597768769
0.03326631443200322,0.11672505601845358,101,3,20.295345498584815,1.9577412597768769
0.034433296058311205,0.11672388900862951,101,3,20.295345498584815,1.9577412597768769
0.03560026381114261,0.11672272201306239,101,3,20.295345498584815,1.9577412597768769
0.036767217860400325,0.11672155503155278,101,3,20.295345498584815,1.9577412597768769
0.03793415836292356,0.11672038806391664,101,3,20.295345498584815,1.9577412597768769
0.039101085463493085,0.11671922110998408,101,3,20.295345498584815,1.9577412597768769
0.04026799929575898,0.11671805416959825,101,3,20.295345498584815,1.9577412597768769
0.04143489998309702,0.11671688724261438,101,3,20.295345498584815,1.9577412597768769
0.042601787639399265,0.1167157203288988,101,3,20.295345498584815,1.9577412597768769
0.04376866236980369,0.11671455342832816,101,3,20.295345498584815,1.9577412597768769
0.044935524271367766,0.11671338654078856,101,3,20.295345498584815,1.9577412597768769
0.046102373433690204,0.11671221966617484,101,3,20.295345498584815,1.9577412597768769
0.04726920993948478,0.11671105280438997,101,3,20.295345498584815,1.9577412597768769
0.048436033865110154,0.11670988595534433,101,3,20.295345498584815,1.9577412597768769
0.0496028452810588,0.11670871911895522,101,3,20.295345498584815,1.9577412597768769
0.050769644252408326,0.11670755229514627,101,3,20.295345498584815,1.9577412597768769
0.051936430839238164,0.11670638548384701,101,3,20.295345498584815,1.9577412597768769
0.053103205097014126,0.11670521868499234,101,3,20.295345498584815,1.9577412597768769
0.05426996707694334,0.1167040518985222,101,3,20.295345498584815,1.9577412597768769
0.055436716826301996,0.11670288512438111,101,3,20.295345498584815,1.9577412597768769
0.05660345438873769,0.11670171836251785,101,3,20.295345498584815,1.9577412597768769
0.057770179804548724,0.11670055161288517,101,3,20.295345498584815,1.9577412597768769
0.05893689311094172,0.1166993848754394,101,3,20.295345498584815,1.9577412597768769
0.06010359434226956,0.11669821815014028,101,3,20.295345498584815,1.9577412597768769
0.06127028353025093,0.11669705143695056,101,3,20.295345498584815,1.9577412597768769
0.06243696070417301,0.1166958847358359,101,3,20.295345498584815,1.9577412597768769
0.06360362589107851,0.1166947180467646,101,3,20.295345498584815,1.9577412597768769
0.06477027911593845,0.11669355136970734,101,3,20.295345498584815,1.9577412597768769
0.0659369204018115,0.1166923847046371,101,3,20.295345498584815,1.9577412597768769
0.0671035497699911,0.1166912180515289,101,3,20.295345498584815,1.9577412597768769
0.06827016724014134,0.11669005141035971,101,3,20.295345498584815,1.9577412597768769
0.06943677283042231,0.11668888478110818,101,3,20.295345498584815,1.9577412597768769
0.07060336655760578,0.1166877181637547,101,3,20.295345498584815,1.9577412597768769
0.071769948437182,0.11668655155828109,101,3,20.295345498584815,1.9577412597768769
0.07293651848345846,0.11668538496467057,101,3,20.295345498584815,1.9577412597768769
0.07410307670965068,0.11668421838290764,101,3,20.295345498584815,1.9577412597768769
0.07526962312796635,0.11668305181297803,101,3,20.295345498584815,1.9577412597768769
0.0764361577496829,0.1166818852548685,101,3,20.295345498584815,1.9577412597768769
0.07760268058521898,0.11668071870856683,101,3,20.295345498584815,1.9577412597768769
0.07876919164420056,0.11667955217406177,101,3,20.295345498584815,1.9577412597768769
0.07993569093552202,0.11667838565134289,101,3,20.295345498584815,1.9577412597768769
0.08110217846740232,0.11667721914040056,101,3,20.295345498584815,1.9577412597768769
0.08226865424743697,0.1166760526412259,101,3,20.295345498584815,1.9577412597768769
0.0834351182826461,0.11667488615381066,101,3,20.295345498584815,1.9577412597768769
0.08460157057951866,0.11667371967814728,101,3,20.295345498584815,1.9577412597768769
0.08576801114405326,0.11667255321422872,101,3,20.295345498584815,1.9577412597768769
0.08693443998179601,0.1166713867620485,101,3,20.295345498584815,1.9577412597768769
0.08810085709787517,0.11667022032160061,101,3,20.295345498584815,1.9577412597768769
0.08926726249703346,0.11666905389287952,101,3,20.295345498584815,1.9577412597768769
0.09043365618365766,0.11666788747588008,101,3,20.295345498584815,1.9577412597768769
0.09160003816180592,0.11666672107059756,101,3,20.295345498584815,1.9577412597768769
0.09276640843523322,0.11666555467702758,101,3,20.295345498584815,1.9577412597768769
0.09393276700741451,0.11666438829516607,101,3,20.295345498584815,1.9577412597768769
0.0950991138815664,0.11666322192500929,101,3,20.295345498584815,1.9577412597768769
0.09626544906066697,0.11666205556655374,101,3,20.295345498584815,1.9577412597768769
0.09743177254747408,0.11666088921979623,101,3,20.295345498584815,1.9577412597768769
0.09859808434454241,0.11665972288473377,101,3,20.295345498584815,1.9577412597768769
0.09976438445423902,0.11665855656136359,101,3,20.295345498584815,1.9577412597768769
0.10093067287875787,0.11665739024968315,101,3,20.295345498584815,1.9577412597768769
0.10209694962013298,0.1166562239496901,101,3,20.295345498584815,1.9577412597768769
0.10326321468025096,0.1166550576613822,101,3,20.295345498584815,1.9577412597768769
0.10442946806086215,0.11665389138475746,101,3,20.295345498584815,1.9577412597768769
0.10559570976359119,0.11665272511981396,101,3,20.295345498584815,1.9577412597768769
0.10676193978994669,0.11665155886654999,101,3,20.295345498584815,1.9577412597768769
0.10792815814133018,0.11665039262496388,101,3,20.295345498584815,1.9577412597768769
0.10909436481904432,0.11664922639505415,101,3,20.295345498584815,1.9577412597768769
0.11026055982430047,0.11664806017681939,101,3,20.295345498584815,1.9577412597768769
0.11142674315822577,0.1166468939702583,101,3,20.295345498584815,1.9577412597768769
0.11259291482186963,0.11664572777536966,101,3,20.295345498584815,1.9577412597768769
0.11375907481620968,0.11664456159215236,101,3,20.295345498584815,1.9577412597768769
0.11492522314215722,0.11664339542060534,101,3,20.295345498584815,1.9577412597768769
0.11609135980056252,0.11664222926072762,101,3,20.295345498584815,1.9577412597768769
0.11725748479221929,0.11664106311251829,101,3,20.295345498584815,1.9577412597768769
0.11842359811786923,0.1166398969759765,101,3,20.295345498584815,1.9577412597768769
0.11958969977820587,0.11663873085110145,101,3,20.295345498584815,1.9577412597768769
0.1207557897738784,0.11663756473789241,101,3,20.295345498584815,1.9577412597768769
0.12192186810549493,0.1166363986363487,101,3,20.295345498584815,1.9577412597768769
0.1230879347736259,0.11663523254646964,101,3,20.295345498584815,1.9577412597768769
0.12425398977880668,0.11663406646825462,101,3,20.295345498584815,1.9577412597768769
0.1254200331215405,0.1166329004017031,101,3,20.295345498584815,1.9577412597768769
0.12658606480230084,0.11663173434681454,101,3,20.295345498584815,1.9577412597768769
0.12775208482153363,0.11663056830358841,101,3,20.295345498584815,1.9577412597768769
0.12891809317965963,0.11662940227202424,101,3,20.295345498584815,1.9577412597768769
0.13008408987707593,0.11662823625212163,101,3,20.295345498584815,1.9577412597768769
0.13125007491415824,0.1166270702438801,101,3,20.295345498584815,1.9577412597768769
0.13241604829126233,0.11662590424729928,101,3,20.295345498584815,1.9577412597768769
0.13358201000872538,0.1166247382623788,101,3,20.295345498584815,1.9577412597768769
0.13474796006686787,0.1166235722891183,101,3,20.295345498584815,1.9577412597768769
0.13591389846599428,0.11662240632751743,101,3,20.295345498584815,1.9577412597768769
0.13707982520639486,0.11662124037757589,101,3,20.295345498584815,1.9577412597768769
0.13824574028834646,0.11662007443929336,101,3,20.295345498584815,1.9577412597768769
0.13941164371211345,0.11661890851266955,101,3,20.295345498584815,1.9577412597768769
0.14057753547794896,0.11661774259770419,101,3,20.295345498584815,1.9577412597768769
0.14174341558609563,0.11661657669439703,101,3,20.295345498584815,1.9577412597768769
0.1429092840367862,0.11661541080274777,101,3,20.295345498584815,1.9577412597768769
0.14407514083024475,0.11661424492275622,101,3,20.295345498584815,1.9577412597768769
0.14524098596668686,0.11661307905442211,101,3,20.295345498584815,1.9577412597768769
0.14640681944632059,0.11661191319774525,101,3,20.295345498584815,1.9577412597768769
0.14757264126934697,0.11661074735272539,101,3,20.295345498584815,1.9577412597768769
0.1487384514359604,0.11660958151936235,101,3,20.295345498584815,1.9577412597768769
0.1499042499463495,0.1166084156976559,101,3,20.295345498584815,1.9577412597768769
0.15107003680069708,0.11660724988760587,101,3,20.295345498584815,1.9577412597768769
0.1522358119991811,0.11660608408921207,101,3,20.295345498584815,1.9577412597768769
0.15340157554197467,0.1166049183024743,101,3,20.295345498584815,1.9577412597768769
0.15456732742924648,0.1166037525273924,101,3,20.295345498584815,1.9577412597768769
0.15573306766116138,0.11660258676396618,101,3,20.295345498584815,1.9577412597768769
0.15689879623788036,0.11660142101219549,101,3,20.295345498584815,1.9577412597768769
0.15806451315956102,0.11660025527208015,101,3,20.295345498584815,1.9577412597768769
0.15923021842635784,0.11659908954362,101,3,20.295345498584815,1.9577412597768769
0.1603959120384223,0.1165979238268149,101,3,20.295345498584815,1.9577412597768769
0.16156159399590322,0.11659675812166467,101,3,20.295345498584815,1.9577412597768769
0.16272726429894704,0.11659559242816918,101,3,20.295345498584815,1.9577412597768769
0.16389292294769772,0.11659442674632826,101,3,20.295345498584815,1.9577412597768769
0.16505856994229723,0.11659326107614179,101,3,20.295345498584815,1.9577412597768769
0.1662242052828855,0.1165920954176096,101,3,20.295345498584815,1.9577412597768769
0.16738982896960072,0.11659092977073159,101,3,20.295345498584815,1.9577412597768769
0.1685554410025794,0.11658976413550756,101,3,20.295345498584815,1.9577412597768769
0.16972104138195648,0.11658859851193741,101,3,20.295345498584815,1.9577412597768769
0.1708866301078655,0.11658743290002099,101,3,20.295345498584815,1.9577412597768769
0.1720522071804387,0.11658626729975818,101,3,20.295345498584815,1.9577412597768769
0.17321777259980714,0.11658510171114883,101,3,20.295345498584815,1.9577412597768769
0.17438332636610068,0.11658393613419282,101,3,20.295345498584815,1.9577412597768769
0.17554886847944817,0.11658277056889,101,3,20.295345498584815,1.9577412597768769
0.17671439893997748,0.11658160501524027,101,3,20.295345498584815,1.9577412597768769
0.17787991774781575,0.11658043947324348,101,3,20.295345498584815,1.9577412597768769
0.17904542490308914,0.1165792739428995,101,3,20.295345498584815,1.9577412597768769
0.18021092040592313,0.11657810842420822,101,3,20.295345498584815,1.9577412597768769
0.1813764042564425,0.1165769429171695,101,3,20.295345498584815,1.9577412597768769
0.18254187645477132,0.11657577742178322,101,3,20.295345498584815,1.9577412597768769
0.18370733700103326,0.11657461193804924,101,3,20.295345498584815,1.9577412597768769
0.1848727858953513,0.11657344646596747,101,3,20.295345498584815,1.9577412597768769
0.18603822313784793,0.11657228100553776,101,3,20.295345498584815,1.9577412597768769
0.18720364872864523,0.11657111555675999,101,3,20.295345498584815,1.9577412597768769
0.18836906266786466,0.11656995011963403,101,3,20.295345498584815,1.9577412597768769
0.18953446495562765,0.11656878469415978,101,3,20.295345498584815,1.9577412597768769
0.19069985559205493,0.11656761928033711,101,3,20.295345498584815,1.9577412597768769
0.191865234577267,0.11656645387816589,101,3,20.295345498584815,1.9577412597768769
0.19303060191138421,0.116565288487646,101,3,20.295345498584815,1.9577412597768769
0.19419595759452635,0.11656412310877733,101,3,20.295345498584815,1.9577412597768769
0.1953613016268131,0.11656295774155975,101,3,20.295345498584815,1.9577412597768769
0.19652663400836384,0.11656179238599315,101,3,20.295345498584815,1.9577412597768769
0.1976919547392978,0.1165606270420774,101,3,20.295345498584815,1.9577412597768769
0.19885726381973398,0.11655946170981238,101,3,20.295345498584815,1.9577412597768769
0.20002256124979106,0.11655829638919799,101,3,20.295345498584815,1.9577412597768769
0.20118784702958772,0.11655713108023408,101,3,20.295345498584815,1.9577412597768769
0.2023531211592423,0.11655596578292056,101,3,20.295345498584815,1.9577412597768769
0.2035183836388732,0.11655480049725729,101,3,20.295345498584815,1.9577412597768769
0.20468363446859852,0.11655363522324416,101,3,20.295345498584815,1.9577412597768769
0.20584887364853627,0.11655246996088106,101,3,20.295345498584815,1.9577412597768769
0.20701410117880426,0.11655130471016786,101,3,20.295345498584815,1.9577412597768769
0.20817931705952042,0.11655013947110446,101,3,20.295345498584815,1.9577412597768769
0.20934452129080236,0.1165489742436907,101,3,20.295345498584815,1.9577412597768769
0.21050971387276762,0.11654780902792651,101,3,20.295345498584815,1.9577412597768769
0.2116748948055338,0.11654664382381176,101,3,20.295345498584815,1.9577412597768769
0.21284006408921832,0.11654547863134632,101,3,20.295345498584815,1.9577412597768769
0.21400522172393838,0.11654431345053007,101,3,20.295345498584815,1.9577412597768769
0.21517036770981138,0.1165431482813629,101,3,20.295345498584815,1.9577412597768769
0.2163355020469545,0.1165419831238447,101,3,20.295345498584815,1.9577412597768769
0.2175006247354849,0.11654081797797534,101,3,20.295345498584815,1.9577412597768769
0.21866573577551965,0.11653965284375471,101,3,20.295345498584815,1.9577412597768769
0.21983083516717583,0.1165384877211827,101,3,20.295345498584815,1.9577412597768769
0.22099592291057044,0.11653732261025918,101,3,20.295345498584815,1.9577412597768769
0.2221609990058204,0.11653615751098403,101,3,20.295345498584815,1.9577412597768769
0.22332606345304268,0.11653499242335716,101,3,20.295345498584815,1.9577412597768769
0.2244911162523541,0.11653382734737841,101,3,20.295345498584815,1.9577412597768769
0.22565615740387154,0.1165326622830477,101,3,20.295345498584815,1.9577412597768769
0.22682118690771186,0.11653149723036489,101,3,20.295345498584815,1.9577412597768769
0.22798620476399178,0.11653033218932989,101,3,20.295345498584815,1.9577412597768769
0.22915121097282812,0.11652916715994255,101,3,20.295345498584815,1.9577412597768769
0.23031620553433757,0.11652800214220277,101,3,20.295345498584815,1.9577412597768769
0.2314811884486368,0.11652683713611044,101,3,20.295345498584815,1.9577412597768769
0.2326461597158426,0.11652567214166543,101,3,20.295345498584815,1.9577412597768769
0.23381111933607152,0.11652450715886764,101,3,20.295345498584815,1.9577412597768769
0.23497606730944026,0.11652334218771693,101,3,20.295345498584815,1.9577412597768769
0.23614100363606552,0.1165221772282132,101,3,20.295345498584815,1.9577412597768769
0.2373059283160639,0.11652101228035633,101,3,20.295345498584815,1.9577412597768769
0.23847084134955188,0.1165198473441462,101,3,20.295345498584815,1.9577412597768769
0.2396357427366462,0.11651868241958269,101,3,20.295345498584815,1.9577412597768769
0.24080063247746336,0.1165175175066657,101,3,20.295345498584815,1.9577412597768769
0.24196551057211996,0.1165163526053951,101,3,20.295345498584815,1.9577412597768769
0.2431303770207325,0.11651518771577077,101,3,20.295345498584815,1.9577412597768769
0.24429523182341759,0.11651402283779261,101,3,20.295345498584815,1.9577412597768769
0.2454600749802917,0.11651285797146048,101,3,20.295345498584815,1.9577412597768769
0.2466249064914714,0.11651169311677428,101,3,20.295345498584815,1.9577412597768769
0.24778972635707322,0.1165105282737339,101,3,20.295345498584815,1.9577412597768769
0.24895453457721356,0.1165093634423392,101,3,20.295345498584815,1.9577412597768769
0.250119331152009,0.11650819862259008,101,3,20.295345498584815,1.9577412597768769
0.2512841160815761,0.11650703381448643,101,3,20.295345498584815,1.9577412597768769
0.25244888936603127,0.11650586901802812,101,3,20.295345498584815,1.9577412597768769
0.25361365100549094,0.11650470423321503,101,3,20.295345498584815,1.9577412597768769
0.2547784010000717,0.11650353946004705,101,3,20.295345498584815,1.9577412597768769
0.25594313934989,0.11650237469852406,101,3,20.295345498584815,1.9577412597768769
0.2571078660550622,0.11650120994864596,101,3,20.295345498584815,1.9577412597768769
0.25827258111570484,0.11650004521041263,101,3,20.295345498584815,1.9577412597768769
0.25943728453193443,0.11649888048382392,101,3,20.295345498584815,1.9577412597768769
0.2606019763038673,0.11649771576887975,101,3,20.295345498584815,1.9577412597768769
0.26176665643162,0.11649655106558,101,3,20.295345498584815,1.9577412597768769
0.2629313249153089,0.11649538637392454,101,3,20.295345498584815,1.9577412597768769
0.26409598175505056,0.11649422169391326,101,3,20.295345498584815,1.9577412597768769
0.26526062695096125,0.11649305702554603,101,3,20.295345498584815,1.9577412597768769
0.2664252605031575,0.11649189236882276,101,3,20.295345498584815,1.9577412597768769
0.2675898824117558,0.11649072772374332,101,3,20.295345498584815,1.9577412597768769
0.26875449267687246,0.11648956309030759,101,3,20.295345498584815,1.9577412597768769
0.26991909129862407,0.11648839846851546,101,3,20.295345498584815,1.9577412597768769
0.2710836782771268,0.1164872338583668,101,3,20.295345498584815,1.9577412597768769
0.27224825361249727,0.11648606925986152,101,3,20.295345498584815,1.9577412597768769
0.27341281730485184,0.11648490467299948,101,3,20.295345498584815,1.9577412597768769
