Vout,Iout,Irradiance,Temperature,MaxVoltage,MaxPower
0.0005979142508245114,0.119584,101,17,21.324766864616766,2.0953969272459427
0.0017937316964731329,0.119584,101,17,21.324766864616766,2.0953969272459427
0.0029895248314530227,0.11958339012734917,101,17,21.324766864616766,2.0953969272459427
0.004185289312671264,0.11958219430990352,101,17,21.324766864616766,2.0953969272459427
0.005381023720729743,0.11958099851682953,101,17,21.324766864616766,2.0953969272459427
0.006576729449928585,0.11957980275246789,101,17,21.324766864616766,2.0953969272459427
0.0077724077873372,0.11957860701817942,101,17,21.324766864616766,2.0953969272459427
0.008968059921018304,0.1195774113125698,101,17,21.324766864616766,2.0953969272459427
0.010163686947632398,0.11957621563435196,101,17,21.324766864616766,2.0953969272459427
0.011359289879470384,0.11957501998233784,101,17,21.324766864616766,2.0953969272459427
0.012554869650945114,0.1195738243554308,101,17,21.324766864616766,2.0953969272459427
0.013750427124583436,0.11957262875261852,101,17,21.324766864616766,2.0953969272459427
0.014945963096557227,0.11957143317296662,101,17,21.324766864616766,2.0953969272459427
0.01614147830178883,0.11957023761561254,101,17,21.324766864616766,2.0953969272459427
0.017336973418663713,0.11956904207976012,101,17,21.324766864616766,2.0953969272459427
0.018532449073380478,0.11956784656467445,101,17,21.324766864616766,2.0953969272459427
0.01972790584396624,0.11956665106967712,101,17,21.324766864616766,2.0953969272459427
0.020923344263982967,0.11956545559414196,101,17,21.324766864616766,2.0953969272459427
0.022118764825948732,0.11956426013749093,101,17,21.324766864616766,2.0953969272459427
0.023314167984495683,0.11956306469919045,101,17,21.324766864616766,2.0953969272459427
0.02450955415928507,0.11956186927874804,101,17,21.324766864616766,2.0953969272459427
0.025704923737697897,0.11956067387570903,101,17,21.324766864616766,2.0953969272459427
0.026900277077318693,0.11955947848965379,101,17,21.324766864616766,2.0953969272459427
0.028095614508228055,0.11955828312019491,101,17,21.324766864616766,2.0953969272459427
0.029290936335118842,0.11955708776697482,101,17,21.324766864616766,2.0953969272459427
0.030486242839249552,0.11955589242966345,101,17,21.324766864616766,2.0953969272459427
0.031681534280247434,0.1195546971079561,101,17,21.324766864616766,2.0953969272459427
0.03287681089777278,0.11955350180157151,101,17,21.324766864616766,2.0953969272459427
0.03407207291305521,0.11955230651025003,101,17,21.324766864616766,2.0953969272459427
0.03526732053031183,0.11955111123375205,101,17,21.324766864616766,2.0953969272459427
0.03646255393805611,0.1195499159718563,101,17,21.324766864616766,2.0953969272459427
0.037657773310306224,0.11954872072435856,101,17,21.324766864616766,2.0953969272459427
0.03885297880770026,0.11954752549107034,101,17,21.324766864616766,2.0953969272459427
0.040048170578525805,0.11954633027181762,101,17,21.324766864616766,2.0953969272459427
0.0412433487596701,0.11954513506643975,101,17,21.324766864616766,2.0953969272459427
0.04243851347749729,0.11954393987478844,101,17,21.324766864616766,2.0953969272459427
0.04363366484865807,0.11954274469672682,101,17,21.324766864616766,2.0953969272459427
0.04482880298083698,0.1195415495321285,101,17,21.324766864616766,2.0953969272459427
0.04602392797344242,0.11954035438087687,101,17,21.324766864616766,2.0953969272459427
0.04721903991824326,0.1195391592428642,101,17,21.324766864616766,2.0953969272459427
0.04841413889995675,0.11953796411799111,101,17,21.324766864616766,2.0953969272459427
0.04960922499679105,0.11953676900616583,101,17,21.324766864616766,2.0953969272459427
0.05080429828094606,0.11953557390730363,101,17,21.324766864616766,2.0953969272459427
0.05199935881907568,0.11953437882132631,101,17,21.324766864616766,2.0953969272459427
0.05319440667271455,0.11953318374816166,101,17,21.324766864616766,2.0953969272459427
0.05438944189867195,0.11953198868774303,101,17,21.324766864616766,2.0953969272459427
0.05558446454939532,0.1195307936400089,101,17,21.324766864616766,2.0953969272459427
0.056779474673305914,0.11952959860490245,101,17,21.324766864616766,2.0953969272459427
0.05797447231510858,0.11952840358237124,101,17,21.324766864616766,2.0953969272459427
0.05916945751607765,0.11952720857236683,101,17,21.324766864616766,2.0953969272459427
0.060364430314320996,0.11952601357484453,101,17,21.324766864616766,2.0953969272459427
0.061559390745023555,0.11952481858976306,101,17,21.324766864616766,2.0953969272459427
0.06275433884067229,0.11952362361708432,101,17,21.324766864616766,2.0953969272459427
0.06394927463126374,0.11952242865677311,101,17,21.324766864616766,2.0953969272459427
0.06514419814449568,0.11952123370879696,101,17,21.324766864616766,2.0953969272459427
0.06633910940594391,0.11952003877312586,101,17,21.324766864616766,2.0953969272459427
0.06753400843922565,0.11951884384973213,101,17,21.324766864616766,2.0953969272459427
0.06872889526615009,0.11951764893859017,101,17,21.324766864616766,2.0953969272459427
0.06992376990685761,0.11951645403967638,101,17,21.324766864616766,2.0953969272459427
0.07111863237994813,0.11951525915296896,101,17,21.324766864616766,2.0953969272459427
0.0723134827025997,0.11951406427844774,101,17,21.324766864616766,2.0953969272459427
0.07350832089067778,0.11951286941609414,101,17,21.324766864616766,2.0953969272459427
0.07470314695883638,0.11951167456589097,101,17,21.324766864616766,2.0953969272459427
0.07589796092061112,0.11951047972782237,101,17,21.324766864616766,2.0953969272459427
0.0770927627885054,0.11950928490187371,101,17,21.324766864616766,2.0953969272459427
0.07828755257406973,0.11950809008803141,101,17,21.324766864616766,2.0953969272459427
0.07948233028797519,0.119506895286283,101,17,21.324766864616766,2.0953969272459427
0.08067709594008092,0.11950570049661692,101,17,21.324766864616766,2.0953969272459427
0.08187184953949667,0.11950450571902249,101,17,21.324766864616766,2.0953969272459427
0.08306659109464049,0.11950331095348987,101,17,21.324766864616766,2.0953969272459427
0.0842613206132919,0.11950211620000993,101,17,21.324766864616766,2.0953969272459427
0.08545603810264106,0.11950092145857426,101,17,21.324766864616766,2.0953969272459427
0.08665074356933407,0.11949972672917508,101,17,21.324766864616766,2.0953969272459427
0.08784543701951482,0.11949853201180521,101,17,21.324766864616766,2.0953969272459427
0.08904011845886378,0.11949733730645799,101,17,21.324766864616766,2.0953969272459427
0.09023478789263344,0.11949614261312728,101,17,21.324766864616766,2.0953969272459427
0.0914294453256814,0.1194949479318074,101,17,21.324766864616766,2.0953969272459427
0.09262409076250062,0.1194937532624931,101,17,21.324766864616766,2.0953969272459427
0.09381872420724766,0.11949255860517952,101,17,21.324766864616766,2.0953969272459427
0.09501334566376834,0.11949136395986217,101,17,21.324766864616766,2.0953969272459427
0.09620795513562186,0.11949016932653689,101,17,21.324766864616766,2.0953969272459427
0.09740255262610269,0.11948897470519983,101,17,21.324766864616766,2.0953969272459427
0.09859713813826103,0.11948778009584744,101,17,21.324766864616766,2.0953969272459427
0.09979171167492155,0.11948658549847642,101,17,21.324766864616766,2.0953969272459427
0.10098627323870087,0.11948539091308373,101,17,21.324766864616766,2.0953969272459427
0.10218082283202334,0.11948419633966652,101,17,21.324766864616766,2.0953969272459427
0.10337536045713604,0.1194830017782222,101,17,21.324766864616766,2.0953969272459427
0.10456988611612236,0.11948180722874834,101,17,21.324766864616766,2.0953969272459427
0.10576439981091447,0.11948061269124269,101,17,21.324766864616766,2.0953969272459427
0.10695890154330516,0.11947941816570315,101,17,21.324766864616766,2.0953969272459427
0.10815339131495844,0.11947822365212782,101,17,21.324766864616766,2.0953969272459427
0.10934786912741944,0.11947702915051488,101,17,21.324766864616766,2.0953969272459427
0.11054233498212362,0.11947583466086267,101,17,21.324766864616766,2.0953969272459427
0.11173678888040525,0.11947464018316967,101,17,21.324766864616766,2.0953969272459427
0.11293123082350497,0.1194734457174344,101,17,21.324766864616766,2.0953969272459427
0.11412566081257726,0.11947225126365557,101,17,21.324766864616766,2.0953969272459427
0.11532007884869692,0.11947105682183191,101,17,21.324766864616766,2.0953969272459427
0.11651448493286522,0.11946986239196229,101,17,21.324766864616766,2.0953969272459427
0.11770887906601565,0.11946866797404562,101,17,21.324766864616766,2.0953969272459427
0.118903261249019,0.11946747356808089,101,17,21.324766864616766,2.0953969272459427
0.12009763148268825,0.11946627917406719,101,17,21.324766864616766,2.0953969272459427
0.121291989767783,0.11946508479200361,101,17,21.324766864616766,2.0953969272459427
0.12248633610501362,0.11946389042188939,101,17,21.324766864616766,2.0953969272459427
0.123680670495045,0.11946269606372373,101,17,21.324766864616766,2.0953969272459427
0.12487499293850002,0.11946150171750594,101,17,21.324766864616766,2.0953969272459427
0.1260693034359629,0.11946030738323535,101,17,21.324766864616766,2.0953969272459427
0.12726360198798195,0.11945911306091132,101,17,21.324766864616766,2.0953969272459427
0.12845788859507265,0.1194579187505333,101,17,21.324766864616766,2.0953969272459427
0.1296521632577199,0.1194567244521007,101,17,21.324766864616766,2.0953969272459427
0.13084642597638052,0.11945553016561304,101,17,21.324766864616766,2.0953969272459427
0.1320406767514853,0.11945433589106982,101,17,21.324766864616766,2.0953969272459427
0.13323491558344108,0.1194531416284706,101,17,21.324766864616766,2.0953969272459427
0.13442914247263268,0.11945194737781492,101,17,21.324766864616766,2.0953969272459427
0.13562335741942438,0.11945075313910239,101,17,21.324766864616766,2.0953969272459427
0.13681756042416165,0.11944955891233262,101,17,21.324766864616766,2.0953969272459427
0.1380117514871726,0.11944836469750526,101,17,21.324766864616766,2.0953969272459427
0.1392059306087692,0.11944717049461995,101,17,21.324766864616766,2.0953969272459427
0.14040009778924875,0.11944597630367636,101,17,21.324766864616766,2.0953969272459427
0.1415942530288946,0.11944478212467417,101,17,21.324766864616766,2.0953969272459427
0.14278839632797777,0.11944358795761312,101,17,21.324766864616766,2.0953969272459427
0.1439825276867574,0.11944239380249289,101,17,21.324766864616766,2.0953969272459427
0.14517664710548198,0.11944119965931323,101,17,21.324766864616766,2.0953969272459427
0.14637075458439,0.11944000552807386,101,17,21.324766864616766,2.0953969272459427
0.14756485012371082,0.11943881140877455,101,17,21.324766864616766,2.0953969272459427
0.14875893372366536,0.11943761730141506,101,17,21.324766864616766,2.0953969272459427
0.1499530053844667,0.11943642320599514,101,17,21.324766864616766,2.0953969272459427
0.1511470651063207,0.1194352291225146,101,17,21.324766864616766,2.0953969272459427
0.1523411128894265,0.1194340350509732,101,17,21.324766864616766,2.0953969272459427
0.15353514873397725,0.11943284099137076,101,17,21.324766864616766,2.0953969272459427
0.15472917264016026,0.11943164694370706,101,17,21.324766864616766,2.0953969272459427
0.15592318460815774,0.11943045290798192,101,17,21.324766864616766,2.0953969272459427
0.15711718463814703,0.11942925888419514,101,17,21.324766864616766,2.0953969272459427
0.15831117273030088,0.11942806487234654,101,17,21.324766864616766,2.0953969272459427
0.15950514888478812,0.11942687087243596,101,17,21.324766864616766,2.0953969272459427
0.16069911310177362,0.1194256768844632,101,17,21.324766864616766,2.0953969272459427
0.16189306538141887,0.11942448290842812,101,17,21.324766864616766,2.0953969272459427
0.16308700572388204,0.11942328894433053,101,17,21.324766864616766,2.0953969272459427
0.1642809341293183,0.11942209499217028,101,17,21.324766864616766,2.0953969272459427
0.16547485059788009,0.11942090105194722,101,17,21.324766864616766,2.0953969272459427
0.16666875512971732,0.11941970712366118,101,17,21.324766864616766,2.0953969272459427
0.16786264772497758,0.119418513207312,101,17,21.324766864616766,2.0953969272459427
0.16905652838380614,0.11941731930289956,101,17,21.324766864616766,2.0953969272459427
0.1702503971063464,0.11941612541042369,101,17,21.324766864616766,2.0953969272459427
0.17144425389273982,0.11941493152988426,101,17,21.324766864616766,2.0953969272459427
0.17263809874312633,0.1194137376612811,101,17,21.324766864616766,2.0953969272459427
0.17383193165764407,0.11941254380461411,101,17,21.324766864616766,2.0953969272459427
0.17502575263642978,0.1194113499598831,101,17,21.324766864616766,2.0953969272459427
0.17621956167961902,0.11941015612708797,101,17,21.324766864616766,2.0953969272459427
0.17741335878734588,0.11940896230622856,101,17,21.324766864616766,2.0953969272459427
0.17860714395974336,0.11940776849730476,101,17,21.324766864616766,2.0953969272459427
0.17980091719694352,0.11940657470031642,101,17,21.324766864616766,2.0953969272459427
0.18099467849907738,0.1194053809152634,101,17,21.324766864616766,2.0953969272459427
0.182188427866275,0.11940418714214558,101,17,21.324766864616766,2.0953969272459427
0.18338216529866574,0.11940299338096283,101,17,21.324766864616766,2.0953969272459427
0.18457589079637807,0.119401799631715,101,17,21.324766864616766,2.0953969272459427
0.18576960435953976,0.11940060589440199,101,17,21.324766864616766,2.0953969272459427
0.18696330598827798,0.11939941216902365,101,17,21.324766864616766,2.0953969272459427
0.18815699568271926,0.11939821845557987,101,17,21.324766864616766,2.0953969272459427
0.18935067344298967,0.1193970247540705,101,17,21.324766864616766,2.0953969272459427
0.19054433926921457,0.11939583106449543,101,17,21.324766864616766,2.0953969272459427
0.191737993161519,0.11939463738685453,101,17,21.324766864616766,2.0953969272459427
0.19293163512002753,0.11939344372114767,101,17,21.324766864616766,2.0953969272459427
0.1941252651448644,0.11939225006737474,101,17,21.324766864616766,2.0953969272459427
0.1953188832361532,0.1193910564255356,101,17,21.324766864616766,2.0953969272459427
0.19651248939401753,0.11938986279563013,101,17,21.324766864616766,2.0953969272459427
0.19770608361858044,0.1193886691776582,101,17,21.324766864616766,2.0953969272459427
0.19889966590996483,0.1193874755716197,101,17,21.324766864616766,2.0953969272459427
0.2000932362682931,0.1193862819775145,101,17,21.324766864616766,2.0953969272459427
0.20128679469368765,0.11938508839534247,101,17,21.324766864616766,2.0953969272459427
0.20248034118627056,0.1193838948251035,101,17,21.324766864616766,2.0953969272459427
0.2036738757461636,0.11938270126679747,101,17,21.324766864616766,2.0953969272459427
0.2048673983734885,0.11938150772042425,101,17,21.324766864616766,2.0953969272459427
0.20606090906836674,0.1193803141859837,101,17,21.324766864616766,2.0953969272459427
0.2072544078309195,0.11937912066347574,101,17,21.324766864616766,2.0953969272459427
0.2084478946612681,0.11937792715290022,101,17,21.324766864616766,2.0953969272459427
0.2096413695595335,0.11937673365425701,101,17,21.324766864616766,2.0953969272459427
0.2108348325258365,0.11937554016754601,101,17,21.324766864616766,2.0953969272459427
0.21202828356029788,0.1193743466927671,101,17,21.324766864616766,2.0953969272459427
0.21322172266303835,0.11937315322992015,101,17,21.324766864616766,2.0953969272459427
0.2144151498341783,0.11937195977900503,101,17,21.324766864616766,2.0953969272459427
0.21560856507383824,0.11937076634002164,101,17,21.324766864616766,2.0953969272459427
0.21680196838213855,0.11936957291296985,101,17,21.324766864616766,2.0953969272459427
0.21799535975919945,0.11936837949784952,101,17,21.324766864616766,2.0953969272459427
0.21918873920514112,0.11936718609466057,101,17,21.324766864616766,2.0953969272459427
0.2203821067200837,0.11936599270340284,101,17,21.324766864616766,2.0953969272459427
0.2215754623041472,0.11936479932407625,101,17,21.324766864616766,2.0953969272459427
0.22276880595745172,0.11936360595668064,101,17,21.324766864616766,2.0953969272459427
0.22396213768011708,0.11936241260121591,101,17,21.324766864616766,2.0953969272459427
0.2251554574722632,0.11936121925768195,101,17,21.324766864616766,2.0953969272459427
0.22634876533400994,0.11936002592607863,101,17,21.324766864616766,2.0953969272459427
0.22754206126547705,0.11935883260640581,101,17,21.324766864616766,2.0953969272459427
0.22873534526678424,0.11935763929866339,101,17,21.324766864616766,2.0953969272459427
0.2299286173380513,0.11935644600285125,101,17,21.324766864616766,2.0953969272459427
0.2311218774793979,0.11935525271896928,101,17,21.324766864616766,2.0953969272459427
0.23231512569094373,0.11935405944701734,101,17,21.324766864616766,2.0953969272459427
0.23350836197280828,0.11935286618699532,101,17,21.324766864616766,2.0953969272459427
0.2347015863251112,0.11935167293890311,101,17,21.324766864616766,2.0953969272459427
0.2358947987479721,0.11935047970274057,101,17,21.324766864616766,2.0953969272459427
0.23708799924151036,0.1193492864785076,101,17,21.324766864616766,2.0953969272459427
0.23828118780584567,0.11934809326620405,101,17,21.324766864616766,2.0953969272459427
0.2394743644410975,0.11934690006582983,101,17,21.324766864616766,2.0953969272459427
0.2406675291473852,0.11934570687738483,101,17,21.324766864616766,2.0953969272459427
0.2418606819248284,0.11934451370086889,101,17,21.324766864616766,2.0953969272459427
0.2430538227735464,0.11934332053628192,101,17,21.324766864616766,2.0953969272459427
0.24424695169365868,0.11934212738362379,101,17,21.324766864616766,2.0953969272459427
0.2454400686852847,0.1193409342428944,101,17,21.324766864616766,2.0953969272459427
0.24663317374854382,0.1193397411140936,101,17,21.324766864616766,2.0953969272459427
0.2478262668835554,0.11933854799722128,101,17,21.324766864616766,2.0953969272459427
0.24901934809043885,0.11933735489227734,101,17,21.324766864616766,2.0953969272459427
0.25021241736931354,0.11933616179926164,101,17,21.324766864616766,2.0953969272459427
0.25140547472029884,0.11933496871817406,101,17,21.324766864616766,2.0953969272459427
0.25259852014351397,0.1193337756490145,101,17,21.324766864616766,2.0953969272459427
0.25379155363907846,0.11933258259178282,101,17,21.324766864616766,2.0953969272459427
0.2549845752071115,0.11933138954647891,101,17,21.324766864616766,2.0953969272459427
0.25617758484773245,0.11933019651310266,101,17,21.324766864616766,2.0953969272459427
0.25737058256106066,0.11932900349165393,101,17,21.324766864616766,2.0953969272459427
0.25856356834721544,0.11932781048213262,101,17,21.324766864616766,2.0953969272459427
0.259756542206316,0.11932661748453859,101,17,21.324766864616766,2.0953969272459427
0.2609495041384818,0.11932542449887173,101,17,21.324766864616766,2.0953969272459427
0.2621424541438319,0.11932423152513193,101,17,21.324766864616766,2.0953969272459427
0.2633353922224858,0.11932303856331906,101,17,21.324766864616766,2.0953969272459427
0.26452831837456275,0.11932184561343301,101,17,21.324766864616766,2.0953969272459427
0.265721232600182,0.11932065267547365,101,17,21.324766864616766,2.0953969272459427
0.26691413489946264,0.11931945974944087,101,17,21.324766864616766,2.0953969272459427
0.2681070252725243,0.11931826683533454,101,17,21.324766864616766,2.0953969272459427
0.269299903719486,0.11931707393315456,101,17,21.324766864616766,2.0953969272459427
0.270492770240467,0.11931588104290079,101,17,21.324766864616766,2.0953969272459427
0.2716856248355866,0.11931468816457312,101,17,21.324766864616766,2.0953969272459427
0.2728784675049642,0.11931349529817142,101,17,21.324766864616766,2.0953969272459427
0.2740712982487188,0.11931230244369559,101,17,21.324766864616766,2.0953969272459427
0.2752641170669698,0.1193111096011455,101,17,21.324766864616766,2.0953969272459427
0.2764569239598364,0.11930991677052104,101,17,21.324766864616766,2.0953969272459427
0.27764971892743784,0.11930872395182207,101,17,21.324766864616766,2.0953969272459427
