Vout,Iout,Irradiance,Temperature,MaxVoltage,MaxPower
0.003458936740992875,0.6917939999999999,621,-18,18.757529977304213,12.624752934235755
0.01037674626396453,0.6917939999999999,621,-18,18.757529977304213,12.624752934235755
0.01729441514960373,0.6917904718838589,621,-18,18.757529977304213,12.624752934235755
0.024211918273097606,0.6917835540743359,621,-18,18.757529977304213,12.624752934235755
0.031129247423221432,0.6917766364058031,621,-18,18.757529977304213,12.624752934235755
0.03804641066600794,0.6917697189033714,621,-18,18.757529977304213,12.624752934235755
0.044963415447159746,0.6917628015749131,621,-18,18.757529977304213,12.624752934235755
0.05188026863962517,0.691755884412362,621,-18,18.757529977304213,12.624752934235755
0.05879697658759035,0.6917489674082726,621,-18,18.757529977304213,12.624752934235755
0.06571354514716293,0.6917420505557719,621,-18,18.757529977304213,12.624752934235755
0.0726299797239256,0.6917351338485156,621,-18,18.757529977304213,12.624752934235755
0.07954628530760026,0.6917282172806477,621,-18,18.757529977304213,12.624752934235755
0.0864624665040449,0.6917213008467626,621,-18,18.757529977304213,12.624752934235755
0.09337852756478877,0.6917143845418706,621,-18,18.757529977304213,12.624752934235755
0.10029447241429493,0.6917074683613658,621,-18,18.757529977304213,12.624752934235755
0.10721030467512524,0.6917005523009967,621,-18,18.757529977304213,12.624752934235755
0.11412602769116922,0.6916936363568388,621,-18,18.757529977304213,12.624752934235755
0.12104164454908543,0.6916867205252696,621,-18,18.757529977304213,12.624752934235755
0.12795715809809322,0.6916798048029451,621,-18,18.757529977304213,12.624752934235755
0.13487257096824165,0.6916728891867787,621,-18,18.757529977304213,12.624752934235755
0.141787885587273,0.6916659736739214,621,-18,18.757529977304213,12.624752934235755
0.1487031041961883,0.6916590582617428,621,-18,18.757529977304213,12.624752934235755
0.15561822886361562,0.6916521429478153,621,-18,18.757529977304213,12.624752934235755
0.16253326149907277,0.6916452277298979,621,-18,18.757529977304213,12.624752934235755
0.16944820386520942,0.691638312605922,621,-18,18.757529977304213,12.624752934235755
0.1763630575891073,0.6916313975739781,621,-18,18.757529977304213,12.624752934235755
0.18327782417271118,0.6916244826323035,621,-18,18.757529977304213,12.624752934235755
0.19019250500245702,0.6916175677792711,621,-18,18.757529977304213,12.624752934235755
0.19710710135815926,0.691610653013379,621,-18,18.757529977304213,12.624752934235755
0.20402161442121466,0.6916037383332406,621,-18,18.757529977304213,12.624752934235755
0.21093604528217477,0.6915968237375765,621,-18,18.757529977304213,12.624752934235755
0.2178503949477353,0.6915899092252049,621,-18,18.757529977304213,12.624752934235755
0.2247646643471885,0.6915829947950354,621,-18,18.757529977304213,12.624752934235755
0.23167885433837862,0.6915760804460612,621,-18,18.757529977304213,12.624752934235755
0.23859296571319918,0.6915691661773532,621,-18,18.757529977304213,12.624752934235755
0.24550699920266728,0.6915622519880534,621,-18,18.757529977304213,12.624752934235755
0.25242095548160753,0.6915553378773701,621,-18,18.757529977304213,12.624752934235755
0.25933483517297584,0.691548423844572,621,-18,18.757529977304213,12.624752934235755
0.2662486388518501,0.6915415098889846,621,-18,18.757529977304213,12.624752934235755
0.27316236704911345,0.6915345960099846,621,-18,18.757529977304213,12.624752934235755
0.2800760202548558,0.6915276822069971,621,-18,18.757529977304213,12.624752934235755
0.2869895989215118,0.6915207684794912,621,-18,18.757529977304213,12.624752934235755
0.293903103466758,0.6915138548269768,621,-18,18.757529977304213,12.624752934235755
0.3008165342761877,0.6915069412490016,621,-18,18.757529977304213,12.624752934235755
0.307729891705779,0.6915000277451476,621,-18,18.757529977304213,12.624752934235755
0.31464317608417386,0.6914931143150296,621,-18,18.757529977304213,12.624752934235755
0.321556387714781,0.6914862009582914,621,-18,18.757529977304213,12.624752934235755
0.3284695268777175,0.6914792876746043,621,-18,18.757529977304213,12.624752934235755
0.33538259383160113,0.691472374463665,621,-18,18.757529977304213,12.624752934235755
0.3422955888152044,0.6914654613251934,621,-18,18.757529977304213,12.624752934235755
0.3492085120489811,0.6914585482589308,621,-18,18.757529977304213,12.624752934235755
0.35612136373647646,0.6914516352646386,621,-18,18.757529977304213,12.624752934235755
0.36303414406562773,0.6914447223420961,621,-18,18.757529977304213,12.624752934235755
0.36994685320996507,0.6914378094910999,621,-18,18.757529977304213,12.624752934235755
0.37685949132971996,0.6914308967114621,621,-18,18.757529977304213,12.624752934235755
0.38377205857284885,0.691423984003009,621,-18,18.757529977304213,12.624752934235755
0.39068455507597716,0.6914170713655805,621,-18,18.757529977304213,12.624752934235755
0.39759698096527146,0.6914101587990287,621,-18,18.757529977304213,12.624752934235755
0.4045093363572438,0.6914032463032168,621,-18,18.757529977304213,12.624752934235755
0.41142162135949484,0.6913963338780188,621,-18,18.757529977304213,12.624752934235755
0.4183338360713996,0.6913894215233181,621,-18,18.757529977304213,12.624752934235755
0.42524598058473995,0.691382509239007,621,-18,18.757529977304213,12.624752934235755
0.43215805498428916,0.6913755970249864,621,-18,18.757529977304213,12.624752934235755
0.43907005934835114,0.6913686848811642,621,-18,18.757529977304213,12.624752934235755
0.44598199374925795,0.6913617728074559,621,-18,18.757529977304213,12.624752934235755
0.4528938582538297,0.6913548608037831,621,-18,18.757529977304213,12.624752934235755
0.4598056529237983,0.6913479488700733,621,-18,18.757529977304213,12.624752934235755
0.4667173778161989,0.69134103700626,621,-18,18.757529977304213,12.624752934235755
0.4736290329837315,0.6913341252122812,621,-18,18.757529977304213,12.624752934235755
0.48054061847509466,0.69132721348808,621,-18,18.757529977304213,12.624752934235755
0.48745213433529283,0.6913203018336036,621,-18,18.757529977304213,12.624752934235755
0.49436358060592106,0.6913133902488034,621,-18,18.757529977304213,12.624752934235755
0.5012749573254272,0.6913064787336344,621,-18,18.757529977304213,12.624752934235755
0.5081862645293539,0.691299567288055,621,-18,18.757529977304213,12.624752934235755
0.5150975022505622,0.6912926559120266,621,-18,18.757529977304213,12.624752934235755
0.5220086705194379,0.6912857446055138,621,-18,18.757529977304213,12.624752934235755
0.5289197693640825,0.6912788333684837,621,-18,18.757529977304213,12.624752934235755
0.5358307988104876,0.691271922200906,621,-18,18.757529977304213,12.624752934235755
0.5427417588826989,0.6912650111027525,621,-18,18.757529977304213,12.624752934235755
0.5496526496029649,0.6912581000739972,621,-18,18.757529977304213,12.624752934235755
0.556563470991875,0.6912511891146161,621,-18,18.757529977304213,12.624752934235755
0.563474223068488,0.6912442782245869,621,-18,18.757529977304213,12.624752934235755
0.5703849058504494,0.6912373674038891,621,-18,18.757529977304213,12.624752934235755
0.5772955193541,0.6912304566525036,621,-18,18.757529977304213,12.624752934235755
0.5842060635945766,0.6912235459704127,621,-18,18.757529977304213,12.624752934235755
0.5911165385859043,0.6912166353576001,621,-18,18.757529977304213,12.624752934235755
0.5980269443410824,0.6912097248140507,621,-18,18.757529977304213,12.624752934235755
0.6049372808721631,0.6912028143397505,621,-18,18.757529977304213,12.624752934235755
0.6118475481903247,0.6911959039346863,621,-18,18.757529977304213,12.624752934235755
0.6187577463059377,0.6911889935988463,621,-18,18.757529977304213,12.624752934235755
0.6256678752286289,0.6911820833322192,621,-18,18.757529977304213,12.624752934235755
0.6325779349673369,0.6911751731347946,621,-18,18.757529977304213,12.624752934235755
0.6394879255303658,0.691168263006563,621,-18,18.757529977304213,12.624752934235755
0.6463978469254339,0.6911613529475152,621,-18,18.757529977304213,12.624752934235755
0.6533076991597189,0.6911544429576433,621,-18,18.757529977304213,12.624752934235755
0.6602174822398991,0.6911475330369392,621,-18,18.757529977304213,12.624752934235755
0.6671271961721924,0.6911406231853959,621,-18,18.757529977304213,12.624752934235755
0.6740368409623912,0.6911337134030067,621,-18,18.757529977304213,12.624752934235755
0.6809464166158956,0.6911268036897654,621,-18,18.757529977304213,12.624752934235755
0.6878559231377431,0.6911198940456662,621,-18,18.757529977304213,12.624752934235755
0.6947653605326368,0.6911129844707037,621,-18,18.757529977304213,12.624752934235755
0.7016747288049713,0.6911060749648728,621,-18,18.757529977304213,12.624752934235755
0.7085840279588554,0.6910991655281689,621,-18,18.757529977304213,12.624752934235755
0.7154932579981362,0.6910922561605874,621,-18,18.757529977304213,12.624752934235755
0.7224024189264171,0.6910853468621245,621,-18,18.757529977304213,12.624752934235755
0.729311510747077,0.6910784376327762,621,-18,18.757529977304213,12.624752934235755
0.7362205334632891,0.6910715284725388,621,-18,18.757529977304213,12.624752934235755
0.7431294870780345,0.6910646193814091,621,-18,18.757529977304213,12.624752934235755
0.7500383715941186,0.6910577103593838,621,-18,18.757529977304213,12.624752934235755
0.7569471870141837,0.6910508014064599,621,-18,18.757529977304213,12.624752934235755
0.7638559333407225,0.6910438925226348,621,-18,18.757529977304213,12.624752934235755
0.7707646105760886,0.6910369837079056,621,-18,18.757529977304213,12.624752934235755
0.7776732187225079,0.69103007496227,621,-18,18.757529977304213,12.624752934235755
0.7845817577820879,0.6910231662857255,621,-18,18.757529977304213,12.624752934235755
0.7914902277568272,0.6910162576782699,621,-18,18.757529977304213,12.624752934235755
0.7983986286486238,0.6910093491399012,621,-18,18.757529977304213,12.624752934235755
0.8053069604592826,0.6910024406706173,621,-18,18.757529977304213,12.624752934235755
0.8122152231905229,0.6909955322704163,621,-18,18.757529977304213,12.624752934235755
0.8191234168439846,0.6909886239392966,621,-18,18.757529977304213,12.624752934235755
0.8260315414212349,0.6909817156772562,621,-18,18.757529977304213,12.624752934235755
0.8329395969237737,0.6909748074842935,621,-18,18.757529977304213,12.624752934235755
0.8398475833530381,0.6909678993604071,621,-18,18.757529977304213,12.624752934235755
0.8467555007104077,0.6909609913055954,621,-18,18.757529977304213,12.624752934235755
0.8536633489972096,0.690954083319857,621,-18,18.757529977304213,12.624752934235755
0.8605711282147218,0.6909471754031904,621,-18,18.757529977304213,12.624752934235755
0.8674788383641766,0.6909402675555943,621,-18,18.757529977304213,12.624752934235755
0.8743864794467648,0.6909333597770676,621,-18,18.757529977304213,12.624752934235755
0.8812940514636394,0.6909264520676089,621,-18,18.757529977304213,12.624752934235755
0.8882015544159165,0.6909195444272171,621,-18,18.757529977304213,12.624752934235755
0.8951089883046808,0.6909126368558911,621,-18,18.757529977304213,12.624752934235755
0.9020163531309857,0.6909057293536296,621,-18,18.757529977304213,12.624752934235755
0.9089236488958572,0.6908988219204315,621,-18,18.757529977304213,12.624752934235755
0.9158308756002951,0.690891914556296,621,-18,18.757529977304213,12.624752934235755
0.9227380332452756,0.6908850072612218,621,-18,18.757529977304213,12.624752934235755
0.9296451218317529,0.6908781000352081,621,-18,18.757529977304213,12.624752934235755
0.9365521413606605,0.6908711928782539,621,-18,18.757529977304213,12.624752934235755
0.9434590918329139,0.6908642857903582,621,-18,18.757529977304213,12.624752934235755
0.9503659732494107,0.69085737877152,621,-18,18.757529977304213,12.624752934235755
0.9572727856110331,0.6908504718217384,621,-18,18.757529977304213,12.624752934235755
0.9641795289186478,0.6908435649410126,621,-18,18.757529977304213,12.624752934235755
0.9710862031731086,0.6908366581293417,621,-18,18.757529977304213,12.624752934235755
0.9779928083752563,0.6908297513867248,621,-18,18.757529977304213,12.624752934235755
0.9848993445259203,0.690822844713161,621,-18,18.757529977304213,12.624752934235755
0.9918058116259193,0.6908159381086495,621,-18,18.757529977304213,12.624752934235755
0.998712209676062,0.6908090315731895,621,-18,18.757529977304213,12.624752934235755
1.005618538677148,0.6908021251067802,621,-18,18.757529977304213,12.624752934235755
1.0125247986299688,0.6907952187094207,621,-18,18.757529977304213,12.624752934235755
1.019430989535307,0.6907883123811103,621,-18,18.757529977304213,12.624752934235755
1.0263371113939403,0.690781406121848,621,-18,18.757529977304213,12.624752934235755
1.0332431642066373,0.6907744999316333,621,-18,18.757529977304213,12.624752934235755
1.0401491479741618,0.6907675938104654,621,-18,18.757529977304213,12.624752934235755
1.0470550626972719,0.6907606877583433,621,-18,18.757529977304213,12.624752934235755
1.05396090837672,0.6907537817752664,621,-18,18.757529977304213,12.624752934235755
1.0608666850132542,0.6907468758612338,621,-18,18.757529977304213,12.624752934235755
1.0677723926076181,0.690739970016245,621,-18,18.757529977304213,12.624752934235755
1.0746780311605504,0.6907330642402991,621,-18,18.757529977304213,12.624752934235755
1.0815836006727872,0.6907261585333953,621,-18,18.757529977304213,12.624752934235755
1.0884891011450604,0.6907192528955329,621,-18,18.757529977304213,12.624752934235755
1.095394532578099,0.6907123473267113,621,-18,18.757529977304213,12.624752934235755
1.1022998949726286,0.6907054418269296,621,-18,18.757529977304213,12.624752934235755
1.1092051883293725,0.6906985363961871,621,-18,18.757529977304213,12.624752934235755
1.1161104126490515,0.6906916310344831,621,-18,18.757529977304213,12.624752934235755
1.1230155679323834,0.6906847257418169,621,-18,18.757529977304213,12.624752934235755
1.1299206541800846,0.6906778205181877,621,-18,18.757529977304213,12.624752934235755
1.1368256713928688,0.6906709153635949,621,-18,18.757529977304213,12.624752934235755
1.1437306195714487,0.6906640102780378,621,-18,18.757529977304213,12.624752934235755
1.1506354987165341,0.6906571052615155,621,-18,18.757529977304213,12.624752934235755
1.157540308828835,0.6906502003140275,621,-18,18.757529977304213,12.624752934235755
1.164445049909058,0.6906432954355729,621,-18,18.757529977304213,12.624752934235755
1.1713497219579097,0.690636390626151,621,-18,18.757529977304213,12.624752934235755
1.178254324976095,0.6906294858857613,621,-18,18.757529977304213,12.624752934235755
1.1851588589643176,0.6906225812144029,621,-18,18.757529977304213,12.624752934235755
1.1920633239232803,0.6906156766120752,621,-18,18.757529977304213,12.624752934235755
1.1989677198536846,0.6906087720787775,621,-18,18.757529977304213,12.624752934235755
1.2058720467562312,0.6906018676145089,621,-18,18.757529977304213,12.624752934235755
1.212776304631621,0.690594963219269,621,-18,18.757529977304213,12.624752934235755
1.2196804934805523,0.690588058893057,621,-18,18.757529977304213,12.624752934235755
1.2265846133037244,0.690581154635872,621,-18,18.757529977304213,12.624752934235755
1.2334886641018343,0.6905742504477135,621,-18,18.757529977304213,12.624752934235755
1.24039264587558,0.6905673463285807,621,-18,18.757529977304213,12.624752934235755
1.2472965586256581,0.690560442278473,621,-18,18.757529977304213,12.624752934235755
1.2542004023527646,0.6905535382973897,621,-18,18.757529977304213,12.624752934235755
1.2611041770575953,0.69054663438533,621,-18,18.757529977304213,12.624752934235755
1.2680078827408452,0.6905397305422933,621,-18,18.757529977304213,12.624752934235755
1.27491151940321,0.6905328267682789,621,-18,18.757529977304213,12.624752934235755
1.281815087045383,0.690525923063286,621,-18,18.757529977304213,12.624752934235755
1.2887185856680596,0.690519019427314,621,-18,18.757529977304213,12.624752934235755
1.2956220152719322,0.6905121158603622,621,-18,18.757529977304213,12.624752934235755
1.302525375857696,0.6905052123624299,621,-18,18.757529977304213,12.624752934235755
1.309428667426043,0.6904983089335164,621,-18,18.757529977304213,12.624752934235755
1.3163318899776664,0.690491405573621,621,-18,18.757529977304213,12.624752934235755
1.3232350435132594,0.6904845022827429,621,-18,18.757529977304213,12.624752934235755
1.330138128033514,0.6904775990608817,621,-18,18.757529977304213,12.624752934235755
1.3370411435391225,0.6904706959080364,621,-18,18.757529977304213,12.624752934235755
1.3439440900307775,0.6904637928242064,621,-18,18.757529977304213,12.624752934235755
1.350846967509171,0.6904568898093912,621,-18,18.757529977304213,12.624752934235755
1.3577497759749946,0.6904499868635898,621,-18,18.757529977304213,12.624752934235755
1.36465251542894,0.6904430839868018,621,-18,18.757529977304213,12.624752934235755
1.3715551858716986,0.6904361811790263,621,-18,18.757529977304213,12.624752934235755
1.3784577873039618,0.6904292784402626,621,-18,18.757529977304213,12.624752934235755
1.385360319726421,0.6904223757705101,621,-18,18.757529977304213,12.624752934235755
1.3922627831397674,0.6904154731697681,621,-18,18.757529977304213,12.624752934235755
1.3991651775446918,0.690408570638036,621,-18,18.757529977304213,12.624752934235755
1.4060675029418859,0.6904016681753128,621,-18,18.757529977304213,12.624752934235755
1.4129697593320398,0.6903947657815982,621,-18,18.757529977304213,12.624752934235755
1.4198719467158445,0.6903878634568912,621,-18,18.757529977304213,12.624752934235755
1.4267740650939915,0.6903809612011913,621,-18,18.757529977304213,12.624752934235755
1.4336761144671701,0.6903740590144977,621,-18,18.757529977304213,12.624752934235755
1.4405780948360716,0.6903671568968098,621,-18,18.757529977304213,12.624752934235755
1.4474800062013868,0.6903602548481268,621,-18,18.757529977304213,12.624752934235755
1.4543818485638056,0.6903533528684481,621,-18,18.757529977304213,12.624752934235755
1.4612836219240188,0.690346450957773,621,-18,18.757529977304213,12.624752934235755
1.4681853262827165,0.6903395491161008,621,-18,18.757529977304213,12.624752934235755
1.4750869616405893,0.6903326473434308,621,-18,18.757529977304213,12.624752934235755
1.4819885279983276,0.6903257456397622,621,-18,18.757529977304213,12.624752934235755
1.488890025356621,0.6903188440050946,621,-18,18.757529977304213,12.624752934235755
1.4957914537161603,0.6903119424394271,621,-18,18.757529977304213,12.624752934235755
1.5026928130776351,0.6903050409427589,621,-18,18.757529977304213,12.624752934235755
1.5095941034417366,0.6902981395150896,621,-18,18.757529977304213,12.624752934235755
1.516495324809154,0.6902912381564181,621,-18,18.757529977304213,12.624752934235755
1.5233964771805777,0.6902843368667442,621,-18,18.757529977304213,12.624752934235755
1.5302975605566973,0.6902774356460669,621,-18,18.757529977304213,12.624752934235755
1.5371985749382033,0.6902705344943857,621,-18,18.757529977304213,12.624752934235755
1.5440995203257855,0.6902636334116996,621,-18,18.757529977304213,12.624752934235755
1.551000396720134,0.6902567323980082,621,-18,18.757529977304213,12.624752934235755
1.5579012041219382,0.6902498314533108,621,-18,18.757529977304213,12.624752934235755
1.5648019425318889,0.6902429305776066,621,-18,18.757529977304213,12.624752934235755
1.5717026119506756,0.6902360297708948,621,-18,18.757529977304213,12.624752934235755
1.5786032123789884,0.690229129033175,621,-18,18.757529977304213,12.624752934235755
1.5855037438175166,0.6902222283644462,621,-18,18.757529977304213,12.624752934235755
1.592404206266951,0.6902153277647081,621,-18,18.757529977304213,12.624752934235755
1.5993045997279804,0.6902084272339596,621,-18,18.757529977304213,12.624752934235755
1.6062049242012955,0.6902015267722001,621,-18,18.757529977304213,12.624752934235755
1.6131051796875853,0.6901946263794292,621,-18,18.757529977304213,12.624752934235755
