Vout,Iout,Irradiance,Temperature,MaxVoltage,MaxPower
0.003763223815155623,0.7526519999999999,621,31,22.359689852065177,16.329434433595964
0.011289601859896775,0.7526519999999999,621,31,22.359689852065177,16.329434433595964
0.018815826895260068,0.7526481615109847,621,31,22.359689852065177,16.329434433595964
0.026341871586170823,0.75264063513294,621,31,22.359689852065177,16.329434433595964
0.03386772699905239,0.7526331089082885,621,31,22.359689852065177,16.329434433595964
0.04139340190951672,0.7526255828643502,621,31,22.359689852065177,16.329434433595964
0.04891890441827432,0.75261805700969,621,31,22.359689852065177,16.329434433595964
0.0564442420028956,0.752610531335532,621,31,22.359689852065177,16.329434433595964
0.06396942156567281,0.7526030058337759,621,31,22.359689852065177,16.329434433595964
0.07149444947788283,0.7525954804969438,621,31,22.359689852065177,16.329434433595964
0.07901933162064438,0.7525879553181336,621,31,22.359689852065177,16.329434433595964
0.08654407342263153,0.752580430290974,621,31,22.359689852065177,16.329434433595964
0.09406867989488549,0.7525729054095837,621,31,22.359689852065177,16.329434433595964
0.1015931556629479,0.7525653806685342,621,31,22.359689852065177,16.329434433595964
0.10911750499652188,0.7525578560628144,621,31,22.359689852065177,16.329434433595964
0.11664173183685078,0.7525503315877988,621,31,22.359689852065177,16.329434433595964
0.12416583982199017,0.7525428072392177,621,31,22.359689852065177,16.329434433595964
0.131689832310136,0.7525352830131299,621,31,22.359689852065177,16.329434433595964
0.139213712401157,0.7525277589058972,621,31,22.359689852065177,16.329434433595964
0.14673748295647113,0.7525202349141614,621,31,22.359689852065177,16.329434433595964
0.1542611466173921,0.7525127110348229,621,31,22.359689852065177,16.329434433595964
0.16178470582206475,0.7525051872650199,621,31,22.359689852065177,16.329434433595964
0.169308162821097,0.7524976636021113,621,31,22.359689852065177,16.329434433595964
0.17683151969198932,0.7524901400436591,621,31,22.359689852065177,16.329434433595964
0.18435477835245395,0.7524826165874124,621,31,22.359689852065177,16.329434433595964
0.1918779405727091,0.7524750932312939,621,31,22.359689852065177,16.329434433595964
0.1994010079868275,0.7524675699733858,621,31,22.359689852065177,16.329434433595964
0.20692398210321164,0.7524600468119178,621,31,22.359689852065177,16.329434433595964
0.21444686431426288,0.7524525237452561,621,31,22.359689852065177,16.329434433595964
0.22196965590530704,0.752445000771892,621,31,22.359689852065177,16.329434433595964
0.22949235806283275,0.7524374778904332,621,31,22.359689852065177,16.329434433595964
0.23701497188209605,0.7524299550995945,621,31,22.359689852065177,16.329434433595964
0.24453749837414032,0.7524224323981893,621,31,22.359689852065177,16.329434433595964
0.25205993847227537,0.7524149097851223,621,31,22.359689852065177,16.329434433595964
0.2595822930380586,0.7524073872593825,621,31,22.359689852065177,16.329434433595964
0.2671045628668156,0.7523998648200366,621,31,22.359689852065177,16.329434433595964
0.2746267486927363,0.7523923424662231,621,31,22.359689852065177,16.329434433595964
0.2821488511935787,0.7523848201971466,621,31,22.359689852065177,16.329434433595964
0.2896708709950109,0.7523772980120729,621,31,22.359689852065177,16.329434433595964
0.2971928086746188,0.7523697759103243,621,31,22.359689852065177,16.329434433595964
0.30471466476560605,0.7523622538912751,621,31,22.359689852065177,16.329434433595964
0.3122364397602084,0.7523547319543477,621,31,22.359689852065177,16.329434433595964
0.31975813411284615,0.7523472100990088,621,31,22.359689852065177,16.329434433595964
0.32727974824303363,0.7523396883247665,621,31,22.359689852065177,16.329434433595964
0.3348012825380648,0.752332166631166,621,31,22.359689852065177,16.329434433595964
0.34232273735549246,0.7523246450177881,621,31,22.359689852065177,16.329434433595964
0.3498441130254169,0.7523171234842452,621,31,22.359689852065177,16.329434433595964
0.3573654098525974,0.7523096020301799,621,31,22.359689852065177,16.329434433595964
0.36488662811840267,0.7523020806552622,621,31,22.359689852065177,16.329434433595964
0.37240776808261,0.7522945593591871,621,31,22.359689852065177,16.329434433595964
0.3799288299850673,0.7522870381416734,621,31,22.359689852065177,16.329434433595964
0.38744981404722567,0.7522795170024613,621,31,22.359689852065177,16.329434433595964
0.39497072047355547,0.752271995941311,621,31,22.359689852065177,16.329434433595964
0.40249154945285237,0.752264474958001,621,31,22.359689852065177,16.329434433595964
0.41001230115944387,0.7522569540523267,621,31,22.359689852065177,16.329434433595964
0.4175329757543022,0.7522494332240995,621,31,22.359689852065177,16.329434433595964
0.425053573386072,0.752241912473145,621,31,22.359689852065177,16.329434433595964
0.43257409419201864,0.7522343917993023,621,31,22.359689852065177,16.329434433595964
0.44009453829890416,0.7522268712024226,621,31,22.359689852065177,16.329434433595964
0.447614905823795,0.7522193506823687,621,31,22.359689852065177,16.329434433595964
0.45513519687480797,0.7522118302390138,621,31,22.359689852065177,16.329434433595964
0.46265541155179934,0.752204309872241,621,31,22.359689852065177,16.329434433595964
0.4701755499470001,0.752196789581942,621,31,22.359689852065177,16.329434433595964
0.4776956121456025,0.7521892693680171,621,31,22.359689852065177,16.329434433595964
0.485215598226302,0.752181749230374,621,31,22.359689852065177,16.329434433595964
0.4927355082617966,0.7521742291689273,621,31,22.359689852065177,16.329434433595964
0.5002553423192488,0.7521667091835986,621,31,22.359689852065177,16.329434433595964
0.5077751004607116,0.7521591892743151,621,31,22.359689852065177,16.329434433595964
0.5152947827435208,0.7521516694410098,621,31,22.359689852065177,16.329434433595964
0.522814389220659,0.7521441496836202,621,31,22.359689852065177,16.329434433595964
0.5303339199410901,0.7521366300020894,621,31,22.359689852065177,16.329434433595964
0.537853374950068,0.7521291103963642,621,31,22.359689852065177,16.329434433595964
0.5453727542894228,0.7521215908663957,621,31,22.359689852065177,16.329434433595964
0.5528920579978241,0.7521140714121388,621,31,22.359689852065177,16.329434433595964
0.5604112861110238,0.7521065520335514,621,31,22.359689852065177,16.329434433595964
0.5679304386620808,0.7520990327305949,621,31,22.359689852065177,16.329434433595964
0.5754495156815683,0.7520915135032337,621,31,22.359689852065177,16.329434433595964
0.582968517197765,0.7520839943514345,621,31,22.359689852065177,16.329434433595964
0.5904874432368316,0.752076475275167,621,31,22.359689852065177,16.329434433595964
0.5980062938229737,0.7520689562744026,621,31,22.359689852065177,16.329434433595964
0.6055250689785923,0.7520614373491156,621,31,22.359689852065177,16.329434433595964
0.6130437687244225,0.7520539184992813,621,31,22.359689852065177,16.329434433595964
0.6205623930796623,0.7520463997248775,621,31,22.359689852065177,16.329434433595964
0.6280809420620901,0.7520388810258836,621,31,22.359689852065177,16.329434433595964
0.6355994156881741,0.7520313624022802,621,31,22.359689852065177,16.329434433595964
0.6431178139731736,0.7520238438540496,621,31,22.359689852065177,16.329434433595964
0.6506361369312309,0.7520163253811755,621,31,22.359689852065177,16.329434433595964
0.6581543845754588,0.7520088069836424,621,31,22.359689852065177,16.329434433595964
0.6656725569180187,0.7520012886614361,621,31,22.359689852065177,16.329434433595964
0.6731906539701937,0.7519937704145437,621,31,22.359689852065177,16.329434433595964
0.6807086757424574,0.751986252242953,621,31,22.359689852065177,16.329434433595964
0.6882266222445348,0.7519787341466526,621,31,22.359689852065177,16.329434433595964
0.6957444934854603,0.7519712161256322,621,31,22.359689852065177,16.329434433595964
0.7032622894736315,0.751963698179882,621,31,22.359689852065177,16.329434433595964
0.710780010216857,0.7519561803093928,621,31,22.359689852065177,16.329434433595964
0.7182976557224032,0.7519486625141564,621,31,22.359689852065177,16.329434433595964
0.7258152259970345,0.751941144794165,621,31,22.359689852065177,16.329434433595964
0.7333327210470535,0.7519336271494113,621,31,22.359689852065177,16.329434433595964
0.7408501408783348,0.7519261095798884,621,31,22.359689852065177,16.329434433595964
0.7483674854963595,0.7519185920855901,621,31,22.359689852065177,16.329434433595964
0.7558847549062437,0.7519110746665106,621,31,22.359689852065177,16.329434433595964
0.7634019491127692,0.7519035573226444,621,31,22.359689852065177,16.329434433595964
0.7709190681204063,0.7518960400539861,621,31,22.359689852065177,16.329434433595964
0.7784361119333403,0.7518885228605314,621,31,22.359689852065177,16.329434433595964
0.7859530805554913,0.7518810057422755,621,31,22.359689852065177,16.329434433595964
0.7934699739905361,0.7518734886992142,621,31,22.359689852065177,16.329434433595964
0.8009867922419266,0.7518659717313438,621,31,22.359689852065177,16.329434433595964
0.8085035353129063,0.7518584548386604,621,31,22.359689852065177,16.329434433595964
0.8160202032065275,0.7518509380211608,621,31,22.359689852065177,16.329434433595964
0.823536795925665,0.7518434212788415,621,31,22.359689852065177,16.329434433595964
0.8310533134730305,0.7518359046116996,621,31,22.359689852065177,16.329434433595964
0.8385697558511848,0.7518283880197321,621,31,22.359689852065177,16.329434433595964
0.8460861230625496,0.7518208715029364,621,31,22.359689852065177,16.329434433595964
0.8536024151094176,0.7518133550613099,621,31,22.359689852065177,16.329434433595964
0.8611186319939634,0.7518058386948502,621,31,22.359689852065177,16.329434433595964
0.868634773718252,0.7517983224035549,621,31,22.359689852065177,16.329434433595964
0.8761508402842471,0.751790806187422,621,31,22.359689852065177,16.329434433595964
0.8836668316938191,0.7517832900464494,621,31,22.359689852065177,16.329434433595964
0.8911827479487525,0.751775773980635,621,31,22.359689852065177,16.329434433595964
0.8986985890507523,0.751768257989977,621,31,22.359689852065177,16.329434433595964
0.9062143550014499,0.7517607420744737,621,31,22.359689852065177,16.329434433595964
0.9137300458024087,0.7517532262341233,621,31,22.359689852065177,16.329434433595964
0.9212456614551305,0.7517457104689242,621,31,22.359689852065177,16.329434433595964
0.9287612019610589,0.7517381947788748,621,31,22.359689852065177,16.329434433595964
0.9362766673215837,0.7517306791639737,621,31,22.359689852065177,16.329434433595964
0.9437920575380461,0.7517231636242193,621,31,22.359689852065177,16.329434433595964
0.9513073726117419,0.7517156481596103,621,31,22.359689852065177,16.329434433595964
0.958822612543925,0.7517081327701455,621,31,22.359689852065177,16.329434433595964
0.9663377773358099,0.7517006174558233,621,31,22.359689852065177,16.329434433595964
0.9738528669885768,0.7516931022166427,621,31,22.359689852065177,16.329434433595964
0.9813678815033716,0.7516855870526024,621,31,22.359689852065177,16.329434433595964
0.9888828208813106,0.7516780719637011,621,31,22.359689852065177,16.329434433595964
0.9963976851234816,0.7516705569499378,621,31,22.359689852065177,16.329434433595964
1.0039124742309469,0.7516630420113114,621,31,22.359689852065177,16.329434433595964
1.011427188204744,0.7516555271478207,621,31,22.359689852065177,16.329434433595964
1.0189418270458896,0.7516480123594648,621,31,22.359689852065177,16.329434433595964
1.0264563907553788,0.7516404976462424,621,31,22.359689852065177,16.329434433595964
1.0339708793341886,0.7516329830081527,621,31,22.359689852065177,16.329434433595964
1.0414852927832787,0.7516254684451947,621,31,22.359689852065177,16.329434433595964
1.048999631103592,0.7516179539573674,621,31,22.359689852065177,16.329434433595964
1.0565138942960575,0.7516104395446698,621,31,22.359689852065177,16.329434433595964
1.0640280823615897,0.7516029252071009,621,31,22.359689852065177,16.329434433595964
1.0715421953010915,0.7515954109446599,621,31,22.359689852065177,16.329434433595964
1.079056233115453,0.7515878967573457,621,31,22.359689852065177,16.329434433595964
1.0865701958055543,0.7515803826451577,621,31,22.359689852065177,16.329434433595964
1.0940840833722656,0.7515728686080948,621,31,22.359689852065177,16.329434433595964
1.1015978958164476,0.751565354646156,621,31,22.359689852065177,16.329434433595964
1.1091116331389521,0.7515578407593407,621,31,22.359689852065177,16.329434433595964
1.1166252953406246,0.751550326947648,621,31,22.359689852065177,16.329434433595964
1.1241388824223022,0.7515428132110769,621,31,22.359689852065177,16.329434433595964
1.1316523943848154,0.7515352995496266,621,31,22.359689852065177,16.329434433595964
1.1391658312289887,0.7515277859632963,621,31,22.359689852065177,16.329434433595964
1.1466791929556417,0.7515202724520851,621,31,22.359689852065177,16.329434433595964
1.1541924795655873,0.7515127590159922,621,31,22.359689852065177,16.329434433595964
1.1617056910596346,0.751505245655017,621,31,22.359689852065177,16.329434433595964
1.1692188274385882,0.7514977323691584,621,31,22.359689852065177,16.329434433595964
1.1767318887032476,0.7514902191584156,621,31,22.359689852065177,16.329434433595964
1.1842448748544105,0.7514827060227881,621,31,22.359689852065177,16.329434433595964
1.1917577858928687,0.7514751929622747,621,31,22.359689852065177,16.329434433595964
1.1992706218194127,0.7514676799768749,621,31,22.359689852065177,16.329434433595964
1.2067833826348289,0.7514601670665877,621,31,22.359689852065177,16.329434433595964
1.2142960683399016,0.7514526542314125,621,31,22.359689852065177,16.329434433595964
1.221808678935412,0.7514451414713483,621,31,22.359689852065177,16.329434433595964
1.2293212144221386,0.7514376287863945,621,31,22.359689852065177,16.329434433595964
1.236833674800859,0.7514301161765503,621,31,22.359689852065177,16.329434433595964
1.244346060072348,0.7514226036418149,621,31,22.359689852065177,16.329434433595964
1.2518583702373784,0.7514150911821874,621,31,22.359689852065177,16.329434433595964
1.2593706052967215,0.7514075787976672,621,31,22.359689852065177,16.329434433595964
1.2668827652511474,0.7514000664882534,621,31,22.359689852065177,16.329434433595964
1.2743948501014242,0.7513925542539452,621,31,22.359689852065177,16.329434433595964
1.2819068598483188,0.7513850420947421,621,31,22.359689852065177,16.329434433595964
1.2894187944925966,0.751377530010643,621,31,22.359689852065177,16.329434433595964
1.2969306540350227,0.7513700180016474,621,31,22.359689852065177,16.329434433595964
1.3044424384763604,0.7513625060677542,621,31,22.359689852065177,16.329434433595964
1.3119541478173722,0.751354994208963,621,31,22.359689852065177,16.329434433595964
1.3194657820588194,0.7513474824252729,621,31,22.359689852065177,16.329434433595964
1.3269773412014634,0.7513399707166831,621,31,22.359689852065177,16.329434433595964
1.3344888252460636,0.7513324590831928,621,31,22.359689852065177,16.329434433595964
1.342000234193379,0.7513249475248014,621,31,22.359689852065177,16.329434433595964
1.349511568044169,0.7513174360415079,621,31,22.359689852065177,16.329434433595964
1.3570228267991908,0.7513099246333117,621,31,22.359689852065177,16.329434433595964
1.3645340104592028,0.7513024133002121,621,31,22.359689852065177,16.329434433595964
1.3720451190249612,0.7512949020422082,621,31,22.359689852065177,16.329434433595964
1.3795561524972222,0.7512873908592993,621,31,22.359689852065177,16.329434433595964
1.387067110876743,0.7512798797514847,621,31,22.359689852065177,16.329434433595964
1.3945779941642777,0.7512723687187636,621,31,22.359689852065177,16.329434433595964
1.4020888023605824,0.7512648577611352,621,31,22.359689852065177,16.329434433595964
1.4095995354664124,0.7512573468785987,621,31,22.359689852065177,16.329434433595964
1.4171101934825212,0.7512498360711535,621,31,22.359689852065177,16.329434433595964
1.4246207764096634,0.7512423253387988,621,31,22.359689852065177,16.329434433595964
1.4321312842485934,0.7512348146815337,621,31,22.359689852065177,16.329434433595964
1.439641717000064,0.7512273040993577,621,31,22.359689852065177,16.329434433595964
1.4471520746648292,0.7512197935922699,621,31,22.359689852065177,16.329434433595964
1.4546623572436421,0.7512122831602694,621,31,22.359689852065177,16.329434433595964
1.4621725647372563,0.7512047728033557,621,31,22.359689852065177,16.329434433595964
1.4696826971464243,0.751197262521528,621,31,22.359689852065177,16.329434433595964
1.4771927544718986,0.7511897523147854,621,31,22.359689852065177,16.329434433595964
1.4847027367144314,0.7511822421831272,621,31,22.359689852065177,16.329434433595964
1.4922126438747758,0.7511747321265527,621,31,22.359689852065177,16.329434433595964
1.4997224759536834,0.7511672221450613,621,31,22.359689852065177,16.329434433595964
1.507232232951907,0.7511597122386519,621,31,22.359689852065177,16.329434433595964
1.5147419148701977,0.7511522024073239,621,31,22.359689852065177,16.329434433595964
1.5222515217093078,0.7511446926510768,621,31,22.359689852065177,16.329434433595964
1.5297610534699893,0.7511371829699094,621,31,22.359689852065177,16.329434433595964
1.537270510152993,0.7511296733638213,621,31,22.359689852065177,16.329434433595964
1.5447798917590718,0.7511221638328116,621,31,22.359689852065177,16.329434433595964
1.5522891982889764,0.7511146543768795,621,31,22.359689852065177,16.329434433595964
1.5597984297434582,0.7511071449960244,621,31,22.359689852065177,16.329434433595964
1.5673075861232686,0.7510996356902455,621,31,22.359689852065177,16.329434433595964
1.5748166674291586,0.7510921264595419,621,31,22.359689852065177,16.329434433595964
1.5823256736618805,0.7510846173039131,621,31,22.359689852065177,16.329434433595964
1.589834604822184,0.751077108223358,621,31,22.359689852065177,16.329434433595964
1.5973434609108212,0.7510695992178763,621,31,22.359689852065177,16.329434433595964
1.604852241928543,0.7510620902874668,621,31,22.359689852065177,16.329434433595964
1.6123609478760998,0.7510545814321291,621,31,22.359689852065177,16.329434433595964
1.6198695787542434,0.7510470726518623,621,31,22.359689852065177,16.329434433595964
1.627378134563724,0.7510395639466656,621,31,22.359689852065177,16.329434433595964
1.6348866153052928,0.7510320553165384,621,31,22.359689852065177,16.329434433595964
1.6423950209797007,0.7510245467614798,621,31,22.359689852065177,16.329434433595964
1.6499033515876986,0.751017038281489,621,31,22.359689852065177,16.329434433595964
1.657411607130037,0.7510095298765656,621,31,22.359689852065177,16.329434433595964
1.6649197876074673,0.7510020215467084,621,31,22.359689852065177,16.329434433595964
1.6724278930207395,0.7509945132919168,621,31,22.359689852065177,16.329434433595964
1.6799359233706044,0.7509870051121903,621,31,22.359689852065177,16.329434433595964
1.687443878657813,0.7509794970075279,621,31,22.359689852065177,16.329434433595964
1.6949517588831156,0.7509719889779287,621,31,22.359689852065177,16.329434433595964
1.7024595640472628,0.7509644810233924,621,31,22.359689852065177,16.329434433595964
1.709967294151006,0.7509569731439178,621,31,22.359689852065177,16.329434433595964
1.7174749491950951,0.7509494653395045,621,31,22.359689852065177,16.329434433595964
1.7249825291802805,0.7509419576101516,621,31,22.359689852065177,16.329434433595964
1.7324900341073126,0.7509344499558582,621,31,22.359689852065177,16.329434433595964
1.7399974639769424,0.7509269423766238,621,31,22.359689852065177,16.329434433595964
1.7475048187899205,0.7509194348724476,621,31,22.359689852065177,16.329434433595964
1.7550120985469975,0.7509119274433287,621,31,22.359689852065177,16.329434433595964
1.7625193032489235,0.7509044200892665,621,31,22.359689852065177,16.329434433595964
1.7700264328964488,0.7508969128102602,621,31,22.359689852065177,16.329434433595964
1.7775334874903237,0.7508894056063089,621,31,22.359689852065177,16.329434433595964
