Vout,Iout,Irradiance,Temperature,MaxVoltage,MaxPower
0.002975431390082788,0.595092,491,31,22.35890949692755,12.80594211321453
0.008926239151705826,0.595092,491,31,22.35890949692755,12.80594211321453
0.014876925934899669,0.5950889650594099,491,31,22.35890949692755,12.80594211321453
0.02082747012690801,0.5950830142516482,491,31,22.35890949692755,12.80594211321453
0.02677786466430713,0.5950770635651685,491,31,22.35890949692755,12.80594211321453
0.032728116485624334,0.5950711130215717,491,31,22.35890949692755,12.80594211321453
0.03867823199576923,0.5950651626276293,491,31,22.35890949692755,12.80594211321453
0.04462821710695933,0.595059212376403,491,31,22.35890949692755,12.80594211321453
0.05057807727656256,0.5950532622614879,491,31,22.35890949692755,12.80594211321453
0.05652781754209415,0.5950473122769717,491,31,22.35890949692755,12.80594211321453
0.06247744255352076,0.5950413624173971,491,31,22.35890949692755,12.80594211321453
0.06842695660307903,0.5950354126777266,491,31,22.35890949692755,12.80594211321453
0.07437636365279995,0.5950294630533102,491,31,22.35890949692755,12.80594211321453
0.08032566735991532,0.5950235135398556,491,31,22.35890949692755,12.80594211321453
0.08627487110030958,0.5950175641334009,491,31,22.35890949692755,12.80594211321453
0.09222397799016703,0.5950116148302886,491,31,22.35890949692755,12.80594211321453
0.09817299090595359,0.5950056656271432,491,31,22.35890949692755,12.80594211321453
0.10412191250286114,0.5949997165208483,491,31,22.35890949692755,12.80594211321453
0.11007074523183268,0.5949937675085274,491,31,22.35890949692755,12.80594211321453
0.1160194913552775,0.5949878185875255,491,31,22.35890949692755,12.80594211321453
0.12196815296157734,0.5949818697553914,491,31,22.35890949692755,12.80594211321453
0.12791673197847633,0.5949759210098629,491,31,22.35890949692755,12.80594211321453
0.13386523018544066,0.5949699723488514,491,31,22.35890949692755,12.80594211321453
0.1398136492250673,0.5949640237704293,491,31,22.35890949692755,12.80594211321453
0.14576199061361503,0.5949580752728173,491,31,22.35890949692755,12.80594211321453
0.15171025575072497,0.5949521268543725,491,31,22.35890949692755,12.80594211321453
0.15765844592839345,0.5949461785135788,491,31,22.35890949692755,12.80594211321453
0.16360656233925436,0.5949402302490365,491,31,22.35890949692755,12.80594211321453
0.16955460608422407,0.5949342820594538,491,31,22.35890949692755,12.80594211321453
0.1755025781795585,0.5949283339436376,491,31,22.35890949692755,12.80594211321453
0.18145047956336702,0.5949223859004875,491,31,22.35890949692755,12.80594211321453
0.18739831110162516,0.594916437928987,491,31,22.35890949692755,12.80594211321453
0.19334607359372458,0.594910490028198,491,31,22.35890949692755,12.80594211321453
0.19929376777759628,0.5949045421972545,491,31,22.35890949692755,12.80594211321453
0.2052413943344393,0.5948985944353572,491,31,22.35890949692755,12.80594211321453
0.21118895389308615,0.5948926467417681,491,31,22.35890949692755,12.80594211321453
0.21713644703403154,0.594886699115806,491,31,22.35890949692755,12.80594211321453
0.22308387429315163,0.5948807515568422,491,31,22.35890949692755,12.80594211321453
0.22903123616513743,0.594874804064296,491,31,22.35890949692755,12.80594211321453
0.23497853310666314,0.5948688566376317,491,31,22.35890949692755,12.80594211321453
0.24092576553931166,0.5948629092763544,491,31,22.35890949692755,12.80594211321453
0.24687293385227424,0.5948569619800076,491,31,22.35890949692755,12.80594211321453
0.2528200384048429,0.5948510147481697,491,31,22.35890949692755,12.80594211321453
0.258767079528711,0.5948450675804515,491,31,22.35890949692755,12.80594211321453
0.26471405753009636,0.5948391204764937,491,31,22.35890949692755,12.80594211321453
0.2706609726917019,0.5948331734359645,491,31,22.35890949692755,12.80594211321453
0.2766078252745246,0.5948272264585578,491,31,22.35890949692755,12.80594211321453
0.2825546155195256,0.5948212795439909,491,31,22.35890949692755,12.80594211321453
0.28850134364917185,0.5948153326920028,491,31,22.35890949692755,12.80594211321453
0.2944480098688592,0.5948093859023524,491,31,22.35890949692755,12.80594211321453
0.3003946143682256,0.5948034391748175,491,31,22.35890949692755,12.80594211321453
0.3063411573223637,0.5947974925091926,491,31,22.35890949692755,12.80594211321453
0.31228763889294003,0.5947915459052878,491,31,22.35890949692755,12.80594211321453
0.31823405922922793,0.5947855993629283,491,31,22.35890949692755,12.80594211321453
0.32418041846906126,0.5947796528819524,491,31,22.35890949692755,12.80594211321453
0.33012671673971417,0.5947737064622108,491,31,22.35890949692755,12.80594211321453
0.33607295415871413,0.5947677601035656,491,31,22.35890949692755,12.80594211321453
0.34201913083459157,0.5947618138058895,491,31,22.35890949692755,12.80594211321453
0.34796524686757185,0.5947558675690652,491,31,22.35890949692755,12.80594211321453
0.3539113023502149,0.594749921392984,491,31,22.35890949692755,12.80594211321453
0.3598572973680046,0.5947439752775456,491,31,22.35890949692755,12.80594211321453
0.3658032319998932,0.5947380292226576,491,31,22.35890949692755,12.80594211321453
0.371749106318804,0.5947320832282345,491,31,22.35890949692755,12.80594211321453
0.377694920392095,0.5947261372941971,491,31,22.35890949692755,12.80594211321453
0.3836406742819878,0.5947201914204728,491,31,22.35890949692755,12.80594211321453
0.38958636804596175,0.5947142456069942,491,31,22.35890949692755,12.80594211321453
0.39553200173711967,0.5947082998536988,491,31,22.35890949692755,12.80594211321453
0.4014775754045241,0.5947023541605294,491,31,22.35890949692755,12.80594211321453
0.40742308909350866,0.5946964085274329,491,31,22.35890949692755,12.80594211321453
0.4133685428459642,0.59469046295436,491,31,22.35890949692755,12.80594211321453
0.4193139367006045,0.5946845174412656,491,31,22.35890949692755,12.80594211321453
0.4252592706932102,0.5946785719881077,491,31,22.35890949692755,12.80594211321453
0.4312045448568547,0.5946726265948477,491,31,22.35890949692755,12.80594211321453
0.4371497592221125,0.5946666812614495,491,31,22.35890949692755,12.80594211321453
0.443094913817251,0.5946607359878805,491,31,22.35890949692755,12.80594211321453
0.4490400086684089,0.5946547907741098,491,31,22.35890949692755,12.80594211321453
0.4549850437997589,0.5946488456201091,491,31,22.35890949692755,12.80594211321453
0.46093001923366006,0.5946429005258524,491,31,22.35890949692755,12.80594211321453
0.46687493499079646,0.5946369554913157,491,31,22.35890949692755,12.80594211321453
0.4728197910903065,0.5946310105164763,491,31,22.35890949692755,12.80594211321453
0.4787645875499018,0.5946250656013136,491,31,22.35890949692755,12.80594211321453
0.4847093243859771,0.5946191207458086,491,31,22.35890949692755,12.80594211321453
0.4906540016137109,0.5946131759499435,491,31,22.35890949692755,12.80594211321453
0.4965986192471603,0.5946072312137018,491,31,22.35890949692755,12.80594211321453
0.5025431772993458,0.5946012865370687,491,31,22.35890949692755,12.80594211321453
0.5084876757823323,0.5945953419200297,491,31,22.35890949692755,12.80594211321453
0.5144321147073019,0.594589397362572,491,31,22.35890949692755,12.80594211321453
0.5203764940846223,0.5945834528646834,491,31,22.35890949692755,12.80594211321453
0.5263208139239088,0.5945775084263529,491,31,22.35890949692755,12.80594211321453
0.5322650742340826,0.5945715640475701,491,31,22.35890949692755,12.80594211321453
0.5382092750234247,0.5945656197283252,491,31,22.35890949692755,12.80594211321453
0.5441534162996243,0.5945596754686094,491,31,22.35890949692755,12.80594211321453
0.5500974980698248,0.5945537312684146,491,31,22.35890949692755,12.80594211321453
0.5560415203406652,0.5945477871277328,491,31,22.35890949692755,12.80594211321453
0.5619854831183203,0.594541843046557,491,31,22.35890949692755,12.80594211321453
0.5679293864085349,0.5945358990248806,491,31,22.35890949692755,12.80594211321453
0.5738732302166574,0.5945299550626973,491,31,22.35890949692755,12.80594211321453
0.5798170145476708,0.5945240111600015,491,31,22.35890949692755,12.80594211321453
0.5857607394062201,0.5945180673167878,491,31,22.35890949692755,12.80594211321453
0.5917044047966387,0.5945121235330512,491,31,22.35890949692755,12.80594211321453
0.5976480107229724,0.594506179808787,491,31,22.35890949692755,12.80594211321453
0.6035915571890014,0.594500236143991,491,31,22.35890949692755,12.80594211321453
0.6095350441982604,0.594494292538659,491,31,22.35890949692755,12.80594211321453
0.6154784717540585,0.5944883489927874,491,31,22.35890949692755,12.80594211321453
0.621421839859495,0.5944824055063724,491,31,22.35890949692755,12.80594211321453
0.6273651485174774,0.594476462079411,491,31,22.35890949692755,12.80594211321453
0.6333083977307346,0.5944705187118999,491,31,22.35890949692755,12.80594211321453
0.6392515875018312,0.5944645754038362,491,31,22.35890949692755,12.80594211321453
0.6451947178331806,0.5944586321552173,491,31,22.35890949692755,12.80594211321453
0.6511377887270559,0.5944526889660405,491,31,22.35890949692755,12.80594211321453
0.6570808001856008,0.5944467458363035,491,31,22.35890949692755,12.80594211321453
0.6630237522108403,0.594440802766004,491,31,22.35890949692755,12.80594211321453
0.6689666448046888,0.5944348597551398,491,31,22.35890949692755,12.80594211321453
0.6749094779689597,0.5944289168037088,491,31,22.35890949692755,12.80594211321453
0.6808522517053721,0.5944229739117093,491,31,22.35890949692755,12.80594211321453
0.6867949660155585,0.5944170310791393,491,31,22.35890949692755,12.80594211321453
0.6927376209010714,0.5944110883059972,491,31,22.35890949692755,12.80594211321453
0.69868021636339,0.5944051455922813,491,31,22.35890949692755,12.80594211321453
0.7046227524039249,0.5943992029379901,491,31,22.35890949692755,12.80594211321453
0.7105652290240245,0.594393260343122,491,31,22.35890949692755,12.80594211321453
0.7165076462249785,0.5943873178076757,491,31,22.35890949692755,12.80594211321453
0.7224500040080235,0.5943813753316499,491,31,22.35890949692755,12.80594211321453
0.7283923023743464,0.5943754329150432,491,31,22.35890949692755,12.80594211321453
0.7343345413250885,0.5943694905578544,491,31,22.35890949692755,12.80594211321453
0.7402767208613488,0.5943635482600823,491,31,22.35890949692755,12.80594211321453
0.7462188409841876,0.5943576060217258,491,31,22.35890949692755,12.80594211321453
0.7521609016946298,0.5943516638427838,491,31,22.35890949692755,12.80594211321453
0.7581029029936666,0.5943457217232552,491,31,22.35890949692755,12.80594211321453
0.7640448448822587,0.5943397796631389,491,31,22.35890949692755,12.80594211321453
0.7699867273613384,0.5943338376624341,491,31,22.35890949692755,12.80594211321453
0.7759285504318125,0.5943278957211398,491,31,22.35890949692755,12.80594211321453
0.7818703140945631,0.5943219538392549,491,31,22.35890949692755,12.80594211321453
0.7878120183504503,0.5943160120167785,491,31,22.35890949692755,12.80594211321453
0.7937536632003142,0.59431007025371,491,31,22.35890949692755,12.80594211321453
0.7996952486449751,0.5943041285500483,491,31,22.35890949692755,12.80594211321453
0.8056367746852365,0.5942981869057926,491,31,22.35890949692755,12.80594211321453
0.8115782413218859,0.5942922453209422,491,31,22.35890949692755,12.80594211321453
0.8175196485556956,0.5942863037954961,491,31,22.35890949692755,12.80594211321453
0.8234609963874236,0.5942803623294536,491,31,22.35890949692755,12.80594211321453
0.8294022848178163,0.5942744209228139,491,31,22.35890949692755,12.80594211321453
0.835343513847608,0.5942684795755763,491,31,22.35890949692755,12.80594211321453
0.8412846834775216,0.59426253828774,491,31,22.35890949692755,12.80594211321453
0.847225793708271,0.5942565970593043,491,31,22.35890949692755,12.80594211321453
0.85316684454056,0.5942506558902686,491,31,22.35890949692755,12.80594211321453
0.8591078359750848,0.594244714780632,491,31,22.35890949692755,12.80594211321453
0.8650487680125327,0.5942387737303938,491,31,22.35890949692755,12.80594211321453
0.870989640653585,0.5942328327395534,491,31,22.35890949692755,12.80594211321453
0.8769304538989149,0.5942268918081101,491,31,22.35890949692755,12.80594211321453
0.8828712077491906,0.5942209509360631,491,31,22.35890949692755,12.80594211321453
0.8888119022050741,0.5942150101234118,491,31,22.35890949692755,12.80594211321453
0.8947525372672223,0.5942090693701557,491,31,22.35890949692755,12.80594211321453
0.9006931129362871,0.5942031286762939,491,31,22.35890949692755,12.80594211321453
0.906633629212916,0.5941971880418258,491,31,22.35890949692755,12.80594211321453
0.9125740860977521,0.5941912474667508,491,31,22.35890949692755,12.80594211321453
0.9185144835914354,0.5941853069510682,491,31,22.35890949692755,12.80594211321453
0.9244548216946015,0.5941793664947774,491,31,22.35890949692755,12.80594211321453
0.9303951004078833,0.5941734260978778,491,31,22.35890949692755,12.80594211321453
0.9363353197319103,0.5941674857603687,491,31,22.35890949692755,12.80594211321453
0.9422754796673097,0.5941615454822494,491,31,22.35890949692755,12.80594211321453
0.9482155802147059,0.5941556052635195,491,31,22.35890949692755,12.80594211321453
0.9541556213747211,0.5941496651041781,491,31,22.35890949692755,12.80594211321453
0.9600956031479748,0.5941437250042247,491,31,22.35890949692755,12.80594211321453
0.966035525535085,0.5941377849636588,491,31,22.35890949692755,12.80594211321453
0.9719753885366679,0.5941318449824795,491,31,22.35890949692755,12.80594211321453
0.9779151921533372,0.5941259050606864,491,31,22.35890949692755,12.80594211321453
0.9838549363857063,0.5941199651982788,491,31,22.35890949692755,12.80594211321453
0.9897946212343857,0.5941140253952562,491,31,22.35890949692755,12.80594211321453
0.9957342466999857,0.5941080856516178,491,31,22.35890949692755,12.80594211321453
1.0016738127831146,0.594102145967363,491,31,22.35890949692755,12.80594211321453
1.0076133194843802,0.5940962063424914,491,31,22.35890949692755,12.80594211321453
1.0135527668043887,0.5940902667770023,491,31,22.35890949692755,12.80594211321453
1.019492154743745,0.5940843272708949,491,31,22.35890949692755,12.80594211321453
1.0254314833030544,0.5940783878241689,491,31,22.35890949692755,12.80594211321453
1.0313707524829208,0.5940724484368235,491,31,22.35890949692755,12.80594211321453
1.037309962283946,0.5940665091088582,491,31,22.35890949692755,12.80594211321453
1.0432491127067325,0.5940605698402722,491,31,22.35890949692755,12.80594211321453
1.0491882037518823,0.5940546306310651,491,31,22.35890949692755,12.80594211321453
1.0551272354199959,0.5940486914812363,491,31,22.35890949692755,12.80594211321453
1.0610662077116735,0.594042752390785,491,31,22.35890949692755,12.80594211321453
1.0670051206275153,0.5940368133597108,491,31,22.35890949692755,12.80594211321453
1.0729439741681206,0.594030874388013,491,31,22.35890949692755,12.80594211321453
1.0788827683340882,0.5940249354756911,491,31,22.35890949692755,12.80594211321453
1.0848215031260162,0.5940189966227444,491,31,22.35890949692755,12.80594211321453
1.090760178544503,0.5940130578291724,491,31,22.35890949692755,12.80594211321453
1.0966987945901463,0.5940071190949743,491,31,22.35890949692755,12.80594211321453
1.102637351263544,0.5940011804201497,491,31,22.35890949692755,12.80594211321453
1.1085758485652921,0.5939952418046979,491,31,22.35890949692755,12.80594211321453
1.114514286495988,0.5939893032486183,491,31,22.35890949692755,12.80594211321453
1.1204526650562288,0.5939833647519105,491,31,22.35890949692755,12.80594211321453
1.1263909842466102,0.5939774263145736,491,31,22.35890949692755,12.80594211321453
1.1323292440677286,0.5939714879366073,491,31,22.35890949692755,12.80594211321453
1.1382674445201797,0.5939655496180107,491,31,22.35890949692755,12.80594211321453
1.1442055856045596,0.5939596113587834,491,31,22.35890949692755,12.80594211321453
1.1501436673214633,0.5939536731589248,491,31,22.35890949692755,12.80594211321453
1.1560816896714867,0.5939477350184342,491,31,22.35890949692755,12.80594211321453
1.1620196526552247,0.5939417969373112,491,31,22.35890949692755,12.80594211321453
1.1679575562732727,0.593935858915555,491,31,22.35890949692755,12.80594211321453
1.1738954005262254,0.593929920953165,491,31,22.35890949692755,12.80594211321453
1.179833185414678,0.5939239830501408,491,31,22.35890949692755,12.80594211321453
1.185770910939225,0.5939180452064816,491,31,22.35890949692755,12.80594211321453
1.1917085771004612,0.5939121074221869,491,31,22.35890949692755,12.80594211321453
1.1976461838989811,0.5939061696972562,491,31,22.35890949692755,12.80594211321453
1.2035837313353792,0.5939002320316887,491,31,22.35890949692755,12.80594211321453
1.2095212194102496,0.593894294425484,491,31,22.35890949692755,12.80594211321453
1.2154586481241867,0.5938883568786414,491,31,22.35890949692755,12.80594211321453
1.2213960174777851,0.5938824193911603,491,31,22.35890949692755,12.80594211321453
1.2273333274716385,0.5938764819630401,491,31,22.35890949692755,12.80594211321453
1.2332705781063416,0.5938705445942802,491,31,22.35890949692755,12.80594211321453
1.2392077693824881,0.5938646072848801,491,31,22.35890949692755,12.80594211321453
1.2451449013006717,0.5938586700348392,491,31,22.35890949692755,12.80594211321453
1.251081973861487,0.5938527328441567,491,31,22.35890949692755,12.80594211321453
1.257018987065527,0.5938467957128323,491,31,22.35890949692755,12.80594211321453
1.2629559409133868,0.5938408586408652,491,31,22.35890949692755,12.80594211321453
1.2688928354056594,0.5938349216282549,491,31,22.35890949692755,12.80594211321453
1.2748296705429392,0.5938289846750007,491,31,22.35890949692755,12.80594211321453
1.2807664463258186,0.5938230477811022,491,31,22.35890949692755,12.80594211321453
1.2867031627548928,0.5938171109465585,491,31,22.35890949692755,12.80594211321453
1.2926398198307552,0.5938111741713693,491,31,22.35890949692755,12.80594211321453
1.2985764175539989,0.5938052374555339,491,31,22.35890949692755,12.80594211321453
1.3045129559252178,0.5937993007990517,491,31,22.35890949692755,12.80594211321453
1.310449434945006,0.5937933642019222,491,31,22.35890949692755,12.80594211321453
1.3163858546139557,0.5937874276641446,491,31,22.35890949692755,12.80594211321453
1.3223222149326626,0.5937814911857185,491,31,22.35890949692755,12.80594211321453
1.3282585159017184,0.5937755547666432,491,31,22.35890949692755,12.80594211321453
1.334194757521717,0.5937696184069182,491,31,22.35890949692755,12.80594211321453
1.3401309397932528,0.5937636821065427,491,31,22.35890949692755,12.80594211321453
1.3460670627169184,0.5937577458655164,491,31,22.35890949692755,12.80594211321453
1.3520031262933079,0.5937518096838384,491,31,22.35890949692755,12.80594211321453
1.357939130523014,0.5937458735615084,491,31,22.35890949692755,12.80594211321453
1.3638750754066304,0.5937399374985257,491,31,22.35890949692755,12.80594211321453
1.369810960944751,0.5937340014948895,491,31,22.35890949692755,12.80594211321453
1.3757467871379687,0.5937280655505995,491,31,22.35890949692755,12.80594211321453
1.3816825539868778,0.5937221296656551,491,31,22.35890949692755,12.80594211321453
1.3876182614920707,0.5937161938400555,491,31,22.35890949692755,12.80594211321453
1.3935539096541405,0.5937102580738001,491,31,22.35890949692755,12.80594211321453
1.3994894984736812,0.5937043223668885,491,31,22.35890949692755,12.80594211321453
1.4054250279512865,0.59369838671932,491,31,22.35890949692755,12.80594211321453
1.4113604980875492,0.593692451131094,491,31,22.35890949692755,12.80594211321453
1.4172959088830626,0.59368651560221,491,31,22.35890949692755,12.80594211321453
1.42323126033842,0.5936805801326673,491,31,22.35890949692755,12.80594211321453
1.4291665524542152,0.5936746447224653,491,31,22.35890949692755,12.80594211321453
1.4351017852310415,0.5936687093716035,491,31,22.35890949692755,12.80594211321453
1.441036958669491,0.5936627740800813,491,31,22.35890949692755,12.80594211321453
