Vout,Iout,Irradiance,Temperature,MaxVoltage,MaxPower
0.003545875905039374,0.7091819999999999,621,-4,19.787501105594934,13.641665812713741
0.0106375621485166,0.7091819999999999,621,-4,19.787501105594934,13.641665812713741
0.017729104219791257,0.7091783832058949,621,-4,19.787501105594934,13.641665812713741
0.024820476362547098,0.7091712915196513,621,-4,19.787501105594934,13.641665812713741
0.031911670159173136,0.7091641999779418,621,-4,19.787501105594934,13.641665812713741
0.03900269387843903,0.7091571086065082,621,-4,19.787501105594934,13.641665812713741
0.04609355515319248,0.7091500174134207,621,-4,19.787501105594934,13.641665812713741
0.05318426102913102,0.7091429263904105,621,-4,19.787501105594934,13.641665812713741
0.06027481800989963,0.7091358355298449,621,-4,19.787501105594934,13.641665812713741
0.06736523209879719,0.7091287448246781,621,-4,19.787501105594934,13.641665812713741
0.07445550883727384,0.7091216542684065,621,-4,19.787501105594934,13.641665812713741
0.08154565334046636,0.7091145638550266,621,-4,19.787501105594934,13.641665812713741
0.08863567032999936,0.7091074735789972,621,-4,19.787501105594934,13.641665812713741
0.09572556416426282,0.709100383435203,621,-4,19.787501105594934,13.641665812713741
0.10281533886635978,0.7090932934189225,621,-4,19.787501105594934,13.641665812713741
0.10990499814990398,0.7090862035257972,621,-4,19.787501105594934,13.641665812713741
0.11699454544283237,0.7090791137518042,621,-4,19.787501105594934,13.641665812713741
0.12408398390938559,0.7090720240932296,621,-4,19.787501105594934,13.641665812713741
0.13117331647039715,0.7090649345466457,621,-4,19.787501105594934,13.641665812713741
0.1382625458220215,0.709057845108888,621,-4,19.787501105594934,13.641665812713741
0.1453516744530213,0.709050755777036,621,-4,19.787501105594934,13.641665812713741
0.15244070466072443,0.7090436665483933,621,-4,19.787501105594934,13.641665812713741
0.15952963856575317,0.7090365774204712,621,-4,19.787501105594934,13.641665812713741
0.1666184781256204,0.7090294883909725,621,-4,19.787501105594934,13.641665812713741
0.1737072251472793,0.7090223994577763,621,-4,19.787501105594934,13.641665812713741
0.18079588129870786,0.7090153106189254,621,-4,19.787501105594934,13.641665812713741
0.18788444811960162,0.7090082218726127,621,-4,19.787501105594934,13.641665812713741
0.19497292703124408,0.7090011332171701,621,-4,19.787501105594934,13.641665812713741
0.2020613193456175,0.7089940446510581,621,-4,19.787501105594934,13.641665812713741
0.20914962627381262,0.7089869561728553,621,-4,19.787501105594934,13.641665812713741
0.21623784893379144,0.7089798677812498,621,-4,19.787501105594934,13.641665812713741
0.22332598835755274,0.7089727794750305,621,-4,19.787501105594934,13.641665812713741
0.23041404549774624,0.7089656912530793,621,-4,19.787501105594934,13.641665812713741
0.23750202123377778,0.7089586031143643,621,-4,19.787501105594934,13.641665812713741
0.24458991637744482,0.708951515057933,621,-4,19.787501105594934,13.641665812713741
0.2516777316781383,0.7089444270829057,621,-4,19.787501105594934,13.641665812713741
0.2587654678276444,0.7089373391884709,621,-4,19.787501105594934,13.641665812713741
0.26585312546457673,0.708930251373879,621,-4,19.787501105594934,13.641665812713741
0.27294070517846747,0.7089231636384383,621,-4,19.787501105594934,13.641665812713741
0.2800282075135435,0.7089160759815102,621,-4,19.787501105594934,13.641665812713741
0.28711563297221304,0.708908988402505,621,-4,19.787501105594934,13.641665812713741
0.29420298201828227,0.7089019009008787,621,-4,19.787501105594934,13.641665812713741
0.3012902550799261,0.7088948134761288,621,-4,19.787501105594934,13.641665812713741
0.3083774525524294,0.7088877261277915,621,-4,19.787501105594934,13.641665812713741
0.3154645748007179,0.7088806388554386,621,-4,19.787501105594934,13.641665812713741
0.3225516221616936,0.7088735516586748,621,-4,19.787501105594934,13.641665812713741
0.3296385949463913,0.7088664645371353,621,-4,19.787501105594934,13.641665812713741
0.336725493441969,0.708859377490483,621,-4,19.787501105594934,13.641665812713741
0.3438123179135445,0.708852290518407,621,-4,19.787501105594934,13.641665812713741
0.3508990686058917,0.7088452036206202,621,-4,19.787501105594934,13.641665812713741
0.35798574574500563,0.7088381167968573,621,-4,19.787501105594934,13.641665812713741
0.3650723495395477,0.7088310300468736,621,-4,19.787501105594934,13.641665812713741
0.37215888018217846,0.7088239433704432,621,-4,19.787501105594934,13.641665812713741
0.37924533785078995,0.7088168567673573,621,-4,19.787501105594934,13.641665812713741
0.3863317227096411,0.7088097702374233,621,-4,19.787501105594934,13.641665812713741
0.39341803491040694,0.7088026837804634,621,-4,19.787501105594934,13.641665812713741
0.40050427459314714,0.7087955973963131,621,-4,19.787501105594934,13.641665812713741
0.40759044188719923,0.7087885110848211,621,-4,19.787501105594934,13.641665812713741
0.41467653691200385,0.7087814248458469,621,-4,19.787501105594934,13.641665812713741
0.4217625597778663,0.7087743386792615,621,-4,19.787501105594934,13.641665812713741
0.42884851058665907,0.7087672525849453,621,-4,19.787501105594934,13.641665812713741
0.43593438943247115,0.7087601665627882,621,-4,19.787501105594934,13.641665812713741
0.44302019640220663,0.7087530806126879,621,-4,19.787501105594934,13.641665812713741
0.4501059315761373,0.7087459947345507,621,-4,19.787501105594934,13.641665812713741
0.4571915950284135,0.7087389089282896,621,-4,19.787501105594934,13.641665812713741
0.46427718682753455,0.7087318231938242,621,-4,19.787501105594934,13.641665812713741
0.4713627070367841,0.7087247375310806,621,-4,19.787501105594934,13.641665812713741
0.478448155714631,0.70871765193999,621,-4,19.787501105594934,13.641665812713741
0.4855335329150998,0.7087105664204894,621,-4,19.787501105594934,13.641665812713741
0.492618838688113,0.70870348097252,621,-4,19.787501105594934,13.641665812713741
0.49970407307980635,0.7086963955960282,621,-4,19.787501105594934,13.641665812713741
0.5067892361328201,0.7086893102909636,621,-4,19.787501105594934,13.641665812713741
0.5138743278865686,0.7086822250572805,621,-4,19.787501105594934,13.641665812713741
0.520959348377488,0.708675139894936,621,-4,19.787501105594934,13.641665812713741
0.5280442976392653,0.7086680548038908,621,-4,19.787501105594934,13.641665812713741
0.53512917570305,0.7086609697841084,621,-4,19.787501105594934,13.641665812713741
0.5422139825976497,0.7086538848355551,621,-4,19.787501105594934,13.641665812713741
0.5492987183497097,0.7086467999581998,621,-4,19.787501105594934,13.641665812713741
0.5563833829838796,0.7086397151520137,621,-4,19.787501105594934,13.641665812713741
0.5634679765229673,0.7086326304169701,621,-4,19.787501105594934,13.641665812713741
0.5705524989880797,0.7086255457530445,621,-4,19.787501105594934,13.641665812713741
0.5776369503987551,0.7086184611602139,621,-4,19.787501105594934,13.641665812713741
0.5847213307730815,0.7086113766384572,621,-4,19.787501105594934,13.641665812713741
0.5918056401278112,0.708604292187755,621,-4,19.787501105594934,13.641665812713741
0.5988898784784614,0.7085972078080891,621,-4,19.787501105594934,13.641665812713741
0.6059740458394097,0.7085901234994428,621,-4,19.787501105594934,13.641665812713741
0.6130581422239819,0.7085830392618007,621,-4,19.787501105594934,13.641665812713741
0.6201421676445333,0.7085759550951481,621,-4,19.787501105594934,13.641665812713741
0.6272261221125227,0.708568870999472,621,-4,19.787501105594934,13.641665812713741
0.6343100056385823,0.7085617869747598,621,-4,19.787501105594934,13.641665812713741
0.6413938182325799,0.7085547030210002,621,-4,19.787501105594934,13.641665812713741
0.6484775599036791,0.7085476191381825,621,-4,19.787501105594934,13.641665812713741
0.6555612306603927,0.708540535326297,621,-4,19.787501105594934,13.641665812713741
0.6626448305106332,0.7085334515853343,621,-4,19.787501105594934,13.641665812713741
0.6697283594617585,0.7085263679152859,621,-4,19.787501105594934,13.641665812713741
0.6768118175206146,0.7085192843161441,621,-4,19.787501105594934,13.641665812713741
0.6838952046935762,0.7085122007879013,621,-4,19.787501105594934,13.641665812713741
0.6909785209865806,0.7085051173305508,621,-4,19.787501105594934,13.641665812713741
0.6980617664051643,0.7084980339440862,621,-4,19.787501105594934,13.641665812713741
0.705144940954491,0.7084909506285015,621,-4,19.787501105594934,13.641665812713741
0.7122280446393822,0.7084838673837913,621,-4,19.787501105594934,13.641665812713741
0.7193110774643424,0.7084767842099503,621,-4,19.787501105594934,13.641665812713741
0.7263940394335849,0.7084697011069737,621,-4,19.787501105594934,13.641665812713741
0.7334769305510526,0.7084626180748571,621,-4,19.787501105594934,13.641665812713741
0.740559750820439,0.7084555351135962,621,-4,19.787501105594934,13.641665812713741
0.747642500245209,0.708448452223187,621,-4,19.787501105594934,13.641665812713741
0.7547251788286147,0.7084413694036259,621,-4,19.787501105594934,13.641665812713741
0.7618077865737127,0.7084342866549095,621,-4,19.787501105594934,13.641665812713741
0.7688903234833788,0.7084272039770343,621,-4,19.787501105594934,13.641665812713741
0.775972789560322,0.7084201213699974,621,-4,19.787501105594934,13.641665812713741
0.783055184807097,0.7084130388337961,621,-4,19.787501105594934,13.641665812713741
0.7901375092261171,0.7084059563684274,621,-4,19.787501105594934,13.641665812713741
0.7972197628196638,0.7083988739738889,621,-4,19.787501105594934,13.641665812713741
0.8043019455898974,0.7083917916501781,621,-4,19.787501105594934,13.641665812713741
0.811384057538867,0.7083847093972928,621,-4,19.787501105594934,13.641665812713741
0.8184660986685185,0.7083776272152308,621,-4,19.787501105594934,13.641665812713741
0.8255480689807019,0.7083705451039901,621,-4,19.787501105594934,13.641665812713741
0.83262996847718,0.7083634630635687,621,-4,19.787501105594934,13.641665812713741
0.8397117971596336,0.7083563810939647,621,-4,19.787501105594934,13.641665812713741
0.8467935550296697,0.7083492991951764,621,-4,19.787501105594934,13.641665812713741
0.8538752420888251,0.7083422173672022,621,-4,19.787501105594934,13.641665812713741
0.8609568583385735,0.7083351356100402,621,-4,19.787501105594934,13.641665812713741
0.8680384037803297,0.7083280539236894,621,-4,19.787501105594934,13.641665812713741
0.8751198784154534,0.7083209723081477,621,-4,19.787501105594934,13.641665812713741
0.882201282245255,0.7083138907634141,621,-4,19.787501105594934,13.641665812713741
0.8892826152709976,0.7083068092894872,621,-4,19.787501105594934,13.641665812713741
0.8963638774939025,0.7082997278863655,621,-4,19.787501105594934,13.641665812713741
0.9034450689151508,0.7082926465540479,621,-4,19.787501105594934,13.641665812713741
0.9105261895358876,0.7082855652925332,621,-4,19.787501105594934,13.641665812713741
0.9176072393572238,0.70827848410182,621,-4,19.787501105594934,13.641665812713741
0.9246882183802403,0.7082714029819075,621,-4,19.787501105594934,13.641665812713741
0.9317691266059881,0.7082643219327942,621,-4,19.787501105594934,13.641665812713741
0.9388499640354926,0.7082572409544793,621,-4,19.787501105594934,13.641665812713741
0.9459307306697543,0.7082501600469617,621,-4,19.787501105594934,13.641665812713741
0.9530114265097513,0.7082430792102403,621,-4,19.787501105594934,13.641665812713741
0.9600920515564413,0.7082359984443141,621,-4,19.787501105594934,13.641665812713741
0.9671726058107623,0.7082289177491822,621,-4,19.787501105594934,13.641665812713741
0.9742530892736341,0.7082218371248435,621,-4,19.787501105594934,13.641665812713741
0.9813335019459615,0.7082147565712973,621,-4,19.787501105594934,13.641665812713741
0.9884138438286332,0.7082076760885425,621,-4,19.787501105594934,13.641665812713741
0.9954941149225239,0.7082005956765782,621,-4,19.787501105594934,13.641665812713741
1.002574315228496,0.7081935153354036,621,-4,19.787501105594934,13.641665812713741
1.0096544447473994,0.7081864350650178,621,-4,19.787501105594934,13.641665812713741
1.0167345034800734,0.7081793548654198,621,-4,19.787501105594934,13.641665812713741
1.023814491427347,0.7081722747366089,621,-4,19.787501105594934,13.641665812713741
1.0308944085900404,0.7081651946785843,621,-4,19.787501105594934,13.641665812713741
1.0379742549689641,0.708158114691345,621,-4,19.787501105594934,13.641665812713741
1.0450540305649216,0.7081510347748904,621,-4,19.787501105594934,13.641665812713741
1.0521337353787088,0.7081439549292194,621,-4,19.787501105594934,13.641665812713741
1.0592133694111143,0.7081368751543314,621,-4,19.787501105594934,13.641665812713741
1.0662929326629214,0.7081297954502257,621,-4,19.787501105594934,13.641665812713741
1.0733724251349068,0.7081227158169012,621,-4,19.787501105594934,13.641665812713741
1.0804518468278421,0.7081156362543574,621,-4,19.787501105594934,13.641665812713741
1.0875311977424935,0.7081085567625934,621,-4,19.787501105594934,13.641665812713741
1.0946104778796242,0.7081014773416084,621,-4,19.787501105594934,13.641665812713741
1.1016896872399913,0.7080943979914017,621,-4,19.787501105594934,13.641665812713741
1.1087688258243487,0.7080873187119725,621,-4,19.787501105594934,13.641665812713741
1.1158478936334475,0.7080802395033201,621,-4,19.787501105594934,13.641665812713741
1.1229268906680347,0.7080731603654437,621,-4,19.787501105594934,13.641665812713741
1.1300058169288543,0.7080660812983425,621,-4,19.787501105594934,13.641665812713741
1.1370846724166475,0.7080590023020158,621,-4,19.787501105594934,13.641665812713741
1.1441634571321528,0.7080519233764628,621,-4,19.787501105594934,13.641665812713741
1.1512421710761072,0.708044844521683,621,-4,19.787501105594934,13.641665812713741
1.1583208142492443,0.7080377657376754,621,-4,19.787501105594934,13.641665812713741
1.165399386652296,0.7080306870244393,621,-4,19.787501105594934,13.641665812713741
1.1724778882859928,0.7080236083819741,621,-4,19.787501105594934,13.641665812713741
1.1795563191510625,0.7080165298102788,621,-4,19.787501105594934,13.641665812713741
1.1866346792482325,0.708009451309353,621,-4,19.787501105594934,13.641665812713741
1.1937129685782277,0.7080023728791959,621,-4,19.787501105594934,13.641665812713741
1.2007911871417722,0.7079952945198065,621,-4,19.787501105594934,13.641665812713741
1.207869334939589,0.7079882162311844,621,-4,19.787501105594934,13.641665812713741
1.2149474119723986,0.7079811380133286,621,-4,19.787501105594934,13.641665812713741
1.2220254182409225,0.7079740598662386,621,-4,19.787501105594934,13.641665812713741
1.2291033537458793,0.7079669817899137,621,-4,19.787501105594934,13.641665812713741
1.2361812184879872,0.7079599037843529,621,-4,19.787501105594934,13.641665812713741
1.2432590124679648,0.7079528258495558,621,-4,19.787501105594934,13.641665812713741
1.2503367356865283,0.7079457479855215,621,-4,19.787501105594934,13.641665812713741
1.2574143881443938,0.7079386701922493,621,-4,19.787501105594934,13.641665812713741
1.2644919698422772,0.7079315924697386,621,-4,19.787501105594934,13.641665812713741
1.2715694807808928,0.7079245148179885,621,-4,19.787501105594934,13.641665812713741
1.278646920960955,0.7079174372369983,621,-4,19.787501105594934,13.641665812713741
1.2857242903831771,0.7079103597267675,621,-4,19.787501105594934,13.641665812713741
1.2928015890482727,0.7079032822872952,621,-4,19.787501105594934,13.641665812713741
1.2998788169569546,0.7078962049185807,621,-4,19.787501105594934,13.641665812713741
1.3069559741099352,0.7078891276206234,621,-4,19.787501105594934,13.641665812713741
1.3140330605079265,0.7078820503934224,621,-4,19.787501105594934,13.641665812713741
1.3211100761516392,0.7078749732369771,621,-4,19.787501105594934,13.641665812713741
1.3281870210417857,0.7078678961512869,621,-4,19.787501105594934,13.641665812713741
1.3352638951790767,0.7078608191363509,621,-4,19.787501105594934,13.641665812713741
1.3423406985642223,0.7078537421921685,621,-4,19.787501105594934,13.641665812713741
1.3494174311979332,0.7078466653187389,621,-4,19.787501105594934,13.641665812713741
1.3564940930809195,0.7078395885160614,621,-4,19.787501105594934,13.641665812713741
1.3635706842138915,0.7078325117841354,621,-4,19.787501105594934,13.641665812713741
1.3706472045975586,0.7078254351229601,621,-4,19.787501105594934,13.641665812713741
1.377723654232631,0.7078183585325348,621,-4,19.787501105594934,13.641665812713741
1.3848000331198171,0.7078112820128588,621,-4,19.787501105594934,13.641665812713741
1.3918763412598265,0.7078042055639314,621,-4,19.787501105594934,13.641665812713741
1.3989525786533685,0.7077971291857519,621,-4,19.787501105594934,13.641665812713741
1.4060287453011515,0.7077900528783195,621,-4,19.787501105594934,13.641665812713741
1.413104841203885,0.7077829766416336,621,-4,19.787501105594934,13.641665812713741
1.4201808663622766,0.7077759004756934,621,-4,19.787501105594934,13.641665812713741
1.4272568207770358,0.7077688243804984,621,-4,19.787501105594934,13.641665812713741
1.4343327044488707,0.7077617483560475,621,-4,19.787501105594934,13.641665812713741
1.4414085173784896,0.7077546724023404,621,-4,19.787501105594934,13.641665812713741
1.448484259566601,0.7077475965193761,621,-4,19.787501105594934,13.641665812713741
1.4555599310139127,0.7077405207071541,621,-4,19.787501105594934,13.641665812713741
1.4626355317211326,0.7077334449656736,621,-4,19.787501105594934,13.641665812713741
1.4697110616889697,0.7077263692949339,621,-4,19.787501105594934,13.641665812713741
1.4767865209181308,0.7077192936949342,621,-4,19.787501105594934,13.641665812713741
1.4838619094093244,0.707712218165674,621,-4,19.787501105594934,13.641665812713741
1.4909372271632588,0.7077051427071523,621,-4,19.787501105594934,13.641665812713741
1.4980124741806407,0.7076980673193687,621,-4,19.787501105594934,13.641665812713741
1.505087650462178,0.7076909920023223,621,-4,19.787501105594934,13.641665812713741
1.5121627560085789,0.7076839167560125,621,-4,19.787501105594934,13.641665812713741
1.519237790820551,0.7076768415804385,621,-4,19.787501105594934,13.641665812713741
1.5263127548988018,0.7076697664755996,621,-4,19.787501105594934,13.641665812713741
1.5333876482440383,0.7076626914414952,621,-4,19.787501105594934,13.641665812713741
1.5404624708569692,0.7076556164781245,621,-4,19.787501105594934,13.641665812713741
1.5475372227383006,0.7076485415854867,621,-4,19.787501105594934,13.641665812713741
1.5546119038887414,0.7076414667635813,621,-4,19.787501105594934,13.641665812713741
1.5616865143089977,0.7076343920124074,621,-4,19.787501105594934,13.641665812713741
1.5687610539997774,0.7076273173319645,621,-4,19.787501105594934,13.641665812713741
1.575835522961788,0.7076202427222517,621,-4,19.787501105594934,13.641665812713741
1.5829099211957367,0.7076131681832684,621,-4,19.787501105594934,13.641665812713741
1.5899842487023308,0.7076060937150138,621,-4,19.787501105594934,13.641665812713741
1.5970585054822775,0.7075990193174874,621,-4,19.787501105594934,13.641665812713741
1.6041326915362843,0.7075919449906881,621,-4,19.787501105594934,13.641665812713741
1.611206806865059,0.7075848707346156,621,-4,19.787501105594934,13.641665812713741
1.6182808514693074,0.7075777965492691,621,-4,19.787501105594934,13.641665812713741
1.625354825349738,0.7075707224346477,621,-4,19.787501105594934,13.641665812713741
1.6324287285070576,0.7075636483907509,621,-4,19.787501105594934,13.641665812713741
1.6395025609419729,0.7075565744175779,621,-4,19.787501105594934,13.641665812713741
1.6465763226551917,0.707549500515128,621,-4,19.787501105594934,13.641665812713741
1.6536500136474208,0.7075424266834005,621,-4,19.787501105594934,13.641665812713741
1.6607236339193674,0.7075353529223947,621,-4,19.787501105594934,13.641665812713741
1.6677971834717387,0.7075282792321098,621,-4,19.787501105594934,13.641665812713741
1.6748706623052416,0.7075212056125452,621,-4,19.787501105594934,13.641665812713741
