Vout,Iout,Irradiance,Temperature,MaxVoltage,MaxPower
0.003719754233132374,0.743958,621,24,21.848773730274797,15.777514990104086
0.011159193917620743,0.743958,621,24,21.848773730274797,15.777514990104086
0.01859848236016631,0.7439542058499669,621,24,21.848773730274797,15.777514990104086
0.02603759254144608,0.7439467664102823,621,24,21.848773730274797,15.777514990104086
0.033476515631076544,0.7439393271222192,621,24,21.848773730274797,15.777514990104086
0.040915260303301185,0.7439318880127819,621,24,21.848773730274797,15.777514990104086
0.04835383456525795,0.7439244490904362,621,24,21.848773730274797,15.777514990104086
0.05579224580814268,0.7439170103465079,621,24,21.848773730274797,15.777514990104086
0.06323050085451816,0.7439095717729899,621,24,21.848773730274797,15.777514990104086
0.07066860600206569,0.7439021333624908,621,24,21.848773730274797,15.777514990104086
0.07810656706397029,0.7438946951081883,621,24,21.848773730274797,15.777514990104086
0.0855443894061985,0.7438872570037846,621,24,21.848773730274797,15.777514990104086
0.09298207798190826,0.7438798190434666,621,24,21.848773730274797,15.777514990104086
0.10041963736321087,0.7438723812218682,621,24,21.848773730274797,15.777514990104086
0.10785707177048948,0.7438649435340362,621,24,21.848773730274797,15.777514990104086
0.1152943850994614,0.7438575059753987,621,24,21.848773730274797,15.777514990104086
0.12273158094615859,0.7438500685417352,621,24,21.848773730274797,15.777514990104086
0.13016866262998586,0.74384263122915,621,24,21.848773730274797,15.777514990104086
0.137605633215005,0.743835194034047,621,24,21.848773730274797,15.777514990104086
0.14504249552958118,0.7438277569531069,621,24,21.848773730274797,15.777514990104086
0.15247925218451788,0.7438203199832656,621,24,21.848773730274797,15.777514990104086
0.15991590558979665,0.7438128831216947,621,24,21.848773730274797,15.777514990104086
0.16735245797002823,0.7438054463657835,621,24,21.848773730274797,15.777514990104086
0.17478891137871552,0.7437980097131219,621,24,21.848773730274797,15.777514990104086
0.18222526771141903,0.7437905731614853,621,24,21.848773730274797,15.777514990104086
0.18966152871790884,0.7437831367088203,621,24,21.848773730274797,15.777514990104086
0.19709769601338228,0.7437757003532313,621,24,21.848773730274797,15.777514990104086
0.20453377108881812,0.7437682640929685,621,24,21.848773730274797,15.777514990104086
0.21196975532053383,0.7437608279264166,621,24,21.848773730274797,15.777514990104086
0.2194056499790082,0.7437533918520848,621,24,21.848773730274797,15.777514990104086
0.2268414562370245,0.7437459558685967,621,24,21.848773730274797,15.777514990104086
0.23427717517718744,0.7437385199746818,621,24,21.848773730274797,15.777514990104086
0.24171280779886153,0.7437310841691674,621,24,21.848773730274797,15.777514990104086
0.2491483550245759,0.7437236484509708,621,24,21.848773730274797,15.777514990104086
0.2565838177059359,0.7437162128190927,621,24,21.848773730274797,15.777514990104086
0.2640191966290802,0.7437087772726105,621,24,21.848773730274797,15.777514990104086
0.271454492519718,0.7437013418106728,621,24,21.848773730274797,15.777514990104086
0.27888970604777835,0.7436939064324932,621,24,21.848773730274797,15.777514990104086
0.2863248378317022,0.7436864711373461,621,24,21.848773730274797,15.777514990104086
0.2937598884424038,0.7436790359245616,621,24,21.848773730274797,15.777514990104086
0.3011948584069275,0.7436716007935212,621,24,21.848773730274797,15.777514990104086
0.30862974821182326,0.743664165743654,621,24,21.848773730274797,15.777514990104086
0.3160645583062622,0.743656730774433,621,24,21.848773730274797,15.777514990104086
0.3234992891049128,0.7436492958853717,621,24,21.848773730274797,15.777514990104086
0.3309339409905955,0.7436418610760207,621,24,21.848773730274797,15.777514990104086
0.3383685143167328,0.7436344263459655,621,24,21.848773730274797,15.777514990104086
0.3458030094096119,0.7436269916948233,621,24,21.848773730274797,15.777514990104086
0.35323742657047186,0.7436195571222406,621,24,21.848773730274797,15.777514990104086
0.36067176607743107,0.7436121226278912,621,24,21.848773730274797,15.777514990104086
0.3681060281872664,0.7436046882114739,621,24,21.848773730274797,15.777514990104086
0.37554021313705505,0.7435972538727104,621,24,21.848773730274797,15.777514990104086
0.38297432114569013,0.743589819611344,621,24,21.848773730274797,15.777514990104086
0.3904083524152801,0.7435823854271376,621,24,21.848773730274797,15.777514990104086
0.39784230713243995,0.7435749513198724,621,24,21.848773730274797,15.777514990104086
0.40527618546948335,0.7435675172893462,621,24,21.848773730274797,15.777514990104086
0.41270998758552324,0.7435600833353725,621,24,21.848773730274797,15.777514990104086
0.42014371362748715,0.7435526494577788,621,24,21.848773730274797,15.777514990104086
0.42757736373105504,0.7435452156564062,621,24,21.848773730274797,15.777514990104086
0.4350109380215243,0.7435377819311075,621,24,21.848773730274797,15.777514990104086
0.44244443661460936,0.7435303482817474,621,24,21.848773730274797,15.777514990104086
0.44987785961717836,0.7435229147082003,621,24,21.848773730274797,15.777514990104086
0.45731120712793405,0.7435154812103506,621,24,21.848773730274797,15.777514990104086
0.4647444792380418,0.7435080477880913,621,24,21.848773730274797,15.777514990104086
0.47217767603170985,0.743500614441324,621,24,21.848773730274797,15.777514990104086
0.47961079758672476,0.7434931811699572,621,24,21.848773730274797,15.777514990104086
0.48704384397494466,0.7434857479739069,621,24,21.848773730274797,15.777514990104086
0.49447681526275633,0.7434783148530951,621,24,21.848773730274797,15.777514990104086
0.5019097115114958,0.7434708818074502,621,24,21.848773730274797,15.777514990104086
0.509342532777837,0.7434634488369057,621,24,21.848773730274797,15.777514990104086
0.5167752791141503,0.7434560159414003,621,24,21.848773730274797,15.777514990104086
0.5242079505688338,0.7434485831208772,621,24,21.848773730274797,15.777514990104086
0.5316405471866189,0.7434411503752842,621,24,21.848773730274797,15.777514990104086
0.5390730690088527,0.7434337177045729,621,24,21.848773730274797,15.777514990104086
0.5465055160737575,0.7434262851086983,621,24,21.848773730274797,15.777514990104086
0.5539378884166727,0.7434188525876194,621,24,21.848773730274797,15.777514990104086
0.5613701860702752,0.7434114201412977,621,24,21.848773730274797,15.777514990104086
0.5688024090647852,0.7434039877696981,621,24,21.848773730274797,15.777514990104086
0.5762345574281545,0.7433965554727877,621,24,21.848773730274797,15.777514990104086
0.5836666311862417,0.7433891232505364,621,24,21.848773730274797,15.777514990104086
0.591098630362973,0.7433816911029163,621,24,21.848773730274797,15.777514990104086
0.5985305549804903,0.7433742590299014,621,24,21.848773730274797,15.777514990104086
0.6059624050592896,0.743366827031468,621,24,21.848773730274797,15.777514990104086
0.6133941806183467,0.7433593951075936,621,24,21.848773730274797,15.777514990104086
0.6208258816752349,0.743351963258258,621,24,21.848773730274797,15.777514990104086
0.6282575082462323,0.7433445314834422,621,24,21.848773730274797,15.777514990104086
0.6356890603464213,0.7433370997831285,621,24,21.848773730274797,15.777514990104086
0.6431205379897815,0.7433296681573006,621,24,21.848773730274797,15.777514990104086
0.6505519411892743,0.7433222366059437,621,24,21.848773730274797,15.777514990104086
0.65798326995692,0.7433148051290435,621,24,21.848773730274797,15.777514990104086
0.6654145243038722,0.7433073737265871,621,24,21.848773730274797,15.777514990104086
0.6728457042404826,0.7432999423985626,621,24,21.848773730274797,15.777514990104086
0.6802768097763641,0.7432925111449588,621,24,21.848773730274797,15.777514990104086
0.6877078409204472,0.7432850799657653,621,24,21.848773730274797,15.777514990104086
0.6951387976810323,0.7432776488609726,621,24,21.848773730274797,15.777514990104086
0.7025696800658376,0.7432702178305716,621,24,21.848773730274797,15.777514990104086
0.7100004880820461,0.743262786874554,621,24,21.848773730274797,15.777514990104086
0.7174312217363435,0.7432553559929124,621,24,21.848773730274797,15.777514990104086
0.7248618810349595,0.7432479251856393,621,24,21.848773730274797,15.777514990104086
0.7322924659837013,0.7432404944527281,621,24,21.848773730274797,15.777514990104086
0.739722976587986,0.7432330637941725,621,24,21.848773730274797,15.777514990104086
0.7471534128528718,0.7432256332099668,621,24,21.848773730274797,15.777514990104086
0.7545837747830842,0.7432182027001056,621,24,21.848773730274797,15.777514990104086
0.7620140623830426,0.7432107722645838,621,24,21.848773730274797,15.777514990104086
0.7694442756568833,0.7432033419033967,621,24,21.848773730274797,15.777514990104086
0.7768744146084815,0.7431959116165398,621,24,21.848773730274797,15.777514990104086
0.7843044792414714,0.743188481404009,621,24,21.848773730274797,15.777514990104086
0.7917344695592649,0.7431810512658004,621,24,21.848773730274797,15.777514990104086
0.7991643855650683,0.7431736212019104,621,24,21.848773730274797,15.777514990104086
0.8065942272618983,0.7431661912123356,621,24,21.848773730274797,15.777514990104086
0.8140239946525968,0.7431587612970728,621,24,21.848773730274797,15.777514990104086
0.8214536877398442,0.743151331456119,621,24,21.848773730274797,15.777514990104086
0.8288833065261716,0.7431439016894713,621,24,21.848773730274797,15.777514990104086
0.8363128510139726,0.7431364719971271,621,24,21.848773730274797,15.777514990104086
0.8437423212055136,0.7431290423790836,621,24,21.848773730274797,15.777514990104086
0.8511717171029444,0.7431216128353388,621,24,21.848773730274797,15.777514990104086
0.8586010387083054,0.7431141833658903,621,24,21.848773730274797,15.777514990104086
0.8660302860235379,0.7431067539707358,621,24,21.848773730274797,15.777514990104086
0.8734594590504912,0.7430993246498734,621,24,21.848773730274797,15.777514990104086
0.8808885577909286,0.7430918954033011,621,24,21.848773730274797,15.777514990104086
0.8883175822465355,0.7430844662310171,621,24,21.848773730274797,15.777514990104086
0.8957465324189245,0.7430770371330195,621,24,21.848773730274797,15.777514990104086
0.9031754083096416,0.7430696081093069,621,24,21.848773730274797,15.777514990104086
0.9106042099201703,0.7430621791598774,621,24,21.848773730274797,15.777514990104086
0.9180329372519378,0.7430547502847296,621,24,21.848773730274797,15.777514990104086
0.9254615903063178,0.7430473214838619,621,24,21.848773730274797,15.777514990104086
0.9328901690846363,0.743039892757273,621,24,21.848773730274797,15.777514990104086
0.9403186735881739,0.7430324641049615,621,24,21.848773730274797,15.777514990104086
0.9477471038181698,0.7430250355269261,621,24,21.848773730274797,15.777514990104086
0.9551754597758253,0.7430176070231654,621,24,21.848773730274797,15.777514990104086
0.9626037414623059,0.7430101785936782,621,24,21.848773730274797,15.777514990104086
0.9700319488787451,0.7430027502384635,621,24,21.848773730274797,15.777514990104086
0.9774600820262459,0.7429953219575198,621,24,21.848773730274797,15.777514990104086
0.9848881409058837,0.7429878937508463,621,24,21.848773730274797,15.777514990104086
0.9923161255187082,0.7429804656184416,621,24,21.848773730274797,15.777514990104086
0.9997440358657455,0.7429730375603047,621,24,21.848773730274797,15.777514990104086
1.0071718719479998,0.7429656095764348,621,24,21.848773730274797,15.777514990104086
1.0145996337664556,0.7429581816668305,621,24,21.848773730274797,15.777514990104086
1.022027321322078,0.742950753831491,621,24,21.848773730274797,15.777514990104086
1.0294549346158157,0.7429433260704154,621,24,21.848773730274797,15.777514990104086
1.0368824736486009,0.7429358983836025,621,24,21.848773730274797,15.777514990104086
1.044309938421351,0.7429284707710516,621,24,21.848773730274797,15.777514990104086
1.0517373289349712,0.7429210432327615,621,24,21.848773730274797,15.777514990104086
1.0591646451903534,0.7429136157687316,621,24,21.848773730274797,15.777514990104086
1.0665918871883773,0.7429061883789607,621,24,21.848773730274797,15.777514990104086
1.074019054929913,0.7428987610634481,621,24,21.848773730274797,15.777514990104086
1.0814461484158207,0.7428913338221927,621,24,21.848773730274797,15.777514990104086
1.088873167646951,0.742883906655194,621,24,21.848773730274797,15.777514990104086
1.0963001126241465,0.7428764795624508,621,24,21.848773730274797,15.777514990104086
1.1037269833482417,0.7428690525439624,621,24,21.848773730274797,15.777514990104086
1.111153779820065,0.7428616255997279,621,24,21.848773730274797,15.777514990104086
1.118580502040437,0.7428541987297466,621,24,21.848773730274797,15.777514990104086
1.1260071500101727,0.7428467719340174,621,24,21.848773730274797,15.777514990104086
1.1334337237300822,0.7428393452125397,621,24,21.848773730274797,15.777514990104086
1.1408602232009688,0.7428319185653126,621,24,21.848773730274797,15.777514990104086
1.1482866484236327,0.7428244919923354,621,24,21.848773730274797,15.777514990104086
1.1557129993988688,0.7428170654936072,621,24,21.848773730274797,15.777514990104086
1.1631392761274684,0.7428096390691272,621,24,21.848773730274797,15.777514990104086
1.1705654786102182,0.7428022127188946,621,24,21.848773730274797,15.777514990104086
1.1779916068479022,0.7427947864429086,621,24,21.848773730274797,15.777514990104086
1.1854176608413012,0.7427873602411685,621,24,21.848773730274797,15.777514990104086
1.1928436405911929,0.7427799341136735,621,24,21.848773730274797,15.777514990104086
1.2002695460983517,0.7427725080604227,621,24,21.848773730274797,15.777514990104086
1.207695377363551,0.7427650820814155,621,24,21.848773730274797,15.777514990104086
1.2151211343875596,0.7427576561766509,621,24,21.848773730274797,15.777514990104086
1.2225468171711462,0.7427502303461283,621,24,21.848773730274797,15.777514990104086
1.229972425715077,0.7427428045898469,621,24,21.848773730274797,15.777514990104086
1.237397960020115,0.7427353789078058,621,24,21.848773730274797,15.777514990104086
1.2448234200870236,0.7427279533000045,621,24,21.848773730274797,15.777514990104086
1.2522488059165637,0.742720527766442,621,24,21.848773730274797,15.777514990104086
1.259674117509494,0.7427131023071176,621,24,21.848773730274797,15.777514990104086
1.2670993548665728,0.7427056769220307,621,24,21.848773730274797,15.777514990104086
1.2745245179885574,0.7426982516111803,621,24,21.848773730274797,15.777514990104086
1.2819496068762026,0.7426908263745657,621,24,21.848773730274797,15.777514990104086
1.289374621530264,0.7426834012121863,621,24,21.848773730274797,15.777514990104086
1.2967995619514951,0.7426759761240411,621,24,21.848773730274797,15.777514990104086
1.3042244281406483,0.7426685511101296,621,24,21.848773730274797,15.777514990104086
1.3116492200984757,0.7426611261704509,621,24,21.848773730274797,15.777514990104086
1.3190739378257286,0.7426537013050043,621,24,21.848773730274797,15.777514990104086
1.3264985813231578,0.7426462765137889,621,24,21.848773730274797,15.777514990104086
1.3339231505915126,0.7426388517968041,621,24,21.848773730274797,15.777514990104086
1.3413476456315423,0.7426314271540492,621,24,21.848773730274797,15.777514990104086
1.3487720664439962,0.7426240025855233,621,24,21.848773730274797,15.777514990104086
1.3561964130296222,0.7426165780912257,621,24,21.848773730274797,15.777514990104086
1.3636206853891677,0.7426091536711558,621,24,21.848773730274797,15.777514990104086
1.3710448835233802,0.7426017293253125,621,24,21.848773730274797,15.777514990104086
1.3784690074330064,0.7425943050536955,621,24,21.848773730274797,15.777514990104086
1.3858930571187926,0.7425868808563036,621,24,21.848773730274797,15.777514990104086
1.3933170325814859,0.7425794567331365,621,24,21.848773730274797,15.777514990104086
1.400740933821831,0.7425720326841931,621,24,21.848773730274797,15.777514990104086
1.408164760840574,0.7425646087094728,621,24,21.848773730274797,15.777514990104086
1.4155885136384603,0.7425571848089749,621,24,21.848773730274797,15.777514990104086
1.4230121922162342,0.7425497609826985,621,24,21.848773730274797,15.777514990104086
1.4304357965746408,0.7425423372306431,621,24,21.848773730274797,15.777514990104086
1.4378593267144248,0.7425349135528077,621,24,21.848773730274797,15.777514990104086
1.4452827826363304,0.7425274899491916,621,24,21.848773730274797,15.777514990104086
1.4527061643411023,0.7425200664197942,621,24,21.848773730274797,15.777514990104086
1.460129471829483,0.7425126429646147,621,24,21.848773730274797,15.777514990104086
1.4675527051022181,0.7425052195836522,621,24,21.848773730274797,15.777514990104086
1.4749758641600499,0.7424977962769063,621,24,21.848773730274797,15.777514990104086
1.4823989490037228,0.7424903730443758,621,24,21.848773730274797,15.777514990104086
1.4898219596339797,0.7424829498860603,621,24,21.848773730274797,15.777514990104086
1.497244896051564,0.7424755268019589,621,24,21.848773730274797,15.777514990104086
1.5046677582572192,0.7424681037920711,621,24,21.848773730274797,15.777514990104086
1.512090546251688,0.7424606808563957,621,24,21.848773730274797,15.777514990104086
1.5195132600357135,0.7424532579949324,621,24,21.848773730274797,15.777514990104086
1.5269358996100382,0.7424458352076803,621,24,21.848773730274797,15.777514990104086
1.5343584649754058,0.7424384124946385,621,24,21.848773730274797,15.777514990104086
1.5417809561325584,0.7424309898558065,621,24,21.848773730274797,15.777514990104086
1.549203373082239,0.7424235672911833,621,24,21.848773730274797,15.777514990104086
1.5566257158251902,0.7424161448007685,621,24,21.848773730274797,15.777514990104086
1.5640479843621538,0.742408722384561,621,24,21.848773730274797,15.777514990104086
1.5714701786938732,0.7424013000425603,621,24,21.848773730274797,15.777514990104086
1.5788922988210903,0.7423938777747656,621,24,21.848773730274797,15.777514990104086
1.5863143447445478,0.7423864555811761,621,24,21.848773730274797,15.777514990104086
1.593736316464988,0.7423790334617911,621,24,21.848773730274797,15.777514990104086
1.6011582139831528,0.7423716114166099,621,24,21.848773730274797,15.777514990104086
1.6085800372997847,0.7423641894456317,621,24,21.848773730274797,15.777514990104086
1.6160017864156262,0.7423567675488557,621,24,21.848773730274797,15.777514990104086
1.6234234613314191,0.7423493457262813,621,24,21.848773730274797,15.777514990104086
1.6308450620479054,0.7423419239779077,621,24,21.848773730274797,15.777514990104086
1.6382665885658276,0.742334502303734,621,24,21.848773730274797,15.777514990104086
1.6456880408859276,0.7423270807037597,621,24,21.848773730274797,15.777514990104086
1.6531094190089473,0.7423196591779839,621,24,21.848773730274797,15.777514990104086
1.660530722935629,0.742312237726406,621,24,21.848773730274797,15.777514990104086
1.6679519526667144,0.7423048163490251,621,24,21.848773730274797,15.777514990104086
1.6753731082029462,0.7422973950458406,621,24,21.848773730274797,15.777514990104086
1.6827941895450655,0.7422899738168517,621,24,21.848773730274797,15.777514990104086
1.690215196693815,0.7422825526620576,621,24,21.848773730274797,15.777514990104086
1.6976361296499356,0.7422751315814575,621,24,21.848773730274797,15.777514990104086
1.70505698841417,0.7422677105750509,621,24,21.848773730274797,15.777514990104086
1.7124777729872596,0.742260289642837,621,24,21.848773730274797,15.777514990104086
1.7198984833699467,0.7422528687848148,621,24,21.848773730274797,15.777514990104086
1.7273191195629731,0.7422454480009838,621,24,21.848773730274797,15.777514990104086
1.7347396815670804,0.7422380272913431,621,24,21.848773730274797,15.777514990104086
1.7421601693830102,0.7422306066558922,621,24,21.848773730274797,15.777514990104086
1.749580583011505,0.7422231860946302,621,24,21.848773730274797,15.777514990104086
1.7570009224533056,0.7422157656075563,621,24,21.848773730274797,15.777514990104086
