Vout,Iout,Irradiance,Temperature,MaxVoltage,MaxPower
0.007969093374102173,1.593834,1271,52,22.91504207658003,35.93971654598755
0.02390713276622758,1.593834,1271,52,22.91504207658003,35.93971654598755
0.03984484814200978,1.5938258715232259,1271,52,22.91504207658003,35.93971654598755
0.05578218161603636,1.5938099334838338,1271,52,22.91504207658003,35.93971654598755
0.0717191142703503,1.5937939957692708,1271,52,22.91504207658003,35.93971654598755
0.08765566468839874,1.5937780584373906,1271,52,22.91504207658003,35.93971654598755
0.10359185002444136,1.59376212150633,1271,52,22.91504207658003,35.93971654598755
0.11952768611316135,1.5937461849575056,1271,52,22.91504207658003,35.93971654598755
0.13546318757101894,1.5937302487737635,1271,52,22.91504207658003,35.93971654598755
0.15139836788998354,1.5937143129392684,1271,52,22.91504207658003,35.93971654598755
0.16733323952405377,1.593698377439404,1271,52,22.91504207658003,35.93971654598755
0.18326781396912054,1.5936824422606788,1271,52,22.91504207658003,35.93971654598755
0.19920210183668538,1.5936665073906382,1271,52,22.91504207658003,35.93971654598755
0.2151361129219067,1.5936505728177865,1271,52,22.91504207658003,35.93971654598755
0.23106985626641066,1.5936346385315125,1271,52,22.91504207658003,35.93971654598755
0.2470033402162689,1.5936187045220207,1271,52,22.91504207658003,35.93971654598755
0.26293657247551583,1.5936027707802698,1271,52,22.91504207658003,35.93971654598755
0.2788695601555477,1.5935868372979132,1271,52,22.91504207658003,35.93971654598755
0.29480230982072153,1.5935709040672474,1271,52,22.91504207658003,35.93971654598755
0.3107348275304447,1.5935549710811607,1271,52,22.91504207658003,35.93971654598755
0.32666711887802674,1.5935390383330887,1271,52,22.91504207658003,35.93971654598755
0.3425991890265419,1.5935231058169723,1271,52,22.91504207658003,35.93971654598755
0.35853104274193165,1.5935071735272182,1271,52,22.91504207658003,35.93971654598755
0.3744626844235612,1.5934912414586628,1271,52,22.91504207658003,35.93971654598755
0.390394118132424,1.5934753096065406,1271,52,22.91504207658003,35.93971654598755
0.40632534761717676,1.5934593779664523,1271,52,22.91504207658003,35.93971654598755
0.42225637633817137,1.5934434465343366,1271,52,22.91504207658003,35.93971654598755
0.4381872074896371,1.593427515306445,1271,52,22.91504207658003,35.93971654598755
0.4541178440201568,1.593411584279317,1271,52,22.91504207658003,35.93971654598755
0.4700482886515673,1.5933956534497589,1271,52,22.91504207658003,35.93971654598755
0.4859785438964052,1.5933797228148214,1271,52,22.91504207658003,35.93971654598755
0.5019086120740116,1.5933637923717832,1271,52,22.91504207658003,35.93971654598755
0.5178384953253957,1.5933478621181314,1271,52,22.91504207658003,35.93971654598755
0.5337681956269573,1.5933319320515467,1271,52,22.91504207658003,35.93971654598755
0.5496977148031511,1.5933160021698884,1271,52,22.91504207658003,35.93971654598755
0.5656270545381774,1.5933000724711799,1271,52,22.91504207658003,35.93971654598755
0.5815562163867748,1.5932841429535967,1271,52,22.91504207658003,35.93971654598755
0.5974852017841796,1.5932682136154546,1271,52,22.91504207658003,35.93971654598755
0.613414012055322,1.5932522844551988,1271,52,22.91504207658003,35.93971654598755
0.6293426484233118,1.5932363554713944,1271,52,22.91504207658003,35.93971654598755
0.6452711120172736,1.5932204266627161,1271,52,22.91504207658003,35.93971654598755
0.6611994038795779,1.5932044980279412,1271,52,22.91504207658003,35.93971654598755
0.677127524972516,1.59318856956594,1271,52,22.91504207658003,35.93971654598755
0.6930554761844614,1.5931726412756706,1271,52,22.91504207658003,35.93971654598755
0.7089832583355573,1.5931567131561706,1271,52,22.91504207658003,35.93971654598755
0.7249108721829666,1.5931407852065513,1271,52,22.91504207658003,35.93971654598755
0.7408383184257166,1.593124857425993,1271,52,22.91504207658003,35.93971654598755
0.7567655977091734,1.5931089298137384,1271,52,22.91504207658003,35.93971654598755
0.7726927106291701,1.5930930023690886,1271,52,22.91504207658003,35.93971654598755
0.7886196577358178,1.5930770750913978,1271,52,22.91504207658003,35.93971654598755
0.8045464395370235,1.5930611479800705,1271,52,22.91504207658003,35.93971654598755
0.8204730565017377,1.5930452210345567,1271,52,22.91504207658003,35.93971654598755
0.8363995090629516,1.5930292942543482,1271,52,22.91504207658003,35.93971654598755
0.8523257976204639,1.5930133676389762,1271,52,22.91504207658003,35.93971654598755
0.8682519225434343,1.5929974411880077,1271,52,22.91504207658003,35.93971654598755
0.8841778841727419,1.5929815149010427,1271,52,22.91504207658003,35.93971654598755
0.9001036828231593,1.5929655887777123,1271,52,22.91504207658003,35.93971654598755
0.9160293187853641,1.5929496628176758,1271,52,22.91504207658003,35.93971654598755
0.9319547923277897,1.592933737020618,1271,52,22.91504207658003,35.93971654598755
0.9478801036983392,1.5929178113862483,1271,52,22.91504207658003,35.93971654598755
0.9638052531259635,1.5929018859142985,1271,52,22.91504207658003,35.93971654598755
0.9797302408221207,1.5928859606045205,1271,52,22.91504207658003,35.93971654598755
0.9956550669821209,1.5928700354566854,1271,52,22.91504207658003,35.93971654598755
1.0115797317863697,1.5928541104705818,1271,52,22.91504207658003,35.93971654598755
1.0275042354015136,1.5928381856460143,1271,52,22.91504207658003,35.93971654598755
1.043428577981501,1.5928222609828027,1271,52,22.91504207658003,35.93971654598755
1.0593527596685561,1.5928063364807798,1271,52,22.91504207658003,35.93971654598755
1.0752767805940833,1.5927904121397924,1271,52,22.91504207658003,35.93971654598755
1.0912006408794996,1.5927744879596977,1271,52,22.91504207658003,35.93971654598755
1.1071243406370013,1.5927585639403647,1271,52,22.91504207658003,35.93971654598755
1.1230478799702757,1.5927426400816718,1271,52,22.91504207658003,35.93971654598755
1.1389712589751535,1.5927267163835066,1271,52,22.91504207658003,35.93971654598755
1.1548944777402153,1.5927107928457658,1271,52,22.91504207658003,35.93971654598755
1.1708175363473485,1.5926948694683531,1271,52,22.91504207658003,35.93971654598755
1.1867404348722623,1.5926789462511806,1271,52,22.91504207658003,35.93971654598755
1.2026631733849633,1.5926630231941656,1271,52,22.91504207658003,35.93971654598755
1.218585751950194,1.592647100297233,1271,52,22.91504207658003,35.93971654598755
1.2345081706278374,1.5926311775603126,1271,52,22.91504207658003,35.93971654598755
1.2504304294732926,1.5926152549833397,1271,52,22.91504207658003,35.93971654598755
1.2663525285378179,1.5925993325662544,1271,52,22.91504207658003,35.93971654598755
1.2822744678688502,1.592583410309001,1271,52,22.91504207658003,35.93971654598755
1.2981962475102993,1.5925674882115288,1271,52,22.91504207658003,35.93971654598755
1.314117867502818,1.5925515662737901,1271,52,22.91504207658003,35.93971654598755
1.330039327884055,1.5925356444957408,1271,52,22.91504207658003,35.93971654598755
1.3459606286888837,1.5925197228773404,1271,52,22.91504207658003,35.93971654598755
1.3618817699496173,1.5925038014185515,1271,52,22.91504207658003,35.93971654598755
1.3778027516962044,1.5924878801193387,1271,52,22.91504207658003,35.93971654598755
1.3937235739564129,1.5924719589796703,1271,52,22.91504207658003,35.93971654598755
1.4096442367559956,1.5924560379995158,1271,52,22.91504207658003,35.93971654598755
1.4255647401188467,1.5924401171788476,1271,52,22.91504207658003,35.93971654598755
1.4414850840671443,1.5924241965176402,1271,52,22.91504207658003,35.93971654598755
1.4574052686214827,1.5924082760158693,1271,52,22.91504207658003,35.93971654598755
1.4733252938009935,1.5923923556735131,1271,52,22.91504207658003,35.93971654598755
1.4892451596234597,1.592376435490551,1271,52,22.91504207658003,35.93971654598755
1.505164866105417,1.5923605154669633,1271,52,22.91504207658003,35.93971654598755
1.5210844132622527,1.592344595602733,1271,52,22.91504207658003,35.93971654598755
1.5370038011082918,1.592328675897843,1271,52,22.91504207658003,35.93971654598755
1.5529230296568797,1.592312756352278,1271,52,22.91504207658003,35.93971654598755
1.568842098920458,1.5922968369660242,1271,52,22.91504207658003,35.93971654598755
1.5847610089106314,1.5922809177390675,1271,52,22.91504207658003,35.93971654598755
1.6006797596382374,1.592264998671396,1271,52,22.91504207658003,35.93971654598755
1.6165983511133988,1.5922490797629976,1271,52,22.91504207658003,35.93971654598755
1.6325167833455836,1.5922331610138618,1271,52,22.91504207658003,35.93971654598755
1.6484350563436538,1.5922172424239787,1271,52,22.91504207658003,35.93971654598755
1.664353170115912,1.5922013239933384,1271,52,22.91504207658003,35.93971654598755
1.6802711246701436,1.592185405721932,1271,52,22.91504207658003,35.93971654598755
1.6961889200136577,1.5921694876097516,1271,52,22.91504207658003,35.93971654598755
1.7121065561533237,1.5921535696567892,1271,52,22.91504207658003,35.93971654598755
1.7280240330956047,1.5921376518630375,1271,52,22.91504207658003,35.93971654598755
1.7439413508465886,1.5921217342284897,1271,52,22.91504207658003,35.93971654598755
1.7598585094120185,1.5921058167531392,1271,52,22.91504207658003,35.93971654598755
1.775775508797316,1.5920898994369799,1271,52,22.91504207658003,35.93971654598755
1.7916923490076102,1.5920739822800063,1271,52,22.91504207658003,35.93971654598755
1.807609030047756,1.5920580652822127,1271,52,22.91504207658003,35.93971654598755
1.8235255519223583,1.592042148443594,1271,52,22.91504207658003,35.93971654598755
1.8394419146357897,1.5920262317641456,1271,52,22.91504207658003,35.93971654598755
1.8553581181922087,1.5920103152438627,1271,52,22.91504207658003,35.93971654598755
1.8712741625955769,1.591994398882741,1271,52,22.91504207658003,35.93971654598755
1.8871900478496726,1.5919784826807761,1271,52,22.91504207658003,35.93971654598755
1.903105773958106,1.5919625666379644,1271,52,22.91504207658003,35.93971654598755
1.9190213409243322,1.591946650754302,1271,52,22.91504207658003,35.93971654598755
1.9349367487516627,1.591930735029785,1271,52,22.91504207658003,35.93971654598755
1.950851997443276,1.5919148194644106,1271,52,22.91504207658003,35.93971654598755
1.9667670870022298,1.5918989040581748,1271,52,22.91504207658003,35.93971654598755
1.9826820174314672,1.5918829888110748,1271,52,22.91504207658003,35.93971654598755
1.998596788733829,1.5918670737231073,1271,52,22.91504207658003,35.93971654598755
2.014511400912059,1.5918511587942696,1271,52,22.91504207658003,35.93971654598755
2.030425853968811,1.5918352440245587,1271,52,22.91504207658003,35.93971654598755
2.0463401479066596,1.591819329413972,1271,52,22.91504207658003,35.93971654598755
2.0622542827281016,1.5918034149625067,1271,52,22.91504207658003,35.93971654598755
2.078168258435565,1.5917875006701603,1271,52,22.91504207658003,35.93971654598755
2.094082075031413,1.5917715865369304,1271,52,22.91504207658003,35.93971654598755
2.1099957325179495,1.5917556725628144,1271,52,22.91504207658003,35.93971654598755
2.1259092308974235,1.59173975874781,1271,52,22.91504207658003,35.93971654598755
2.141822570172033,1.5917238450919147,1271,52,22.91504207658003,35.93971654598755
2.15773575034393,1.5917079315951266,1271,52,22.91504207658003,35.93971654598755
2.173648771415222,1.5916920182574434,1271,52,22.91504207658003,35.93971654598755
2.189561633387978,1.5916761050788628,1271,52,22.91504207658003,35.93971654598755
2.205474336264231,1.591660192059383,1271,52,22.91504207658003,35.93971654598755
2.221386880045976,1.5916442791990015,1271,52,22.91504207658003,35.93971654598755
2.237299264735182,1.5916283664977164,1271,52,22.91504207658003,35.93971654598755
2.253211490333785,1.591612453955526,1271,52,22.91504207658003,35.93971654598755
2.269123556843696,1.5915965415724282,1271,52,22.91504207658003,35.93971654598755
2.285035464266801,1.5915806293484207,1271,52,22.91504207658003,35.93971654598755
2.300947212604964,1.5915647172835021,1271,52,22.91504207658003,35.93971654598755
2.3168588018600276,1.5915488053776703,1271,52,22.91504207658003,35.93971654598755
2.3327702320338126,1.5915328936309232,1271,52,22.91504207658003,35.93971654598755
2.3486815031281263,1.5915169820432593,1271,52,22.91504207658003,35.93971654598755
2.364592615144756,1.5915010706146768,1271,52,22.91504207658003,35.93971654598755
2.380503568085476,1.5914851593451735,1271,52,22.91504207658003,35.93971654598755
2.396414361952044,1.5914692482347481,1271,52,22.91504207658003,35.93971654598755
2.412324996746207,1.5914533372833986,1271,52,22.91504207658003,35.93971654598755
2.428235472469699,1.591437426491123,1271,52,22.91504207658003,35.93971654598755
2.444145789124243,1.5914215158579201,1271,52,22.91504207658003,35.93971654598755
2.4600559467115524,1.5914056053837877,1271,52,22.91504207658003,35.93971654598755
2.4759659452333294,1.591389695068724,1271,52,22.91504207658003,35.93971654598755
2.49187578469127,1.5913737849127279,1271,52,22.91504207658003,35.93971654598755
2.5077854650870606,1.591357874915797,1271,52,22.91504207658003,35.93971654598755
2.523694986422379,1.5913419650779301,1271,52,22.91504207658003,35.93971654598755
2.5396043486988993,1.5913260553991255,1271,52,22.91504207658003,35.93971654598755
2.555513551918286,1.591310145879381,1271,52,22.91504207658003,35.93971654598755
2.5714225960822006,1.5912942365186955,1271,52,22.91504207658003,35.93971654598755
2.587331481192297,1.5912783273170672,1271,52,22.91504207658003,35.93971654598755
2.603240207250225,1.591262418274494,1271,52,22.91504207658003,35.93971654598755
2.6191487742576305,1.591246509390975,1271,52,22.91504207658003,35.93971654598755
2.6350571822161535,1.591230600666508,1271,52,22.91504207658003,35.93971654598755
2.6509654311274313,1.5912146921010915,1271,52,22.91504207658003,35.93971654598755
2.6668735209930974,1.5911987836947237,1271,52,22.91504207658003,35.93971654598755
2.682781451814781,1.5911828754474033,1271,52,22.91504207658003,35.93971654598755
2.6986892235941107,1.5911669673591284,1271,52,22.91504207658003,35.93971654598755
2.714596836332709,1.5911510594298977,1271,52,22.91504207658003,35.93971654598755
2.7305042900321994,1.5911351516597092,1271,52,22.91504207658003,35.93971654598755
2.7464115846941985,1.5911192440485613,1271,52,22.91504207658003,35.93971654598755
2.762318720320324,1.5911033365964526,1271,52,22.91504207658003,35.93971654598755
2.778225696912191,1.5910874293033814,1271,52,22.91504207658003,35.93971654598755
2.794132514471412,1.5910715221693459,1271,52,22.91504207658003,35.93971654598755
2.810039172999597,1.591055615194345,1271,52,22.91504207658003,35.93971654598755
2.8259456724983574,1.5910397083783763,1271,52,22.91504207658003,35.93971654598755
2.8418520129692992,1.5910238017214389,1271,52,22.91504207658003,35.93971654598755
2.8577581944140307,1.5910078952235307,1271,52,22.91504207658003,35.93971654598755
2.8736642168341553,1.5909919888846504,1271,52,22.91504207658003,35.93971654598755
2.8895700802312776,1.5909760827047965,1271,52,22.91504207658003,35.93971654598755
2.9054757846070007,1.590960176683967,1271,52,22.91504207658003,35.93971654598755
2.921381329962927,1.5909442708221604,1271,52,22.91504207658003,35.93971654598755
2.937286716300656,1.5909283651193753,1271,52,22.91504207658003,35.93971654598755
2.9531919436217895,1.59091245957561,1271,52,22.91504207658003,35.93971654598755
2.969097011927925,1.5908965541908628,1271,52,22.91504207658003,35.93971654598755
2.985001921220661,1.5908806489651321,1271,52,22.91504207658003,35.93971654598755
3.0009066715015966,1.5908647438984167,1271,52,22.91504207658003,35.93971654598755
3.0168112627723285,1.5908488389907145,1271,52,22.91504207658003,35.93971654598755
3.032715695034453,1.590832934242024,1271,52,22.91504207658003,35.93971654598755
3.0486199682895667,1.5908170296523438,1271,52,22.91504207658003,35.93971654598755
3.0645240825392643,1.590801125221672,1271,52,22.91504207658003,35.93971654598755
3.080428037785142,1.5907852209500075,1271,52,22.91504207658003,35.93971654598755
3.096331834028794,1.5907693168373482,1271,52,22.91504207658003,35.93971654598755
3.112235471271814,1.5907534128836927,1271,52,22.91504207658003,35.93971654598755
3.128138949515796,1.5907375090890394,1271,52,22.91504207658003,35.93971654598755
3.144042268762335,1.5907216054533868,1271,52,22.91504207658003,35.93971654598755
3.1599454290130216,1.5907057019767332,1271,52,22.91504207658003,35.93971654598755
3.175848430269451,1.5906897986590771,1271,52,22.91504207658003,35.93971654598755
3.1917512725332147,1.5906738955004167,1271,52,22.91504207658003,35.93971654598755
3.207653955805905,1.5906579925007507,1271,52,22.91504207658003,35.93971654598755
3.223556480089115,1.5906420896600773,1271,52,22.91504207658003,35.93971654598755
3.2394588453844357,1.5906261869783949,1271,52,22.91504207658003,35.93971654598755
3.255361051693459,1.590610284455702,1271,52,22.91504207658003,35.93971654598755
3.2712630990177773,1.5905943820919968,1271,52,22.91504207658003,35.93971654598755
3.287164987358981,1.590578479887278,1271,52,22.91504207658003,35.93971654598755
3.303066716718662,1.590562577841544,1271,52,22.91504207658003,35.93971654598755
3.3189682870984103,1.590546675954793,1271,52,22.91504207658003,35.93971654598755
3.3348696984998187,1.5905307742270236,1271,52,22.91504207658003,35.93971654598755
3.350770950924476,1.5905148726582339,1271,52,22.91504207658003,35.93971654598755
3.3666720443739733,1.5904989712484228,1271,52,22.91504207658003,35.93971654598755
3.382572978849902,1.5904830699975883,1271,52,22.91504207658003,35.93971654598755
3.3984737543538523,1.5904671689057288,1271,52,22.91504207658003,35.93971654598755
3.414374370887414,1.590451267972843,1271,52,22.91504207658003,35.93971654598755
3.4302748284521787,1.5904353671989293,1271,52,22.91504207658003,35.93971654598755
3.4461751270497345,1.5904194665839857,1271,52,22.91504207658003,35.93971654598755
3.4620752666816736,1.5904035661280111,1271,52,22.91504207658003,35.93971654598755
3.477975247349585,1.5903876658310037,1271,52,22.91504207658003,35.93971654598755
3.493875069055058,1.5903717656929617,1271,52,22.91504207658003,35.93971654598755
3.5097747317996837,1.5903558657138839,1271,52,22.91504207658003,35.93971654598755
3.5256742355850514,1.5903399658937682,1271,52,22.91504207658003,35.93971654598755
3.5415735804127504,1.5903240662326137,1271,52,22.91504207658003,35.93971654598755
3.557472766284371,1.5903081667304184,1271,52,22.91504207658003,35.93971654598755
3.573371793201502,1.5902922673871807,1271,52,22.91504207658003,35.93971654598755
3.5892706611657332,1.5902763682028989,1271,52,22.91504207658003,35.93971654598755
3.605169370178656,1.5902604691775717,1271,52,22.91504207658003,35.93971654598755
3.621067920241858,1.5902445703111974,1271,52,22.91504207658003,35.93971654598755
3.636966311356929,1.5902286716037743,1271,52,22.91504207658003,35.93971654598755
3.6528645435254576,1.590212773055301,1271,52,22.91504207658003,35.93971654598755
3.6687626167490346,1.590196874665776,1271,52,22.91504207658003,35.93971654598755
3.684660531029249,1.5901809764351973,1271,52,22.91504207658003,35.93971654598755
3.700558286367689,1.5901650783635635,1271,52,22.91504207658003,35.93971654598755
3.716455882765946,1.5901491804508732,1271,52,22.91504207658003,35.93971654598755
3.732353320225608,1.5901332826971244,1271,52,22.91504207658003,35.93971654598755
3.748250598748263,1.590117385102316,1271,52,22.91504207658003,35.93971654598755
3.7641477183355025,1.590101487666446,1271,52,22.91504207658003,35.93971654598755
3.7800446789889146,1.5900855903895132,1271,52,22.91504207658003,35.93971654598755
3.7959414807100873,1.5900696932715157,1271,52,22.91504207658003,35.93971654598755
3.811838123500611,1.590053796312452,1271,52,22.91504207658003,35.93971654598755
3.827734607362075,1.5900378995123206,1271,52,22.91504207658003,35.93971654598755
