Vout,Iout,Irradiance,Temperature,MaxVoltage,MaxPower
0.004968792223151701,0.9937679999999999,881,-11,19.278975330091175,18.787523647568655
0.014906284791784116,0.9937679999999999,881,-11,19.278975330091175,18.787523647568655
0.02484357533368517,0.9937629318309767,881,-11,19.278975330091175,18.787523647568655
0.0347806277568462,0.9937529943384081,881,-11,19.278975330091175,18.787523647568655
0.044717430265772636,0.993743057048373,881,-11,19.278975330091175,18.787523647568655
0.05465399444738952,0.9937331199969436,881,-11,19.278975330091175,18.787523647568655
0.06459033099751232,0.9937231831954284,881,-11,19.278975330091175,18.787523647568655
0.07452644978919017,0.9937132466322405,881,-11,19.278975330091175,18.787523647568655
0.0844623599359007,0.993703310296684,881,-11,19.278975330091175,18.787523647568655
0.09439806984999263,0.993693374178886,881,-11,19.278975330091175,18.787523647568655
0.10433358729663181,0.9936834382697329,881,-11,19.278975330091175,18.787523647568655
0.11426891944359636,0.9936735025608124,881,-11,19.278975330091175,18.787523647568655
0.12420407290724073,0.9936635670443594,881,-11,19.278975330091175,18.787523647568655
0.13413905379492305,0.993653631713206,881,-11,19.278975330091175,18.787523647568655
0.14407386774416805,0.9936436965607359,881,-11,19.278975330091175,18.787523647568655
0.154008519958817,0.9936337615808418,881,-11,19.278975330091175,18.787523647568655
0.16394301524239563,0.9936238267678861,881,-11,19.278975330091175,18.787523647568655
0.1738773580289154,0.993613892116665,881,-11,19.278975330091175,18.787523647568655
0.18381155241130429,0.9936039576223749,881,-11,19.278975330091175,18.787523647568655
0.1937456021676504,0.9935940232805818,881,-11,19.278975330091175,18.787523647568655
0.20367951078542612,0.9935840890871928,881,-11,19.278975330091175,18.787523647568655
0.2136132814838487,0.9935741550384299,881,-11,19.278975330091175,18.787523647568655
0.22354691723452003,0.9935642211308056,881,-11,19.278975330091175,18.787523647568655
0.23348042078047876,0.9935542873611005,881,-11,19.278975330091175,18.787523647568655
0.24341379465378624,0.9935443537263432,881,-11,19.278975330091175,18.787523647568655
0.2533470411917593,0.9935344202237907,881,-11,19.278975330091175,18.787523647568655
0.2632801625519546,0.9935244868509107,881,-11,19.278975330091175,18.787523647568655
0.2732131607259989,0.9935145536053661,881,-11,19.278975330091175,18.787523647568655
0.28314603755235684,0.9935046204849992,881,-11,19.278975330091175,18.787523647568655
0.2930787947281151,0.9934946874878186,881,-11,19.278975330091175,18.787523647568655
0.30301143381986,0.9934847546119855,881,-11,19.278975330091175,18.787523647568655
0.31294395627371874,0.993474821855803,881,-11,19.278975330091175,18.787523647568655
0.32287636342462755,0.9934648892177046,881,-11,19.278975330091175,18.787523647568655
0.3328086565048871,0.993454956696244,881,-11,19.278975330091175,18.787523647568655
0.34274083665205896,0.9934450242900863,881,-11,19.278975330091175,18.787523647568655
0.35267290491625575,0.9934350919979993,881,-11,19.278975330091175,18.787523647568655
0.3626048622668688,0.9934251598188454,881,-11,19.278975330091175,18.787523647568655
0.37253670959877927,0.9934152277515744,881,-11,19.278975330091175,18.787523647568655
0.38246844773809147,0.993405295795217,881,-11,19.278975330091175,18.787523647568655
0.3924000774474241,0.9933953639488783,881,-11,19.278975330091175,18.787523647568655
0.4023315994307952,0.9933854322117323,881,-11,19.278975330091175,18.787523647568655
0.4122630143381309,0.993375500583016,881,-11,19.278975330091175,18.787523647568655
0.4221943227694273,0.9933655690620259,881,-11,19.278975330091175,18.787523647568655
0.4321255252785924,0.9933556376481116,881,-11,19.278975330091175,18.787523647568655
0.4420566223769917,0.9933457063406735,881,-11,19.278975330091175,18.787523647568655
0.45198761453672237,0.9933357751391575,881,-11,19.278975330091175,18.787523647568655
0.4619185021936335,0.9933258440430522,881,-11,19.278975330091175,18.787523647568655
0.4718492857501158,0.9933159130518856,881,-11,19.278975330091175,18.787523647568655
0.48177996557767583,0.9933059821652218,881,-11,19.278975330091175,18.787523647568655
0.49171054201931214,0.9932960513826584,881,-11,19.278975330091175,18.787523647568655
0.5016410153917089,0.9932861207038239,881,-11,19.278975330091175,18.787523647568655
0.5115713859872604,0.9932761901283754,881,-11,19.278975330091175,18.787523647568655
0.5215016540759398,0.9932662596559961,881,-11,19.278975330091175,18.787523647568655
0.531431819907025,0.9932563292863936,881,-11,19.278975330091175,18.787523647568655
0.5413618837106902,0.993246399019298,881,-11,19.278975330091175,18.787523647568655
0.5512918456994753,0.9932364688544599,881,-11,19.278975330091175,18.787523647568655
0.5612217060696444,0.9932265387916492,881,-11,19.278975330091175,18.787523647568655
0.5711514650024367,0.9932166088306535,881,-11,19.278975330091175,18.787523647568655
0.581081122665223,0.9932066789712763,881,-11,19.278975330091175,18.787523647568655
0.5910106792125724,0.9931967492133366,881,-11,19.278975330091175,18.787523647568655
0.6009401347872381,0.9931868195566668,881,-11,19.278975330091175,18.787523647568655
0.6108694895210651,0.9931768900011124,881,-11,19.278975330091175,18.787523647568655
0.6207987435358316,0.9931669605465306,881,-11,19.278975330091175,18.787523647568655
0.6307278969440211,0.9931570311927899,881,-11,19.278975330091175,18.787523647568655
0.6406569498495398,0.993147101939768,881,-11,19.278975330091175,18.787523647568655
0.6505859023483751,0.9931371727873527,881,-11,19.278975330091175,18.787523647568655
0.6605147545292054,0.9931272437354401,881,-11,19.278975330091175,18.787523647568655
0.6704435064739623,0.9931173147839342,881,-11,19.278975330091175,18.787523647568655
0.6803721582583498,0.9931073859327463,881,-11,19.278975330091175,18.787523647568655
0.6903007099523236,0.9930974571817944,881,-11,19.278975330091175,18.787523647568655
0.7002291616205332,0.9930875285310029,881,-11,19.278975330091175,18.787523647568655
0.71015751332273,0.9930775999803019,881,-11,19.278975330091175,18.787523647568655
0.720085765114145,0.9930676715296265,881,-11,19.278975330091175,18.787523647568655
0.7300139170458354,0.9930577431789172,881,-11,19.278975330091175,18.787523647568655
0.7399419691650062,0.9930478149281186,881,-11,19.278975330091175,18.787523647568655
0.7498699215153074,0.9930378867771797,881,-11,19.278975330091175,18.787523647568655
0.759797774137106,0.9930279587260534,881,-11,19.278975330091175,18.787523647568655
0.7697255270677404,0.9930180307746959,881,-11,19.278975330091175,18.787523647568655
0.7796531803417516,0.9930081029230668,881,-11,19.278975330091175,18.787523647568655
0.7895807339910997,0.9929981751711291,881,-11,19.278975330091175,18.787523647568655
0.7995081880453624,0.9929882475188478,881,-11,19.278975330091175,18.787523647568655
0.809435542531917,0.9929783199661912,881,-11,19.278975330091175,18.787523647568655
0.8193627974761116,0.9929683925131297,881,-11,19.278975330091175,18.787523647568655
0.8292899529014202,0.9929584651596359,881,-11,19.278975330091175,18.787523647568655
0.8392170088295864,0.9929485379056845,881,-11,19.278975330091175,18.787523647568655
0.849143965280758,0.9929386107512519,881,-11,19.278975330091175,18.787523647568655
0.8590708222736083,0.9929286836963165,881,-11,19.278975330091175,18.787523647568655
0.8689975798254505,0.992918756740858,881,-11,19.278975330091175,18.787523647568655
0.8789242379523419,0.9929088298848578,881,-11,19.278975330091175,18.787523647568655
0.8888507966691805,0.9928989031282988,881,-11,19.278975330091175,18.787523647568655
0.8987772559897949,0.9928889764711646,881,-11,19.278975330091175,18.787523647568655
0.9087036159270253,0.9928790499134403,881,-11,19.278975330091175,18.787523647568655
0.9186298764928008,0.9928691234551125,881,-11,19.278975330091175,18.787523647568655
0.9285560376982088,0.9928591970961679,881,-11,19.278975330091175,18.787523647568655
0.9384820995535601,0.9928492708365947,881,-11,19.278975330091175,18.787523647568655
0.9484080620684482,0.9928393446763819,881,-11,19.278975330091175,18.787523647568655
0.9583339252518053,0.9928294186155192,881,-11,19.278975330091175,18.787523647568655
0.9682596891119519,0.9928194926539969,881,-11,19.278975330091175,18.787523647568655
0.9781853536566455,0.9928095667918062,881,-11,19.278975330091175,18.787523647568655
0.9881109188931225,0.9927996410289387,881,-11,19.278975330091175,18.787523647568655
0.9980363848281393,0.9927897153653865,881,-11,19.278975330091175,18.787523647568655
1.0079617514680075,0.9927797898011427,881,-11,19.278975330091175,18.787523647568655
1.0178870188186315,0.9927698643362002,881,-11,19.278975330091175,18.787523647568655
1.0278121868855357,0.9927599389705529,881,-11,19.278975330091175,18.787523647568655
1.0377372556738973,0.9927500137041948,881,-11,19.278975330091175,18.787523647568655
1.0476622251885703,0.9927400885371205,881,-11,19.278975330091175,18.787523647568655
1.0575870954341124,0.9927301634693246,881,-11,19.278975330091175,18.787523647568655
1.0675118664148067,0.9927202385008025,881,-11,19.278975330091175,18.787523647568655
1.0774365381346824,0.9927103136315494,881,-11,19.278975330091175,18.787523647568655
1.0873611105975363,0.9927003888615612,881,-11,19.278975330091175,18.787523647568655
1.0972855838069484,0.9926904641908338,881,-11,19.278975330091175,18.787523647568655
1.1072099577662997,0.9926805396193634,881,-11,19.278975330091175,18.787523647568655
1.1171342324787874,0.9926706151471465,881,-11,19.278975330091175,18.787523647568655
1.1270584079474397,0.9926606907741796,881,-11,19.278975330091175,18.787523647568655
1.136982484175127,0.9926507665004596,881,-11,19.278975330091175,18.787523647568655
1.146906461164576,0.9926408423259834,881,-11,19.278975330091175,18.787523647568655
1.1568303389183796,0.9926309182507481,881,-11,19.278975330091175,18.787523647568655
1.1667541174390073,0.992620994274751,881,-11,19.278975330091175,18.787523647568655
1.1766777967288153,0.9926110703979897,881,-11,19.278975330091175,18.787523647568655
1.1866013767900547,0.9926011466204614,881,-11,19.278975330091175,18.787523647568655
1.19652485762488,0.9925912229421641,881,-11,19.278975330091175,18.787523647568655
1.206448239235355,0.9925812993630951,881,-11,19.278975330091175,18.787523647568655
1.216371521623463,0.9925713758832527,881,-11,19.278975330091175,18.787523647568655
1.226294704791109,0.9925614525026346,881,-11,19.278975330091175,18.787523647568655
1.236217788740129,0.9925515292212388,881,-11,19.278975330091175,18.787523647568655
1.2461407734722945,0.9925416060390635,881,-11,19.278975330091175,18.787523647568655
1.256063658989315,0.9925316829561068,881,-11,19.278975330091175,18.787523647568655
1.2659864452928464,0.992521759972367,881,-11,19.278975330091175,18.787523647568655
1.2759091323844933,0.9925118370878423,881,-11,19.278975330091175,18.787523647568655
1.2858317202658127,0.992501914302531,881,-11,19.278975330091175,18.787523647568655
1.2957542089383183,0.9924919916164316,881,-11,19.278975330091175,18.787523647568655
1.3056765984034837,0.9924820690295426,881,-11,19.278975330091175,18.787523647568655
1.3155988886627454,0.9924721465418624,881,-11,19.278975330091175,18.787523647568655
1.3255210797175057,0.9924622241533895,881,-11,19.278975330091175,18.787523647568655
1.335443171569135,0.9924523018641225,881,-11,19.278975330091175,18.787523647568655
1.3453651642189755,0.9924423796740599,881,-11,19.278975330091175,18.787523647568655
1.3552870576683407,0.9924324575832005,881,-11,19.278975330091175,18.787523647568655
1.3652088519185213,0.9924225355915429,881,-11,19.278975330091175,18.787523647568655
1.3751305469707835,0.9924126136990857,881,-11,19.278975330091175,18.787523647568655
1.385052142826373,0.9924026919058277,881,-11,19.278975330091175,18.787523647568655
1.3949736394865162,0.9923927702117677,881,-11,19.278975330091175,18.787523647568655
1.4048950369524207,0.9923828486169043,881,-11,19.278975330091175,18.787523647568655
1.414816335225278,0.9923729271212364,881,-11,19.278975330091175,18.787523647568655
1.4247375343062643,0.9923630057247625,881,-11,19.278975330091175,18.787523647568655
1.4346586341965413,0.9923530844274819,881,-11,19.278975330091175,18.787523647568655
1.4445796348972575,0.9923431632293931,881,-11,19.278975330091175,18.787523647568655
1.4545005364095498,0.9923332421304949,881,-11,19.278975330091175,18.787523647568655
1.4644213387345433,0.9923233211307863,881,-11,19.278975330091175,18.787523647568655
1.4743420418733535,0.9923134002302662,881,-11,19.278975330091175,18.787523647568655
1.484262645827086,0.9923034794289333,881,-11,19.278975330091175,18.787523647568655
1.4941831505968366,0.9922935587267865,881,-11,19.278975330091175,18.787523647568655
1.5041035561836955,0.9922836381238248,881,-11,19.278975330091175,18.787523647568655
1.5140238625887432,0.9922737176200471,881,-11,19.278975330091175,18.787523647568655
1.5239440698130546,0.9922637972154523,881,-11,19.278975330091175,18.787523647568655
1.5338641778576976,0.9922538769100394,881,-11,19.278975330091175,18.787523647568655
1.5437841867237339,0.992243956703807,881,-11,19.278975330091175,18.787523647568655
1.5537040964122197,0.9922340365967545,881,-11,19.278975330091175,18.787523647568655
1.563623906924208,0.9922241165888804,881,-11,19.278975330091175,18.787523647568655
1.5735436182607447,0.992214196680184,881,-11,19.278975330091175,18.787523647568655
1.583463230422872,0.992204276870664,881,-11,19.278975330091175,18.787523647568655
1.5933827434116299,0.9921943571603195,881,-11,19.278975330091175,18.787523647568655
1.6033021572280528,0.9921844375491493,881,-11,19.278975330091175,18.787523647568655
1.6132214718731726,0.9921745180371525,881,-11,19.278975330091175,18.787523647568655
1.623140687348018,0.992164598624328,881,-11,19.278975330091175,18.787523647568655
1.6330598036536152,0.9921546793106749,881,-11,19.278975330091175,18.787523647568655
1.6429788207909868,0.992144760096192,881,-11,19.278975330091175,18.787523647568655
1.6528977387611534,0.9921348409808783,881,-11,19.278975330091175,18.787523647568655
1.662816557565134,0.9921249219647329,881,-11,19.278975330091175,18.787523647568655
1.6727352772039443,0.9921150030477546,881,-11,19.278975330091175,18.787523647568655
1.6826538976785987,0.9921050842299426,881,-11,19.278975330091175,18.787523647568655
1.6925724189901104,0.9920951655112956,881,-11,19.278975330091175,18.787523647568655
1.70249084113949,0.9920852468918129,881,-11,19.278975330091175,18.787523647568655
1.712409164127747,0.9920753283714933,881,-11,19.278975330091175,18.787523647568655
1.7223273879558894,0.9920654099503357,881,-11,19.278975330091175,18.787523647568655
1.732245512624924,0.9920554916283393,881,-11,19.278975330091175,18.787523647568655
1.742163538135857,0.992045573405503,881,-11,19.278975330091175,18.787523647568655
1.7520814644896916,0.9920356552818258,881,-11,19.278975330091175,18.787523647568655
1.7619992916874325,0.9920257372573067,881,-11,19.278975330091175,18.787523647568655
1.771917019730082,0.9920158193319446,881,-11,19.278975330091175,18.787523647568655
1.7818346486186407,0.9920059015057388,881,-11,19.278975330091175,18.787523647568655
1.7917521783541106,0.9919959837786878,881,-11,19.278975330091175,18.787523647568655
1.801669608937491,0.9919860661507911,881,-11,19.278975330091175,18.787523647568655
1.8115869403697822,0.9919761486220474,881,-11,19.278975330091175,18.787523647568655
1.8215041726519818,0.9919662311924557,881,-11,19.278975330091175,18.787523647568655
1.8314213057850888,0.9919563138620152,881,-11,19.278975330091175,18.787523647568655
1.8413383397701004,0.9919463966307248,881,-11,19.278975330091175,18.787523647568655
1.8512552746080144,0.9919364794985834,881,-11,19.278975330091175,18.787523647568655
1.8611721102998273,0.9919265624655901,881,-11,19.278975330091175,18.787523647568655
1.8710888468465352,0.9919166455317439,881,-11,19.278975330091175,18.787523647568655
1.8810054842491328,0.9919067286970438,881,-11,19.278975330091175,18.787523647568655
1.8909220225086176,0.9918968119614888,881,-11,19.278975330091175,18.787523647568655
1.9008384616259837,0.9918868953250779,881,-11,19.278975330091175,18.787523647568655
1.9107548016022255,0.9918769787878101,881,-11,19.278975330091175,18.787523647568655
1.9206710424383382,0.9918670623496844,881,-11,19.278975330091175,18.787523647568655
1.930587184135316,0.9918571460106997,881,-11,19.278975330091175,18.787523647568655
1.940503226694153,0.9918472297708553,881,-11,19.278975330091175,18.787523647568655
1.9504191701158433,0.9918373136301499,881,-11,19.278975330091175,18.787523647568655
1.9603350144013796,0.9918273975885827,881,-11,19.278975330091175,18.787523647568655
1.9702507595517562,0.9918174816461527,881,-11,19.278975330091175,18.787523647568655
1.9801664055679653,0.9918075658028588,881,-11,19.278975330091175,18.787523647568655
1.9900819524510007,0.9917976500586999,881,-11,19.278975330091175,18.787523647568655
1.999997400201855,0.9917877344136753,881,-11,19.278975330091175,18.787523647568655
2.0099127488215203,0.9917778188677838,881,-11,19.278975330091175,18.787523647568655
2.019827998310991,0.9917679034210246,881,-11,19.278975330091175,18.787523647568655
2.0297431486712583,0.9917579880733964,881,-11,19.278975330091175,18.787523647568655
2.039658199903314,0.9917480728248985,881,-11,19.278975330091175,18.787523647568655
2.0495731520081515,0.9917381576755299,881,-11,19.278975330091175,18.787523647568655
2.059488004986762,0.9917282426252892,881,-11,19.278975330091175,18.787523647568655
2.069402758840139,0.991718327674176,881,-11,19.278975330091175,18.787523647568655
2.0793174135692722,0.9917084128221888,881,-11,19.278975330091175,18.787523647568655
2.089231969175155,0.991698498069327,881,-11,19.278975330091175,18.787523647568655
2.09914642565878,0.9916885834155893,881,-11,19.278975330091175,18.787523647568655
2.1090607830211368,0.9916786688609749,881,-11,19.278975330091175,18.787523647568655
2.118975041263218,0.9916687544054827,881,-11,19.278975330091175,18.787523647568655
2.1288892003860154,0.9916588400491119,881,-11,19.278975330091175,18.787523647568655
2.1388032603905205,0.9916489257918613,881,-11,19.278975330091175,18.787523647568655
2.1487172212777246,0.9916390116337298,881,-11,19.278975330091175,18.787523647568655
2.1586310830486193,0.9916290975747167,881,-11,19.278975330091175,18.787523647568655
2.1685448457041963,0.9916191836148209,881,-11,19.278975330091175,18.787523647568655
2.1784585092454467,0.9916092697540415,881,-11,19.278975330091175,18.787523647568655
2.188372073673361,0.9915993559923774,881,-11,19.278975330091175,18.787523647568655
2.1982855389889315,0.9915894423298275,881,-11,19.278975330091175,18.787523647568655
2.2081989051931488,0.9915795287663909,881,-11,19.278975330091175,18.787523647568655
2.2181121722870047,0.9915696153020667,881,-11,19.278975330091175,18.787523647568655
2.2280253402714894,0.9915597019368538,881,-11,19.278975330091175,18.787523647568655
2.2379384091475956,0.9915497886707514,881,-11,19.278975330091175,18.787523647568655
2.247851378916312,0.9915398755037582,881,-11,19.278975330091175,18.787523647568655
2.257764249578632,0.9915299624358734,881,-11,19.278975330091175,18.787523647568655
2.2676770211355453,0.991520049467096,881,-11,19.278975330091175,18.787523647568655
2.2775896935880438,0.991510136597425,881,-11,19.278975330091175,18.787523647568655
2.2875022669371172,0.9915002238268594,881,-11,19.278975330091175,18.787523647568655
2.2974147411837578,0.9914903111553982,881,-11,19.278975330091175,18.787523647568655
2.3073271163289557,0.9914803985830404,881,-11,19.278975330091175,18.787523647568655
2.317239392373702,0.991470486109785,881,-11,19.278975330091175,18.787523647568655
2.3271515693189877,0.991460573735631,881,-11,19.278975330091175,18.787523647568655
