Vout,Iout,Irradiance,Temperature,MaxVoltage,MaxPower
0.004603585734752551,0.920726,751,38,22.87579199233512,20.539443234959037
0.013810672079600295,0.920726,751,38,22.87579199233512,20.539443234959037
0.023017571246692004,0.9207213043416653,751,38,22.87579199233512,20.539443234959037
0.03222424979678354,0.9207120972553204,751,38,22.87579199233512,20.539443234959037
0.041430696801349795,0.9207028903566229,751,38,22.87579199233512,20.539443234959037
0.05063692299567624,0.9206936836789935,751,38,22.87579199233512,20.539443234959037
0.0598429382894353,0.9206844772329097,751,38,22.87579199233512,20.539443234959037
0.06904875183000651,0.920675271007636,751,38,22.87579199233512,20.539443234959037
0.07825437206102644,0.9206660649932629,751,38,22.87579199233512,20.539443234959037
0.08745980677653571,0.9206568591806429,751,38,22.87579199233512,20.539443234959037
0.09666506317096006,0.9206476535613325,751,38,22.87579199233512,20.539443234959037
0.10587014788524557,0.9206384481275376,751,38,22.87579199233512,20.539443234959037
0.1150750670494443,0.9206292428720637,751,38,22.87579199233512,20.539443234959037
0.12427982632202318,0.92062003778827,751,38,22.87579199233512,20.539443234959037
0.1334844309261487,0.9206108328700263,751,38,22.87579199233512,20.539443234959037
0.14268888568317933,0.9206016281116742,751,38,22.87579199233512,20.539443234959037
0.1518931950435816,0.9205924235079906,751,38,22.87579199233512,20.539443234959037
0.16109736311546682,0.9205832190541541,751,38,22.87579199233512,20.539443234959037
0.17030139369093247,0.9205740147457141,751,38,22.87579199233512,20.539443234959037
0.17950529027037712,0.9205648105785627,751,38,22.87579199233512,20.539443234959037
0.1887090560849437,0.9205556065489077,751,38,22.87579199233512,20.539443234959037
0.19791269411723675,0.9205464026532486,751,38,22.87579199233512,20.539443234959037
0.20711620712044537,0.9205371988883544,751,38,22.87579199233512,20.539443234959037
0.21631959763599468,0.9205279952512425,751,38,22.87579199233512,20.539443234959037
0.2255228680098394,0.9205187917391597,751,38,22.87579199233512,20.539443234959037
0.23472602040750343,0.9205095883495645,751,38,22.87579199233512,20.539443234959037
0.24392905682796284,0.920500385080111,751,38,22.87579199233512,20.539443234959037
0.2531319791164599,0.9204911819286337,751,38,22.87579199233512,20.539443234959037
0.2623347889763319,0.9204819788931335,751,38,22.87579199233512,20.539443234959037
0.2715374879799295,0.9204727759717654,751,38,22.87579199233512,20.539443234959037
0.28074007757869485,0.9204635731628258,751,38,22.87579199233512,20.539443234959037
0.2899425591124648,0.9204543704647425,751,38,22.87579199233512,20.539443234959037
0.29914493381805785,0.920445167876064,751,38,22.87579199233512,20.539443234959037
0.3083472028372001,0.9204359653954506,751,38,22.87579199233512,20.539443234959037
0.3175493672238426,0.9204267630216652,751,38,22.87579199233512,20.539443234959037
0.3267514279509145,0.9204175607535663,751,38,22.87579199233512,20.539443234959037
0.3359533859165569,0.9204083585901,751,38,22.87579199233512,20.539443234959037
0.3451552419498772,0.920399156530293,751,38,22.87579199233512,20.539443234959037
0.35435699681626087,0.9203899545732477,751,38,22.87579199233512,20.539443234959037
0.3635586512222741,0.9203807527181345,751,38,22.87579199233512,20.539443234959037
0.37276020582018965,0.9203715509641883,751,38,22.87579199233512,20.539443234959037
0.381961661212164,0.9203623493107025,751,38,22.87579199233512,20.539443234959037
0.3911630179540935,0.9203531477570247,751,38,22.87579199233512,20.539443234959037
0.40036427655917384,0.9203439463025529,751,38,22.87579199233512,20.539443234959037
0.40956543750118535,0.9203347449467312,751,38,22.87579199233512,20.539443234959037
0.41876650121752573,0.9203255436890463,751,38,22.87579199233512,20.539443234959037
0.42796746811200925,0.9203163425290244,751,38,22.87579199233512,20.539443234959037
0.43716833855745096,0.9203071414662282,751,38,22.87579199233512,20.539443234959037
0.4463691128980516,0.9202979405002538,751,38,22.87579199233512,20.539443234959037
0.45556979145159937,0.9202887396307284,751,38,22.87579199233512,20.539443234959037
0.46477037451150205,0.920279538857308,751,38,22.87579199233512,20.539443234959037
0.473970862348663,0.9202703381796745,751,38,22.87579199233512,20.539443234959037
0.4831712552132123,0.9202611375975347,751,38,22.87579199233512,20.539443234959037
0.49237155333610594,0.9202519371106176,751,38,22.87579199233512,20.539443234959037
0.5015717569306001,0.9202427367186731,751,38,22.87579199233512,20.539443234959037
0.5107718661936135,0.9202335364214702,751,38,22.87579199233512,20.539443234959037
0.5199718813069845,0.9202243362187957,751,38,22.87579199233512,20.539443234959037
0.5291718024386312,0.9202151361104528,751,38,22.87579199233512,20.539443234959037
0.5383716297436223,0.9202059360962594,751,38,22.87579199233512,20.539443234959037
0.5475713633651667,0.9201967361760478,751,38,22.87579199233512,20.539443234959037
0.5567710034355248,0.9201875363496628,751,38,22.87579199233512,20.539443234959037
0.5659705500768513,0.9201783366169612,751,38,22.87579199233512,20.539443234959037
0.575170003401973,0.9201691369778109,751,38,22.87579199233512,20.539443234959037
0.584369363515107,0.9201599374320896,751,38,22.87579199233512,20.539443234959037
0.5935686305125215,0.9201507379796844,751,38,22.87579199233512,20.539443234959037
0.602767804483149,0.9201415386204912,751,38,22.87579199233512,20.539443234959037
0.6119668855091501,0.9201323393544137,751,38,22.87579199233512,20.539443234959037
0.6211658736664346,0.920123140181363,751,38,22.87579199233512,20.539443234959037
0.6303647690251419,0.920113941101257,751,38,22.87579199233512,20.539443234959037
0.6395635716500864,0.9201047421140196,751,38,22.87579199233512,20.539443234959037
0.6487622816011653,0.9200955432195808,751,38,22.87579199233512,20.539443234959037
0.657960898933739,0.9200863444178757,751,38,22.87579199233512,20.539443234959037
0.6671594236989783,0.9200771457088446,751,38,22.87579199233512,20.539443234959037
0.6763578559441878,0.9200679470924319,751,38,22.87579199233512,20.539443234959037
0.6855561957131034,0.9200587485685865,751,38,22.87579199233512,20.539443234959037
0.6947544430461664,0.9200495501372612,751,38,22.87579199233512,20.539443234959037
0.7039525979807774,0.920040351798412,751,38,22.87579199233512,20.539443234959037
0.7131506605515294,0.9200311535519988,751,38,22.87579199233512,20.539443234959037
0.7223486307904254,0.920021955397984,751,38,22.87579199233512,20.539443234959037
0.7315465087270765,0.9200127573363331,751,38,22.87579199233512,20.539443234959037
0.7407442943888857,0.9200035593670141,751,38,22.87579199233512,20.539443234959037
0.7499419878012189,0.9199943614899972,751,38,22.87579199233512,20.539443234959037
0.7591395889875606,0.9199851637052552,751,38,22.87579199233512,20.539443234959037
0.7683370979696595,0.9199759660127627,751,38,22.87579199233512,20.539443234959037
0.7775345147676618,0.9199667684124961,751,38,22.87579199233512,20.539443234959037
0.7867318394002333,0.9199575709044338,751,38,22.87579199233512,20.539443234959037
0.7959290718846754,0.9199483734885555,751,38,22.87579199233512,20.539443234959037
0.8051262122370285,0.9199391761648428,751,38,22.87579199233512,20.539443234959037
0.81432326047217,0.919929978933278,751,38,22.87579199233512,20.539443234959037
0.823520216603903,0.9199207817938454,751,38,22.87579199233512,20.539443234959037
0.8327170806450392,0.91991158474653,751,38,22.87579199233512,20.539443234959037
0.8419138526074758,0.9199023877913179,751,38,22.87579199233512,20.539443234959037
0.851110532502264,0.9198931909281965,751,38,22.87579199233512,20.539443234959037
0.8603071203396774,0.9198839941571538,751,38,22.87579199233512,20.539443234959037
0.8695036161292682,0.9198747974781787,751,38,22.87579199233512,20.539443234959037
0.8787000198799253,0.9198656008912609,751,38,22.87579199233512,20.539443234959037
0.8878963315999239,0.919856404396391,751,38,22.87579199233512,20.539443234959037
0.8970925512969734,0.91984720799356,751,38,22.87579199233512,20.539443234959037
0.9062886789782606,0.9198380116827597,751,38,22.87579199233512,20.539443234959037
0.9154847146504906,0.9198288154639823,751,38,22.87579199233512,20.539443234959037
0.9246806583199225,0.9198196193372206,751,38,22.87579199233512,20.539443234959037
0.933876509992405,0.919810423302468,751,38,22.87579199233512,20.539443234959037
0.9430722696734074,0.9198012273597181,751,38,22.87579199233512,20.539443234959037
0.952267937368049,0.9197920315089653,751,38,22.87579199233512,20.539443234959037
0.9614635130811259,0.9197828357502039,751,38,22.87579199233512,20.539443234959037
0.9706589968171355,0.9197736400834289,751,38,22.87579199233512,20.539443234959037
0.9798543885803005,0.9197644445086354,751,38,22.87579199233512,20.539443234959037
0.9890496883745892,0.919755249025819,751,38,22.87579199233512,20.539443234959037
0.9982448962037349,0.9197460536349753,751,38,22.87579199233512,20.539443234959037
1.0074400120712548,0.9197368583361005,751,38,22.87579199233512,20.539443234959037
1.0166350359804661,0.919727663129191,751,38,22.87579199233512,20.539443234959037
1.0258299679345015,0.919718468014243,751,38,22.87579199233512,20.539443234959037
1.035024807936323,0.9197092729912533,751,38,22.87579199233512,20.539443234959037
1.044219555988736,0.9197000780602187,751,38,22.87579199233512,20.539443234959037
1.0534142120944,0.9196908832211365,751,38,22.87579199233512,20.539443234959037
1.0626087762558414,0.9196816884740036,751,38,22.87579199233512,20.539443234959037
1.0718032484754627,0.9196724938188173,751,38,22.87579199233512,20.539443234959037
1.0809976287555516,0.9196632992555753,751,38,22.87579199233512,20.539443234959037
1.0901919170982912,0.9196541047842752,751,38,22.87579199233512,20.539443234959037
1.0993861135057674,0.9196449104049146,751,38,22.87579199233512,20.539443234959037
1.1085802179799757,0.9196357161174913,751,38,22.87579199233512,20.539443234959037
1.1177742305228293,0.9196265219220032,751,38,22.87579199233512,20.539443234959037
1.1269681511361649,0.9196173278184484,751,38,22.87579199233512,20.539443234959037
1.1361619798217475,0.919608133806825,751,38,22.87579199233512,20.539443234959037
1.1453557165812787,0.9195989398871312,751,38,22.87579199233512,20.539443234959037
1.1545493614163984,0.9195897460593649,751,38,22.87579199233512,20.539443234959037
1.1637429143286921,0.9195805523235248,751,38,22.87579199233512,20.539443234959037
1.1729363753196935,0.919571358679609,751,38,22.87579199233512,20.539443234959037
1.1821297443908887,0.9195621651276161,751,38,22.87579199233512,20.539443234959037
1.191323021543721,0.9195529716675445,751,38,22.87579199233512,20.539443234959037
1.2005162067795923,0.9195437782993926,751,38,22.87579199233512,20.539443234959037
1.2097093000998682,0.9195345850231591,751,38,22.87579199233512,20.539443234959037
1.2189023015058797,0.9195253918388426,751,38,22.87579199233512,20.539443234959037
1.2280952109989254,0.9195161987464416,751,38,22.87579199233512,20.539443234959037
1.2372880285802756,0.919507005745955,751,38,22.87579199233512,20.539443234959037
1.2464807542511736,0.9194978128373812,751,38,22.87579199233512,20.539443234959037
1.2556733880128368,0.9194886200207192,751,38,22.87579199233512,20.539443234959037
1.2648659298664602,0.9194794272959675,751,38,22.87579199233512,20.539443234959037
1.2740583798132175,0.9194702346631252,751,38,22.87579199233512,20.539443234959037
1.2832507378542628,0.9194610421221908,751,38,22.87579199233512,20.539443234959037
1.2924430039907322,0.9194518496731634,751,38,22.87579199233512,20.539443234959037
1.3016351782237447,0.9194426573160416,751,38,22.87579199233512,20.539443234959037
1.3108272605544042,0.9194334650508244,751,38,22.87579199233512,20.539443234959037
1.3200192509838002,0.9194242728775106,751,38,22.87579199233512,20.539443234959037
1.3292111495130094,0.9194150807960991,751,38,22.87579199233512,20.539443234959037
1.3384029561430961,0.9194058888065889,751,38,22.87579199233512,20.539443234959037
1.3475946708751125,0.919396696908979,751,38,22.87579199233512,20.539443234959037
1.356786293710102,0.919387505103268,751,38,22.87579199233512,20.539443234959037
1.365977824649098,0.9193783133894552,751,38,22.87579199233512,20.539443234959037
1.3751692636931243,0.9193691217675394,751,38,22.87579199233512,20.539443234959037
1.3843606108431976,0.9193599302375196,751,38,22.87579199233512,20.539443234959037
1.3935518661003263,0.9193507387993948,751,38,22.87579199233512,20.539443234959037
1.4027430294655125,0.9193415474531639,751,38,22.87579199233512,20.539443234959037
1.4119341009397512,0.9193323561988258,751,38,22.87579199233512,20.539443234959037
1.4211250805240319,0.9193231650363798,751,38,22.87579199233512,20.539443234959037
1.4303159682193392,0.9193139739658247,751,38,22.87579199233512,20.539443234959037
1.4395067640266517,0.9193047829871596,751,38,22.87579199233512,20.539443234959037
1.4486974679469433,0.9192955921003834,751,38,22.87579199233512,20.539443234959037
1.4578880799811844,0.9192864013054951,751,38,22.87579199233512,20.539443234959037
1.4670786001303413,0.9192772106024939,751,38,22.87579199233512,20.539443234959037
1.4762690283953763,0.9192680199913787,751,38,22.87579199233512,20.539443234959037
1.4854593647772483,0.9192588294721487,751,38,22.87579199233512,20.539443234959037
1.4946496092769128,0.9192496390448026,751,38,22.87579199233512,20.539443234959037
1.5038397618953234,0.9192404487093399,751,38,22.87579199233512,20.539443234959037
1.5130298226334304,0.9192312584657593,751,38,22.87579199233512,20.539443234959037
1.5222197914921822,0.9192220683140598,751,38,22.87579199233512,20.539443234959037
1.5314096684725236,0.9192128782542408,751,38,22.87579199233512,20.539443234959037
1.540599453575398,0.9192036882863011,751,38,22.87579199233512,20.539443234959037
1.5497891468017477,0.9191944984102397,751,38,22.87579199233512,20.539443234959037
1.5589787481525128,0.9191853086260559,751,38,22.87579199233512,20.539443234959037
1.5681682576286307,0.9191761189337485,751,38,22.87579199233512,20.539443234959037
1.5773576752310385,0.9191669293333167,751,38,22.87579199233512,20.539443234959037
1.5865470009606721,0.9191577398247596,751,38,22.87579199233512,20.539443234959037
1.5957362348184643,0.9191485504080761,751,38,22.87579199233512,20.539443234959037
1.6049253768053484,0.9191393610832654,751,38,22.87579199233512,20.539443234959037
1.614114426922256,0.9191301718503265,751,38,22.87579199233512,20.539443234959037
1.6233033851701182,0.9191209827092586,751,38,22.87579199233512,20.539443234959037
1.6324922515498637,0.9191117936600606,751,38,22.87579199233512,20.539443234959037
1.641681026062422,0.9191026047027316,751,38,22.87579199233512,20.539443234959037
1.6508697087087212,0.9190934158372708,751,38,22.87579199233512,20.539443234959037
1.660058299489688,0.9190842270636772,751,38,22.87579199233512,20.539443234959037
1.6692467984062498,0.9190750383819497,751,38,22.87579199233512,20.539443234959037
1.6784352054593321,0.9190658497920876,751,38,22.87579199233512,20.539443234959037
1.6876235206498602,0.9190566612940899,751,38,22.87579199233512,20.539443234959037
1.696811743978759,0.9190474728879557,751,38,22.87579199233512,20.539443234959037
1.7059998754469528,0.9190382845736841,751,38,22.87579199233512,20.539443234959037
1.7151879150553653,0.9190290963512739,751,38,22.87579199233512,20.539443234959037
1.7243758628049206,0.9190199082207247,751,38,22.87579199233512,20.539443234959037
1.7335637186965407,0.919010720182035,751,38,22.87579199233512,20.539443234959037
1.7427514827311492,0.9190015322352043,751,38,22.87579199233512,20.539443234959037
1.751939154909668,0.9189923443802315,751,38,22.87579199233512,20.539443234959037
1.7611267352330189,0.9189831566171157,751,38,22.87579199233512,20.539443234959037
1.7703142237021239,0.9189739689458559,751,38,22.87579199233512,20.539443234959037
1.779501620317904,0.9189647813664513,751,38,22.87579199233512,20.539443234959037
1.7886889250812814,0.918955593878901,751,38,22.87579199233512,20.539443234959037
1.797876137993176,0.918946406483204,751,38,22.87579199233512,20.539443234959037
1.8070632590545095,0.9189372191793593,751,38,22.87579199233512,20.539443234959037
1.8162502882662017,0.9189280319673662,751,38,22.87579199233512,20.539443234959037
1.8254372256291727,0.9189188448472236,751,38,22.87579199233512,20.539443234959037
1.8346240711443438,0.9189096578189306,751,38,22.87579199233512,20.539443234959037
1.843810824812634,0.9189004708824864,751,38,22.87579199233512,20.539443234959037
1.8529974866349637,0.9188912840378899,751,38,22.87579199233512,20.539443234959037
1.8621840566122527,0.9188820972851404,751,38,22.87579199233512,20.539443234959037
1.8713705347454208,0.9188729106242367,751,38,22.87579199233512,20.539443234959037
1.8805569210353874,0.918863724055178,751,38,22.87579199233512,20.539443234959037
1.8897432154830716,0.9188545375779635,751,38,22.87579199233512,20.539443234959037
1.8989294180893928,0.9188453511925923,751,38,22.87579199233512,20.539443234959037
1.9081155288552702,0.9188361648990632,751,38,22.87579199233512,20.539443234959037
1.9173015477816229,0.9188269786973755,751,38,22.87579199233512,20.539443234959037
1.92648747486937,0.9188177925875283,751,38,22.87579199233512,20.539443234959037
1.9356733101194308,0.9188086065695206,751,38,22.87579199233512,20.539443234959037
1.944859053532724,0.9187994206433514,751,38,22.87579199233512,20.539443234959037
1.954044705110168,0.91879023480902,751,38,22.87579199233512,20.539443234959037
1.9632302648526825,0.9187810490665252,751,38,22.87579199233512,20.539443234959037
1.9724157327611849,0.9187718634158664,751,38,22.87579199233512,20.539443234959037
1.9816011088365946,0.9187626778570425,751,38,22.87579199233512,20.539443234959037
1.9907863930798306,0.9187534923900526,751,38,22.87579199233512,20.539443234959037
1.999971585491811,0.9187443070148956,751,38,22.87579199233512,20.539443234959037
2.009156686073454,0.918735121731571,751,38,22.87579199233512,20.539443234959037
2.018341694825679,0.9187259365400775,751,38,22.87579199233512,20.539443234959037
2.027526611749404,0.9187167514404144,751,38,22.87579199233512,20.539443234959037
2.0367114368455463,0.9187075664325807,751,38,22.87579199233512,20.539443234959037
2.045896170115027,0.9186983815165755,751,38,22.87579199233512,20.539443234959037
2.0550808115587613,0.9186891966923979,751,38,22.87579199233512,20.539443234959037
2.06426536117767,0.9186800119600469,751,38,22.87579199233512,20.539443234959037
2.0734498189726693,0.9186708273195217,751,38,22.87579199233512,20.539443234959037
2.0826341849446783,0.9186616427708212,751,38,22.87579199233512,20.539443234959037
2.091818459094616,0.9186524583139446,751,38,22.87579199233512,20.539443234959037
2.1010026414233995,0.9186432739488911,751,38,22.87579199233512,20.539443234959037
2.1101867319319476,0.9186340896756596,751,38,22.87579199233512,20.539443234959037
2.1193707306211778,0.9186249054942492,751,38,22.87579199233512,20.539443234959037
2.1285546374920097,0.9186157214046591,751,38,22.87579199233512,20.539443234959037
2.137738452545359,0.9186065374068884,751,38,22.87579199233512,20.539443234959037
2.146922175782146,0.9185973535009359,751,38,22.87579199233512,20.539443234959037
2.156105807203289,0.9185881696868009,751,38,22.87579199233512,20.539443234959037
2.1652893468097036,0.9185789859644825,751,38,22.87579199233512,20.539443234959037
2.1744727946023095,0.9185698023339798,751,38,22.87579199233512,20.539443234959037
2.1836561505820247,0.9185606187952917,751,38,22.87579199233512,20.539443234959037
2.1928394147497667,0.9185514353484175,751,38,22.87579199233512,20.539443234959037
2.2020225871064536,0.9185422519933562,751,38,22.87579199233512,20.539443234959037
2.2112056676530036,0.9185330687301068,751,38,22.87579199233512,20.539443234959037
