Vout,Iout,Irradiance,Temperature,MaxVoltage,MaxPower
0.0085275880039615,1.7055339999999999,1531,-18,18.78033175776416,31.678423731744143
0.02558260632871126,1.7055339999999999,1531,-18,18.78033175776416,31.678423731744143
0.04263727792921628,1.7055253018585959,1531,-18,18.78033175776416,31.678423731744143
0.059691540863305054,1.7055082468402711,1531,-18,18.78033175776416,31.678423731744143
0.0767453748872013,1.7054911921695404,1531,-18,18.78033175776416,31.678423731744143
0.09379879988672814,1.7054741379083118,1531,-18,18.78033175776416,31.678423731744143
0.11085183421836001,1.7054570840759935,1531,-18,18.78033175776416,31.678423731744143
0.1279044948265155,1.7054400306526993,1531,-18,18.78033175776416,31.678423731744143
0.1449567973520142,1.705422977620073,1531,-18,18.78033175776416,31.678423731744143
0.1620087562323775,1.7054059249611704,1531,-18,18.78033175776416,31.678423731744143
0.1790603847944124,1.70538887266035,1531,-18,18.78033175776416,31.678423731744143
0.19611169533967152,1.705371820703175,1531,-18,18.78033175776416,31.678423731744143
0.21316269922333775,1.7053547690763182,1531,-18,18.78033175776416,31.678423731744143
0.23021340692703957,1.7053377177674782,1531,-18,18.78033175776416,31.678423731744143
0.24726382812606354,1.7053206667652996,1531,-18,18.78033175776416,31.678423731744143
0.26431397175139565,1.7053036160593011,1531,-18,18.78033175776416,31.678423731744143
0.2813638460469887,1.705286565639807,1531,-18,18.78033175776416,31.678423731744143
0.2984134586226243,1.705269515497887,1531,-18,18.78033175776416,31.678423731744143
0.31546281650270624,1.7052524656252963,1531,-18,18.78033175776416,31.678423731744143
0.33251192617130093,1.7052354160144256,1531,-18,18.78033175776416,31.678423731744143
0.34956079361371156,1.7052183666582506,1531,-18,18.78033175776416,31.678423731744143
0.3666094243548537,1.705201317550287,1531,-18,18.78033175776416,31.678423731744143
0.38365782349467864,1.7051842686845495,1531,-18,18.78033175776416,31.678423731744143
0.40070599574087007,1.7051672200555132,1531,-18,18.78033175776416,31.678423731744143
0.4177539454390265,1.7051501716580784,1531,-18,18.78033175776416,31.678423731744143
0.4348016766005205,1.705133123487537,1531,-18,18.78033175776416,31.678423731744143
0.45184919292821374,1.7051160755395436,1531,-18,18.78033175776416,31.678423731744143
0.4688964978401957,1.705099027810087,1531,-18,18.78033175776416,31.678423731744143
0.4859435944916935,1.7050819802954642,1531,-18,18.78033175776416,31.678423731744143
0.5029904857952973,1.705064932992257,1531,-18,18.78033175776416,31.678423731744143
0.5200371744396288,1.7050478858973102,1531,-18,18.78033175776416,31.678423731744143
0.5370836629065743,1.7050308390077114,1531,-18,18.78033175776416,31.678423731744143
0.5541299534871909,1.7050137923207718,1531,-18,18.78033175776416,31.678423731744143
0.5711760482963889,1.7049967458340094,1531,-18,18.78033175776416,31.678423731744143
0.588221949286486,1.7049796995451334,1531,-18,18.78033175776416,31.678423731744143
0.6052676582597156,1.704962653452029,1531,-18,18.78033175776416,31.678423731744143
0.6223131768797762,1.7049456075527434,1531,-18,18.78033175776416,31.678423731744143
0.6393585066824895,1.7049285618454748,1531,-18,18.78033175776416,31.678423731744143
0.6564036490856396,1.7049115163285593,1531,-18,18.78033175776416,31.678423731744143
0.6734486053980555,1.7048944710004612,1531,-18,18.78033175776416,31.678423731744143
0.6904933768279936,1.7048774258597625,1531,-18,18.78033175776416,31.678423731744143
0.7075379644908765,1.7048603809051548,1531,-18,18.78033175776416,31.678423731744143
0.7245823694164352,1.7048433361354294,1531,-18,18.78033175776416,31.678423731744143
0.741626592555303,1.704826291549471,1531,-18,18.78033175776416,31.678423731744143
0.7586706347851008,1.70480924714625,1531,-18,18.78033175776416,31.678423731744143
0.7757144969160549,1.7047922029248155,1531,-18,18.78033175776416,31.678423731744143
0.7927581796961828,1.70477515888429,1531,-18,18.78033175776416,31.678423731744143
0.8098016838160795,1.7047581150238635,1531,-18,18.78033175776416,31.678423731744143
0.8268450099133354,1.7047410713427877,1531,-18,18.78033175776416,31.678423731744143
0.8438881585766146,1.7047240278403724,1531,-18,18.78033175776416,31.678423731744143
0.86093113034942,1.7047069845159795,1531,-18,18.78033175776416,31.678423731744143
0.8779739257335674,1.7046899413690204,1531,-18,18.78033175776416,31.678423731744143
0.8950165451923928,1.704672898398952,1531,-18,18.78033175776416,31.678423731744143
0.9120589891537136,1.7046558556052722,1531,-18,18.78033175776416,31.678423731744143
0.9291012580125619,1.7046388129875176,1531,-18,18.78033175776416,31.678423731744143
0.9461433521337058,1.7046217705452607,1531,-18,18.78033175776416,31.678423731744143
0.9631852718539787,1.704604728278106,1531,-18,18.78033175776416,31.678423731744143
0.9802270174844288,1.7045876861856892,1531,-18,18.78033175776416,31.678423731744143
0.9972685893123026,1.7045706442676731,1531,-18,18.78033175776416,31.678423731744143
1.0143099876028765,1.7045536025237469,1531,-18,18.78033175776416,31.678423731744143
1.0313512126011475,1.7045365609536232,1531,-18,18.78033175776416,31.678423731744143
1.0483922645333923,1.7045195195570368,1531,-18,18.78033175776416,31.678423731744143
1.0654331436086095,1.7045024783337426,1531,-18,18.78033175776416,31.678423731744143
1.0824738500198476,1.7044854372835145,1531,-18,18.78033175776416,31.678423731744143
1.0995143839454327,1.7044683964061433,1531,-18,18.78033175776416,31.678423731744143
1.1165547455501017,1.7044513557014362,1531,-18,18.78033175776416,31.678423731744143
1.1335949349860466,1.7044343151692147,1531,-18,18.78033175776416,31.678423731744143
1.1506349523938808,1.7044172748093143,1531,-18,18.78033175776416,31.678423731744143
1.1676747979035307,1.7044002346215823,1531,-18,18.78033175776416,31.678423731744143
1.184714471635055,1.7043831946058785,1531,-18,18.78033175776416,31.678423731744143
1.2017539736994087,1.704366154762073,1531,-18,18.78033175776416,31.678423731744143
1.2187933041991375,1.7043491150900454,1531,-18,18.78033175776416,31.678423731744143
1.2358324632290312,1.704332075589685,1531,-18,18.78033175776416,31.678423731744143
1.252871450876715,1.7043150362608892,1531,-18,18.78033175776416,31.678423731744143
1.2699102672232043,1.7042979971035632,1531,-18,18.78033175776416,31.678423731744143
1.2869489123434115,1.7042809581176195,1531,-18,18.78033175776416,31.678423731744143
1.3039873863066171,1.704263919302977,1531,-18,18.78033175776416,31.678423731744143
1.3210256891769014,1.7042468806595608,1531,-18,18.78033175776416,31.678423731744143
1.338063821013545,1.7042298421873014,1531,-18,18.78033175776416,31.678423731744143
1.3551017818713984,1.7042128038861348,1531,-18,18.78033175776416,31.678423731744143
1.3721395718012235,1.704195765756002,1531,-18,18.78033175776416,31.678423731744143
1.389177190850007,1.704178727796848,1531,-18,18.78033175776416,31.678423731744143
1.4062146390612518,1.704161690008622,1531,-18,18.78033175776416,31.678423731744143
1.4232519164752437,1.704144652391277,1531,-18,18.78033175776416,31.678423731744143
1.4402890231293013,1.7041276149447697,1531,-18,18.78033175776416,31.678423731744143
1.4573259590580012,1.7041105776690595,1531,-18,18.78033175776416,31.678423731744143
1.474362724293392,1.704093540564109,1531,-18,18.78033175776416,31.678423731744143
1.491399318865187,1.7040765036298842,1531,-18,18.78033175776416,31.678423731744143
1.5084357428009443,1.7040594668663525,1531,-18,18.78033175776416,31.678423731744143
1.5254719961262322,1.7040424302734842,1531,-18,18.78033175776416,31.678423731744143
1.542508078864783,1.7040253938512522,1531,-18,18.78033175776416,31.678423731744143
1.559543991038635,1.7040083575996305,1531,-18,18.78033175776416,31.678423731744143
1.57657973266826,1.7039913215185958,1531,-18,18.78033175776416,31.678423731744143
1.5936153037726877,1.7039742856081255,1531,-18,18.78033175776416,31.678423731744143
1.6106507043696123,1.7039572498681994,1531,-18,18.78033175776416,31.678423731744143
1.6276859344754995,1.7039402142987987,1531,-18,18.78033175776416,31.678423731744143
1.6447209941056788,1.7039231788999052,1531,-18,18.78033175776416,31.678423731744143
1.66175588327443,1.703906143671503,1531,-18,18.78033175776416,31.678423731744143
1.6787906019950665,1.7038891086135763,1531,-18,18.78033175776416,31.678423731744143
1.695825150280008,1.703872073726111,1531,-18,18.78033175776416,31.678423731744143
1.712859528140849,1.7038550390090939,1531,-18,18.78033175776416,31.678423731744143
1.7298937355884234,1.7038380044625125,1531,-18,18.78033175776416,31.678423731744143
1.746927772632863,1.7038209700863551,1531,-18,18.78033175776416,31.678423731744143
1.7639616392836504,1.703803935880611,1531,-18,18.78033175776416,31.678423731744143
1.7809953355496693,1.70378690184527,1531,-18,18.78033175776416,31.678423731744143
1.7980288614392514,1.7037698679803226,1531,-18,18.78033175776416,31.678423731744143
1.8150622169602184,1.70375283428576,1531,-18,18.78033175776416,31.678423731744143
1.8320954021199212,1.703735800761574,1531,-18,18.78033175776416,31.678423731744143
1.849128416925275,1.7037187674077563,1531,-18,18.78033175776416,31.678423731744143
1.8661612613827956,1.7037017342243,1531,-18,18.78033175776416,31.678423731744143
1.8831939354986265,1.703684701211198,1531,-18,18.78033175776416,31.678423731744143
1.9002264392785715,1.7036676683684437,1531,-18,18.78033175776416,31.678423731744143
1.917258772728117,1.703650635696031,1531,-18,18.78033175776416,31.678423731744143
1.93429093585246,1.7036336031939545,1531,-18,18.78033175776416,31.678423731744143
1.9513229286565272,1.7036165708622082,1531,-18,18.78033175776416,31.678423731744143
1.9683547511449981,1.7035995387007872,1531,-18,18.78033175776416,31.678423731744143
1.9853864033223225,1.7035825067096864,1531,-18,18.78033175776416,31.678423731744143
2.0024178851927394,1.703565474888901,1531,-18,18.78033175776416,31.678423731744143
2.0194491967602923,1.703548443238427,1531,-18,18.78033175776416,31.678423731744143
2.0364803380288437,1.7035314117582596,1531,-18,18.78033175776416,31.678423731744143
2.053511309002092,1.7035143804483952,1531,-18,18.78033175776416,31.678423731744143
2.0705421096835788,1.70349734930883,1531,-18,18.78033175776416,31.678423731744143
2.087572740076708,1.7034803183395597,1531,-18,18.78033175776416,31.678423731744143
2.1046032001847497,1.7034632875405813,1531,-18,18.78033175776416,31.678423731744143
2.1216334900108538,1.7034462569118913,1531,-18,18.78033175776416,31.678423731744143
2.1386636095580602,1.7034292264534865,1531,-18,18.78033175776416,31.678423731744143
2.155693558829305,1.7034121961653634,1531,-18,18.78033175776416,31.678423731744143
2.1727233378274287,1.7033951660475193,1531,-18,18.78033175776416,31.678423731744143
2.189752946555184,1.703378136099951,1531,-18,18.78033175776416,31.678423731744143
2.2067823850152455,1.703361106322656,1531,-18,18.78033175776416,31.678423731744143
2.22381165321021,1.7033440767156312,1531,-18,18.78033175776416,31.678423731744143
2.2408407511426063,1.703327047278874,1531,-18,18.78033175776416,31.678423731744143
2.2578696788148997,1.703310018012382,1531,-18,18.78033175776416,31.678423731744143
2.274898436229497,1.7032929889161526,1531,-18,18.78033175776416,31.678423731744143
2.291927023388751,1.7032759599901832,1531,-18,18.78033175776416,31.678423731744143
2.308955440294963,1.7032589312344715,1531,-18,18.78033175776416,31.678423731744143
2.32598368695039,1.703241902649015,1531,-18,18.78033175776416,31.678423731744143
2.3430117633572447,1.7032248742338119,1531,-18,18.78033175776416,31.678423731744143
2.3600396695177013,1.7032078459888593,1531,-18,18.78033175776416,31.678423731744143
2.3770674054338983,1.7031908179141553,1531,-18,18.78033175776416,31.678423731744143
2.3940949711079385,1.7031737900096975,1531,-18,18.78033175776416,31.678423731744143
2.4111223665418975,1.7031567622754842,1531,-18,18.78033175776416,31.678423731744143
2.4281495917378177,1.703139734711513,1531,-18,18.78033175776416,31.678423731744143
2.4451766466977185,1.7031227073177817,1531,-18,18.78033175776416,31.678423731744143
2.4622035314235933,1.7031056800942885,1531,-18,18.78033175776416,31.678423731744143
2.4792302459174143,1.7030886530410314,1531,-18,18.78033175776416,31.678423731744143
2.496256790181131,1.7030716261580083,1531,-18,18.78033175776416,31.678423731744143
2.5132831642166757,1.703054599445217,1531,-18,18.78033175776416,31.678423731744143
2.5303093680259625,1.7030375729026561,1531,-18,18.78033175776416,31.678423731744143
2.547335401610889,1.7030205465303232,1531,-18,18.78033175776416,31.678423731744143
2.5643612649733365,1.7030035203282166,1531,-18,18.78033175776416,31.678423731744143
2.581386958115175,1.7029864942963344,1531,-18,18.78033175776416,31.678423731744143
2.5984124810382587,1.7029694684346746,1531,-18,18.78033175776416,31.678423731744143
2.615437833744432,1.7029524427432352,1531,-18,18.78033175776416,31.678423731744143
2.6324630162355285,1.7029354172220148,1531,-18,18.78033175776416,31.678423731744143
2.6494880285133693,1.7029183918710111,1531,-18,18.78033175776416,31.678423731744143
2.6665128705797696,1.7029013666902226,1531,-18,18.78033175776416,31.678423731744143
2.6835375424365338,1.7028843416796473,1531,-18,18.78033175776416,31.678423731744143
2.7005620440854576,1.7028673168392834,1531,-18,18.78033175776416,31.678423731744143
2.7175863755283327,1.702850292169129,1531,-18,18.78033175776416,31.678423731744143
2.7346105367669398,1.7028332676691826,1531,-18,18.78033175776416,31.678423731744143
2.7516345278030565,1.7028162433394423,1531,-18,18.78033175776416,31.678423731744143
2.7686583486384535,1.7027992191799062,1531,-18,18.78033175776416,31.678423731744143
2.785681999274895,1.7027821951905724,1531,-18,18.78033175776416,31.678423731744143
2.8027054797141426,1.7027651713714396,1531,-18,18.78033175776416,31.678423731744143
2.8197287899579515,1.7027481477225055,1531,-18,18.78033175776416,31.678423731744143
2.8367519300080746,1.7027311242437686,1531,-18,18.78033175776416,31.678423731744143
2.853774899866259,1.7027141009352271,1531,-18,18.78033175776416,31.678423731744143
2.8707976995342492,1.7026970777968793,1531,-18,18.78033175776416,31.678423731744143
2.8878203290137847,1.7026800548287235,1531,-18,18.78033175776416,31.678423731744143
2.904842788306605,1.7026630320307579,1531,-18,18.78033175776416,31.678423731744143
2.9218650774144446,1.7026460094029807,1531,-18,18.78033175776416,31.678423731744143
2.9388871963390364,1.70262898694539,1531,-18,18.78033175776416,31.678423731744143
2.9559091450821104,1.7026119646579845,1531,-18,18.78033175776416,31.678423731744143
2.972930923645395,1.702594942540762,1531,-18,18.78033175776416,31.678423731744143
2.989952532030615,1.7025779205937213,1531,-18,18.78033175776416,31.678423731744143
3.0069739702394944,1.7025608988168601,1531,-18,18.78033175776416,31.678423731744143
3.023995238273755,1.7025438772101773,1531,-18,18.78033175776416,31.678423731744143
3.0410163361351183,1.7025268557736706,1531,-18,18.78033175776416,31.678423731744143
3.0580372638253035,1.7025098345073384,1531,-18,18.78033175776416,31.678423731744143
3.075058021346027,1.7024928134111792,1531,-18,18.78033175776416,31.678423731744143
3.0920786086990066,1.7024757924851912,1531,-18,18.78033175776416,31.678423731744143
3.109099025885956,1.7024587717293724,1531,-18,18.78033175776416,31.678423731744143
3.12611927290859,1.7024417511437215,1531,-18,18.78033175776416,31.678423731744143
3.143139349768623,1.7024247307282367,1531,-18,18.78033175776416,31.678423731744143
3.160159256467765,1.7024077104829163,1531,-18,18.78033175776416,31.678423731744143
3.1771789930077285,1.7023906904077581,1531,-18,18.78033175776416,31.678423731744143
3.194198559390224,1.702373670502761,1531,-18,18.78033175776416,31.678423731744143
3.2112179556169607,1.702356650767923,1531,-18,18.78033175776416,31.678423731744143
3.2282371816896487,1.7023396312032426,1531,-18,18.78033175776416,31.678423731744143
3.245256237609996,1.7023226118087178,1531,-18,18.78033175776416,31.678423731744143
3.2622751233797103,1.702305592584347,1531,-18,18.78033175776416,31.678423731744143
3.2792938390004993,1.7022885735301287,1531,-18,18.78033175776416,31.678423731744143
3.29631238447407,1.702271554646061,1531,-18,18.78033175776416,31.678423731744143
3.3133307598021275,1.702254535932142,1531,-18,18.78033175776416,31.678423731744143
3.33034896498638,1.7022375173883704,1531,-18,18.78033175776416,31.678423731744143
3.3473670000285307,1.7022204990147443,1531,-18,18.78033175776416,31.678423731744143
3.3643848649302863,1.7022034808112618,1531,-18,18.78033175776416,31.678423731744143
3.3814025596933517,1.7021864627779215,1531,-18,18.78033175776416,31.678423731744143
3.3984200843194308,1.7021694449147216,1531,-18,18.78033175776416,31.678423731744143
3.4154374388102284,1.7021524272216602,1531,-18,18.78033175776416,31.678423731744143
3.432454623167448,1.702135409698736,1531,-18,18.78033175776416,31.678423731744143
3.4494716373927945,1.7021183923459469,1531,-18,18.78033175776416,31.678423731744143
3.4664884814879695,1.7021013751632914,1531,-18,18.78033175776416,31.678423731744143
3.483505155454677,1.7020843581507679,1531,-18,18.78033175776416,31.678423731744143
3.500521659294621,1.7020673413083744,1531,-18,18.78033175776416,31.678423731744143
3.517537993009504,1.7020503246361094,1531,-18,18.78033175776416,31.678423731744143
3.534554156601029,1.7020333081339711,1531,-18,18.78033175776416,31.678423731744143
3.551570150070898,1.702016291801958,1531,-18,18.78033175776416,31.678423731744143
3.5685859734208134,1.7019992756400681,1531,-18,18.78033175776416,31.678423731744143
3.585601626652476,1.7019822596482999,1531,-18,18.78033175776416,31.678423731744143
3.602617109767591,1.7019652438266515,1531,-18,18.78033175776416,31.678423731744143
3.6196324227678587,1.7019482281751215,1531,-18,18.78033175776416,31.678423731744143
3.6366475656549806,1.7019312126937078,1531,-18,18.78033175776416,31.678423731744143
3.6536625384306602,1.7019141973824092,1531,-18,18.78033175776416,31.678423731744143
3.6706773410965985,1.7018971822412237,1531,-18,18.78033175776416,31.678423731744143
3.6876919736544957,1.7018801672701496,1531,-18,18.78033175776416,31.678423731744143
3.7047064361060555,1.701863152469185,1531,-18,18.78033175776416,31.678423731744143
3.721720728452978,1.7018461378383287,1531,-18,18.78033175776416,31.678423731744143
3.738734850696965,1.7018291233775786,1531,-18,18.78033175776416,31.678423731744143
3.7557488028397175,1.7018121090869331,1531,-18,18.78033175776416,31.678423731744143
3.7727625848829374,1.7017950949663905,1531,-18,18.78033175776416,31.678423731744143
3.7897761968283246,1.7017780810159493,1531,-18,18.78033175776416,31.678423731744143
3.806789638677581,1.7017610672356074,1531,-18,18.78033175776416,31.678423731744143
3.8238029104324083,1.7017440536253634,1531,-18,18.78033175776416,31.678423731744143
3.8408160120945065,1.7017270401852156,1531,-18,18.78033175776416,31.678423731744143
3.8578289436655764,1.7017100269151622,1531,-18,18.78033175776416,31.678423731744143
3.8748417051473187,1.7016930138152013,1531,-18,18.78033175776416,31.678423731744143
3.8918542965414358,1.7016760008853316,1531,-18,18.78033175776416,31.678423731744143
3.9088667178496284,1.7016589881255513,1531,-18,18.78033175776416,31.678423731744143
3.925878969073595,1.7016419755358583,1531,-18,18.78033175776416,31.678423731744143
3.9428910502150383,1.7016249631162514,1531,-18,18.78033175776416,31.678423731744143
3.9599029612756587,1.7016079508667288,1531,-18,18.78033175776416,31.678423731744143
3.9769147022571567,1.7015909387872885,1531,-18,18.78033175776416,31.678423731744143
3.993926273161233,1.701573926877929,1531,-18,18.78033175776416,31.678423731744143
4.010937673989586,1.701556915138649,1531,-18,18.78033175776416,31.678423731744143
