Vout,Iout,Irradiance,Temperature,MaxVoltage,MaxPower
0.007346309362409977,1.4692759999999998,1271,3,20.313279502972186,29.433770321547154
0.02203879224701681,1.4692759999999998,1271,3,20.313279502972186,29.433770321547154
0.03673097643713182,1.4692685067630373,1271,3,20.313279502972186,29.433770321547154
0.05142280857108295,1.4692538142801528,1271,3,20.313279502972186,29.433770321547154
0.06611427120935003,1.469239122096712,1271,3,20.313279502972186,29.433770321547154
0.08080538148308526,1.4692244302660473,1271,3,20.313279502972186,29.433770321547154
0.09549615520594434,1.4692097388048782,1271,3,20.313279502972186,29.433770321547154
0.11018660697513118,1.4691950476960738,1271,3,20.313279502972186,29.433770321547154
0.12487675026483082,1.46918035692382,1271,3,20.313279502972186,29.433770321547154
0.13956659751261638,1.46916566647352,1271,3,20.313279502972186,29.433770321547154
0.1542561601992074,1.4691509763316992,1271,3,20.313279502972186,29.433770321547154
0.1689454489220919,1.4691362864859205,1271,3,20.313279502972186,29.433770321547154
0.18363447346348338,1.469121596924703,1271,3,20.313279502972186,29.433770321547154
0.19832324285304948,1.469106907637449,1271,3,20.313279502972186,29.433770321547154
0.21301176542581388,1.4690922186143767,1271,3,20.313279502972186,29.433770321547154
0.22770004887560347,1.469077529846456,1271,3,20.313279502972186,29.433770321547154
0.24238810030438293,1.4690628413253521,1271,3,20.313279502972186,29.433770321547154
0.2570759262677935,1.4690481530433712,1271,3,20.313279502972186,29.433770321547154
0.2717635328171882,1.4690334649934114,1271,3,20.313279502972186,29.433770321547154
0.2864509255384321,1.4690187771689167,1271,3,20.313279502972186,29.433770321547154
0.3011381095877183,1.469004089563836,1271,3,20.313279502972186,29.433770321547154
0.31582508972462703,1.4689894021725836,1271,3,20.313279502972186,29.433770321547154
0.3305118703426419,1.4689747149900032,1271,3,20.313279502972186,29.433770321547154
0.34519845549731787,1.4689600280113349,1271,3,20.313279502972186,29.433770321547154
0.3598848489322823,1.4689453412321856,1271,3,20.313279502972186,29.433770321547154
0.37457105410323466,1.4689306546484997,1271,3,20.313279502972186,29.433770321547154
0.3892570742001005,1.4689159682565334,1271,3,20.313279502972186,29.433770321547154
0.4039429121674803,1.468901282052831,1271,3,20.313279502972186,29.433770321547154
0.4186285707235255,1.4688865960342028,1271,3,20.313279502972186,29.433770321547154
0.4333140523773616,1.4688719101977041,1271,3,20.313279502972186,29.433770321547154
0.4479993594451707,1.4688572245406166,1271,3,20.313279502972186,29.433770321547154
0.4626844940650376,1.4688425390604314,1271,3,20.313279502972186,29.433770321547154
0.4773694582106518,1.4688278537548323,1271,3,20.313279502972186,29.433770321547154
0.4920542537039575,1.4688131686216808,1271,3,20.313279502972186,29.433770321547154
0.5067388822268282,1.4687984836590038,1271,3,20.313279502972186,29.433770321547154
0.5214233453318445,1.468783798864979,1271,3,20.313279502972186,29.433770321547154
0.5361076444522421,1.4687691142379247,1271,3,20.313279502972186,29.433770321547154
0.5507917809110938,1.468754429776288,1271,3,20.313279502972186,29.433770321547154
0.5654757559297865,1.4687397454786362,1271,3,20.313279502972186,29.433770321547154
0.580159570635844,1.4687250613436458,1271,3,20.313279502972186,29.433770321547154
0.59484322607015,1.4687103773700956,1271,3,20.313279502972186,29.433770321547154
0.609526723193614,1.4686956935568578,1271,3,20.313279502972186,29.433770321547154
0.6242100628933241,1.468681009902892,1271,3,20.313279502972186,29.433770321547154
0.6388932459882275,1.4686663264072368,1271,3,20.313279502972186,29.433770321547154
0.6535762732343733,1.4686516430690055,1271,3,20.313279502972186,29.433770321547154
0.6682591453297521,1.468636959887379,1271,3,20.313279502972186,29.433770321547154
0.6829418629187624,1.468622276861601,1271,3,20.313279502972186,29.433770321547154
0.6976244265963351,1.468607593990974,1271,3,20.313279502972186,29.433770321547154
0.7123068369117386,1.4685929112748533,1271,3,20.313279502972186,29.433770321547154
0.7269890943720934,1.468578228712644,1271,3,20.313279502972186,29.433770321547154
0.741671199445613,1.468563546303797,1271,3,20.313279502972186,29.433770321547154
0.7563531525646,1.4685488640478048,1271,3,20.313279502972186,29.433770321547154
0.7710349541282072,1.4685341819441995,1271,3,20.313279502972186,29.433770321547154
0.7857166045049887,1.4685194999925488,1271,3,20.313279502972186,29.433770321547154
0.800398104035255,1.4685048181924534,1271,3,20.313279502972186,29.433770321547154
0.8150794530332449,1.4684901365435448,1271,3,20.313279502972186,29.433770321547154
0.8297606517891324,1.4684754550454828,1271,3,20.313279502972186,29.433770321547154
0.8444417005708779,1.468460773697953,1271,3,20.313279502972186,29.433770321547154
0.859122599625937,1.4684460925006653,1271,3,20.313279502972186,29.433770321547154
0.873803349182839,1.4684314114533517,1271,3,20.313279502972186,29.433770321547154
0.8884839494526428,1.4684167305557647,1271,3,20.313279502972186,29.433770321547154
0.9031644006302805,1.4684020498076757,1271,3,20.313279502972186,29.433770321547154
0.9178447028957991,1.468387369208874,1271,3,20.313279502972186,29.433770321547154
0.9325248564155051,1.4683726887591646,1271,3,20.313279502972186,29.433770321547154
0.9472048613430222,1.4683580084583672,1271,3,20.313279502972186,29.433770321547154
0.961884717820267,1.4683433283063154,1271,3,20.313279502972186,29.433770321547154
0.9765644259783497,1.468328648302856,1271,3,20.313279502972186,29.433770321547154
0.9912439859384053,1.4683139684478468,1271,3,20.313279502972186,29.433770321547154
1.0059233978123614,1.4682992887411566,1271,3,20.313279502972186,29.433770321547154
1.020602661703647,1.4682846091826645,1271,3,20.313279502972186,29.433770321547154
1.0352817777078456,1.4682699297722586,1271,3,20.313279502972186,29.433770321547154
1.049960745913299,1.4682552505098352,1271,3,20.313279502972186,29.433770321547154
1.0646395664016652,1.468240571395299,1271,3,20.313279502972186,29.433770321547154
1.0793182392484326,1.4682258924285614,1271,3,20.313279502972186,29.433770321547154
1.093996764523393,1.468211213609541,1271,3,20.313279502972186,29.433770321547154
1.1086751422910823,1.468196534938162,1271,3,20.313279502972186,29.433770321547154
1.1233533726111833,1.468181856414355,1271,3,20.313279502972186,29.433770321547154
1.1380314555388993,1.4681671780380552,1271,3,20.313279502972186,29.433770321547154
1.1527093911253,1.468152499809203,1271,3,20.313279502972186,29.433770321547154
1.1673871794176371,1.4681378217277432,1271,3,20.313279502972186,29.433770321547154
1.1820648204596416,1.4681231437936246,1271,3,20.313279502972186,29.433770321547154
1.1967423142917903,1.4681084660068,1271,3,20.313279502972186,29.433770321547154
1.2114196609515608,1.4680937883672258,1271,3,20.313279502972186,29.433770321547154
1.2260968604736577,1.4680791108748614,1271,3,20.313279502972186,29.433770321547154
1.2407739128902306,1.4680644335296693,1271,3,20.313279502972186,29.433770321547154
1.2554508182310664,1.468049756331615,1271,3,20.313279502972186,29.433770321547154
1.2701275765237736,1.4680350792806662,1271,3,20.313279502972186,29.433770321547154
1.2848041877939498,1.468020402376793,1271,3,20.313279502972186,29.433770321547154
1.2994806520653355,1.4680057256199681,1271,3,20.313279502972186,29.433770321547154
1.3141569693599573,1.4679910490101655,1271,3,20.313279502972186,29.433770321547154
1.3288331396982604,1.4679763725473618,1271,3,20.313279502972186,29.433770321547154
1.3435091630992293,1.467961696231535,1271,3,20.313279502972186,29.433770321547154
1.3581850395805013,1.4679470200626643,1271,3,20.313279502972186,29.433770321547154
1.3728607691584682,1.467932344040731,1271,3,20.313279502972186,29.433770321547154
1.3875363518483748,1.4679176681657173,1271,3,20.313279502972186,29.433770321547154
1.4022117876644054,1.467902992437607,1271,3,20.313279502972186,29.433770321547154
1.4168870766197652,1.4678883168563845,1271,3,20.313279502972186,29.433770321547154
1.4315622187267567,1.4678736414220361,1271,3,20.313279502972186,29.433770321547154
1.4462372139968493,1.4678589661345482,1271,3,20.313279502972186,29.433770321547154
1.4609120624407417,1.467844290993909,1271,3,20.313279502972186,29.433770321547154
1.4755867640684224,1.4678296160001063,1271,3,20.313279502972186,29.433770321547154
1.4902613188892253,1.46781494115313,1271,3,20.313279502972186,29.433770321547154
1.5049357269118773,1.4678002664529697,1271,3,20.313279502972186,29.433770321547154
1.5196099881445482,1.4677855918996165,1271,3,20.313279502972186,29.433770321547154
1.5342841025948912,1.4677709174930613,1271,3,20.313279502972186,29.433770321547154
1.5489580702700838,1.467756243233296,1271,3,20.313279502972186,29.433770321547154
1.5636318911768639,1.467741569120313,1271,3,20.313279502972186,29.433770321547154
1.5783055653215639,1.4677268951541054,1271,3,20.313279502972186,29.433770321547154
1.5929790927101415,1.467712221334666,1271,3,20.313279502972186,29.433770321547154
1.6076524733482096,1.4676975476619887,1271,3,20.313279502972186,29.433770321547154
1.6223257072410622,1.4676828741360675,1271,3,20.313279502972186,29.433770321547154
1.636998794393697,1.4676682007568969,1271,3,20.313279502972186,29.433770321547154
1.6516717348108423,1.4676535275244713,1271,3,20.313279502972186,29.433770321547154
1.6663445284969731,1.467638854438786,1271,3,20.313279502972186,29.433770321547154
1.6810171754563357,1.4676241814998363,1271,3,20.313279502972186,29.433770321547154
1.6956896756929596,1.4676095087076173,1271,3,20.313279502972186,29.433770321547154
1.7103620292106794,1.4675948360621254,1271,3,20.313279502972186,29.433770321547154
1.7250342360131465,1.467580163563356,1271,3,20.313279502972186,29.433770321547154
1.739706296103844,1.4675654912113054,1271,3,20.313279502972186,29.433770321547154
1.7543782094860996,1.4675508190059703,1271,3,20.313279502972186,29.433770321547154
1.7690499761630991,1.467536146947347,1271,3,20.313279502972186,29.433770321547154
1.7837215961378945,1.4675214750354317,1271,3,20.313279502972186,29.433770321547154
1.7983930694134174,1.467506803270222,1271,3,20.313279502972186,29.433770321547154
1.813064395992485,1.4674921316517144,1271,3,20.313279502972186,29.433770321547154
1.827735575877811,1.467477460179906,1271,3,20.313279502972186,29.433770321547154
1.8424066090720141,1.4674627888547942,1271,3,20.313279502972186,29.433770321547154
1.857077495577623,1.467448117676376,1271,3,20.313279502972186,29.433770321547154
1.8717482353970853,1.4674334466446488,1271,3,20.313279502972186,29.433770321547154
1.8864188285327734,1.4674187757596104,1271,3,20.313279502972186,29.433770321547154
1.9010892749869894,1.467404105021258,1271,3,20.313279502972186,29.433770321547154
1.9157595747619716,1.4673894344295895,1271,3,20.313279502972186,29.433770321547154
1.9304297278598983,1.4673747639846022,1271,3,20.313279502972186,29.433770321547154
1.9450997342828937,1.4673600936862945,1271,3,20.313279502972186,29.433770321547154
1.9597695940330306,1.4673454235346635,1271,3,20.313279502972186,29.433770321547154
1.974439307112336,1.4673307535297075,1271,3,20.313279502972186,29.433770321547154
1.9891088735227926,1.4673160836714245,1271,3,20.313279502972186,29.433770321547154
2.003778293266344,1.4673014139598122,1271,3,20.313279502972186,29.433770321547154
2.0184475663448977,1.4672867443948687,1271,3,20.313279502972186,29.433770321547154
2.033116692760326,1.467272074976592,1271,3,20.313279502972186,29.433770321547154
2.0477856725144714,1.4672574057049805,1271,3,20.313279502972186,29.433770321547154
2.0624545056091463,1.467242736580032,1271,3,20.313279502972186,29.433770321547154
2.0771231920461357,1.4672280676017448,1271,3,20.313279502972186,29.433770321547154
2.0917917318272017,1.467213398770117,1271,3,20.313279502972186,29.433770321547154
2.1064601249540837,1.467198730085147,1271,3,20.313279502972186,29.433770321547154
2.1211283714284983,1.4671840615468328,1271,3,20.313279502972186,29.433770321547154
2.135796471252145,1.4671693931551728,1271,3,20.313279502972186,29.433770321547154
2.1504644244267035,1.467154724910165,1271,3,20.313279502972186,29.433770321547154
2.1651322309538377,1.4671400568118083,1271,3,20.313279502972186,29.433770321547154
2.1797998908351968,1.4671253888601006,1271,3,20.313279502972186,29.433770321547154
2.194467404072415,1.4671107210550403,1271,3,20.313279502972186,29.433770321547154
2.209134770667114,1.4670960533966257,1271,3,20.313279502972186,29.433770321547154
2.223801990620904,1.4670813858848553,1271,3,20.313279502972186,29.433770321547154
2.2384690639353826,1.4670667185197273,1271,3,20.313279502972186,29.433770321547154
2.2531359906121398,1.4670520513012404,1271,3,20.313279502972186,29.433770321547154
2.2678027706527533,1.4670373842293927,1271,3,20.313279502972186,29.433770321547154
2.282469404058794,1.4670227173041825,1271,3,20.313279502972186,29.433770321547154
2.2971358908318233,1.4670080505256087,1271,3,20.313279502972186,29.433770321547154
2.3118022309733974,1.4669933838936693,1271,3,20.313279502972186,29.433770321547154
2.3264684244850624,1.4669787174083628,1271,3,20.313279502972186,29.433770321547154
2.341134471368362,1.466964051069688,1271,3,20.313279502972186,29.433770321547154
2.3558003716248304,1.466949384877643,1271,3,20.313279502972186,29.433770321547154
2.370466125255999,1.4669347188322264,1271,3,20.313279502972186,29.433770321547154
2.385131732263392,1.4669200529334365,1271,3,20.313279502972186,29.433770321547154
2.3997971926485318,1.4669053871812718,1271,3,20.313279502972186,29.433770321547154
2.4144625064129337,1.4668907215757312,1271,3,20.313279502972186,29.433770321547154
2.429127673558111,1.4668760561168126,1271,3,20.313279502972186,29.433770321547154
2.4437926940855728,1.4668613908045147,1271,3,20.313279502972186,29.433770321547154
2.458457567996825,1.466846725638836,1271,3,20.313279502972186,29.433770321547154
2.4731222952933694,1.4668320606197751,1271,3,20.313279502972186,29.433770321547154
2.4877868759767074,1.4668173957473305,1271,3,20.313279502972186,29.433770321547154
2.5024513100483343,1.4668027310215004,1271,3,20.313279502972186,29.433770321547154
2.5171155975097452,1.4667880664422834,1271,3,20.313279502972186,29.433770321547154
2.531779738362434,1.4667734020096783,1271,3,20.313279502972186,29.433770321547154
2.5464437326078895,1.4667587377236835,1271,3,20.313279502972186,29.433770321547154
2.5611075802476013,1.4667440735842971,1271,3,20.313279502972186,29.433770321547154
2.575771281283055,1.4667294095915182,1271,3,20.313279502972186,29.433770321547154
2.5904348357157376,1.4667147457453449,1271,3,20.313279502972186,29.433770321547154
2.60509824354713,1.4667000820457758,1271,3,20.313279502972186,29.433770321547154
2.619761504778716,1.4666854184928095,1271,3,20.313279502972186,29.433770321547154
2.6344246194119774,1.4666707550864444,1271,3,20.313279502972186,29.433770321547154
2.649087587448392,1.4666560918266793,1271,3,20.313279502972186,29.433770321547154
2.66375040888944,1.4666414287135123,1271,3,20.313279502972186,29.433770321547154
2.6784130837365976,1.4666267657469423,1271,3,20.313279502972186,29.433770321547154
2.693075611991343,1.4666121029269674,1271,3,20.313279502972186,29.433770321547154
2.707737993655151,1.4665974402535866,1271,3,20.313279502972186,29.433770321547154
2.7224002287294975,1.4665827777267981,1271,3,20.313279502972186,29.433770321547154
2.737062317215855,1.4665681153466006,1271,3,20.313279502972186,29.433770321547154
2.7517242591156985,1.4665534531129925,1271,3,20.313279502972186,29.433770321547154
2.766386054430501,1.4665387910259724,1271,3,20.313279502972186,29.433770321547154
2.7810477031617347,1.4665241290855389,1271,3,20.313279502972186,29.433770321547154
2.7957092053108705,1.4665094672916903,1271,3,20.313279502972186,29.433770321547154
2.8103705608793805,1.4664948056444251,1271,3,20.313279502972186,29.433770321547154
2.825031769868735,1.4664801441437423,1271,3,20.313279502972186,29.433770321547154
2.8396928322804054,1.46646548278964,1271,3,20.313279502972186,29.433770321547154
2.8543537481158614,1.4664508215821166,1271,3,20.313279502972186,29.433770321547154
2.8690145173765718,1.466436160521171,1271,3,20.313279502972186,29.433770321547154
2.8836751400640064,1.4664214996068017,1271,3,20.313279502972186,29.433770321547154
2.898335616179635,1.4664068388390072,1271,3,20.313279502972186,29.433770321547154
2.912995945724925,1.4663921782177858,1271,3,20.313279502972186,29.433770321547154
2.9276561287013463,1.4663775177431362,1271,3,20.313279502972186,29.433770321547154
2.9423161651103653,1.4663628574150571,1271,3,20.313279502972186,29.433770321547154
2.956976054953451,1.4663481972335466,1271,3,20.313279502972186,29.433770321547154
2.9716357982320716,1.4663335371986037,1271,3,20.313279502972186,29.433770321547154
2.9862953949476947,1.4663188773102267,1271,3,20.313279502972186,29.433770321547154
3.000954845101787,1.466304217568414,1271,3,20.313279502972186,29.433770321547154
3.015614148695815,1.4662895579731643,1271,3,20.313279502972186,29.433770321547154
3.0302733057312476,1.4662748985244762,1271,3,20.313279502972186,29.433770321547154
3.044932316209549,1.4662602392223483,1271,3,20.313279502972186,29.433770321547154
3.0595911801321884,1.4662455800667786,1271,3,20.313279502972186,29.433770321547154
3.0742498975006316,1.4662309210577664,1271,3,20.313279502972186,29.433770321547154
3.088908468316344,1.4662162621953096,1271,3,20.313279502972186,29.433770321547154
3.103566892580793,1.466201603479407,1271,3,20.313279502972186,29.433770321547154
3.1182251702954455,1.4661869449100573,1271,3,20.313279502972186,29.433770321547154
3.132883301461766,1.4661722864872586,1271,3,20.313279502972186,29.433770321547154
3.147541286081222,1.4661576282110098,1271,3,20.313279502972186,29.433770321547154
3.162199124155279,1.4661429700813093,1271,3,20.313279502972186,29.433770321547154
3.1768568156854027,1.4661283120981559,1271,3,20.313279502972186,29.433770321547154
3.1915143606730596,1.4661136542615476,1271,3,20.313279502972186,29.433770321547154
3.206171759119714,1.4660989965714832,1271,3,20.313279502972186,29.433770321547154
3.220829011026833,1.4660843390279614,1271,3,20.313279502972186,29.433770321547154
3.235486116395882,1.4660696816309804,1271,3,20.313279502972186,29.433770321547154
3.250143075228326,1.466055024380539,1271,3,20.313279502972186,29.433770321547154
3.2647998875256308,1.4660403672766358,1271,3,20.313279502972186,29.433770321547154
3.2794565532892617,1.466025710319269,1271,3,20.313279502972186,29.433770321547154
3.294113072520684,1.4660110535084374,1271,3,20.313279502972186,29.433770321547154
3.3087694452213636,1.4659963968441394,1271,3,20.313279502972186,29.433770321547154
3.3234256713927652,1.4659817403263737,1271,3,20.313279502972186,29.433770321547154
3.338081751036355,1.4659670839551389,1271,3,20.313279502972186,29.433770321547154
3.352737684153597,1.465952427730433,1271,3,20.313279502972186,29.433770321547154
3.3673934707459576,1.465937771652255,1271,3,20.313279502972186,29.433770321547154
3.382049110814901,1.4659231157206034,1271,3,20.313279502972186,29.433770321547154
3.396704604361893,1.4659084599354766,1271,3,20.313279502972186,29.433770321547154
3.411359951388398,1.4658938042968734,1271,3,20.313279502972186,29.433770321547154
3.4260151518958812,1.465879148804792,1271,3,20.313279502972186,29.433770321547154
3.440670205885808,1.4658644934592309,1271,3,20.313279502972186,29.433770321547154
3.4553251133596437,1.465849838260189,1271,3,20.313279502972186,29.433770321547154
3.469979874318853,1.4658351832076646,1271,3,20.313279502972186,29.433770321547154
3.484634488764901,1.4658205283016563,1271,3,20.313279502972186,29.433770321547154
