Vout,Iout,Irradiance,Temperature,MaxVoltage,MaxPower
0.006275439659234046,1.2550999999999999,1141,-25,18.255236188419104,22.579342512291834
0.018826202938883367,1.2550999999999999,1141,-25,18.255236188419104,22.579342512291834
0.031376711064663235,1.2550935990503407,1141,-25,18.255236188419104,22.579342512291834
0.04392691845341938,1.255081048287061,1141,-25,18.255236188419104,22.579342512291834
0.05647681020778615,1.2550684977795754,1141,-25,18.255236188419104,22.579342512291834
0.06902640096171196,1.2550559475734417,1141,-25,18.255236188419104,22.579342512291834
0.08157570422369981,1.2550433976829423,1141,-25,18.255236188419104,22.579342512291834
0.09412473246312275,1.2550308480934433,1141,-25,18.255236188419104,22.579342512291834
0.10667349719003727,1.2550182987914364,1141,-25,18.255236188419104,22.579342512291834
0.11922200902899446,1.255005749764452,1141,-25,18.255236188419104,22.579342512291834
0.13177027778717226,1.2549932010009799,1141,-25,18.255236188419104,22.579342512291834
0.14431831251726543,1.254980652490396,1141,-25,18.255236188419104,22.579342512291834
0.15686612157553662,1.2549681042228926,1141,-25,18.255236188419104,22.579342512291834
0.16941371267540103,1.2549555561894175,1141,-25,18.255236188419104,22.579342512291834
0.18196109293688806,1.254943008381614,1141,-25,18.255236188419104,22.579342512291834
0.19450826893229728,1.2549304607917688,1141,-25,18.255236188419104,22.579342512291834
0.2070552467283418,1.2549179134127622,1141,-25,18.255236188419104,22.579342512291834
0.21960203192504868,1.2549053662380214,1141,-25,18.255236188419104,22.579342512291834
0.23214862969166652,1.25489281926148,1141,-25,18.255236188419104,22.579342512291834
0.24469504479981047,1.2548802724775383,1141,-25,18.255236188419104,22.579342512291834
0.2572412816540564,1.2548677258810264,1141,-25,18.255236188419104,22.579342512291834
0.26978734432018187,1.2548551794671727,1141,-25,18.255236188419104,22.579342512291834
0.28233323655123344,1.2548426332315732,1141,-25,18.255236188419104,22.579342512291834
0.2948789618115888,1.2548300871701616,1141,-25,18.255236188419104,22.579342512291834
0.3074245232991675,1.2548175412791853,1141,-25,18.255236188419104,22.579342512291834
0.3199699239659329,1.2548049955551797,1141,-25,18.255236188419104,22.579342512291834
0.3325151665368155,1.2547924499949465,1141,-25,18.255236188419104,22.579342512291834
0.34506025352718256,1.2547799045955343,1141,-25,18.255236188419104,22.579342512291834
0.357605187258961,1.2547673593542181,1141,-25,18.255236188419104,22.579342512291834
0.37014996987552157,1.2547548142684823,1141,-25,18.255236188419104,22.579342512291834
0.3826946033554173,1.254742269336005,1141,-25,18.255236188419104,22.579342512291834
0.3952390895250646,1.254729724554643,1141,-25,18.255236188419104,22.579342512291834
0.4077834300704491,1.2547171799224175,1141,-25,18.255236188419104,22.579342512291834
0.42032762654793043,1.2547046354375024,1141,-25,18.255236188419104,22.579342512291834
0.4328716803942159,1.2546920910982113,1141,-25,18.255236188419104,22.579342512291834
0.44541559293556693,1.2546795469029883,1141,-25,18.255236188419104,22.579342512291834
0.4579593653962965,1.2546670028503966,1141,-25,18.255236188419104,22.579342512291834
0.47050299890661373,1.2546544589391095,1141,-25,18.255236188419104,22.579342512291834
0.48304649450986387,1.2546419151679034,1141,-25,18.255236188419104,22.579342512291834
0.4955898531692124,1.2546293715356474,1141,-25,18.255236188419104,22.579342512291834
0.5081330757738133,1.2546168280412986,1141,-25,18.255236188419104,22.579342512291834
0.5206761631445044,1.2546042846838936,1141,-25,18.255236188419104,22.579342512291834
0.5332191160390634,1.2545917414625434,1141,-25,18.255236188419104,22.579342512291834
0.5457619351570598,1.254579198376427,1141,-25,18.255236188419104,22.579342512291834
0.5583046211443337,1.2545666554247867,1141,-25,18.255236188419104,22.579342512291834
0.5708471745971293,1.254554112606923,1141,-25,18.255236188419104,22.579342512291834
0.5833895960659119,1.25454156992219,1141,-25,18.255236188419104,22.579342512291834
0.595931886058889,1.2545290273699914,1141,-25,18.255236188419104,22.579342512291834
0.6084740450452627,1.254516484949777,1141,-25,18.255236188419104,22.579342512291834
0.6210160734582301,1.2545039426610383,1141,-25,18.255236188419104,22.579342512291834
0.6335579716977539,1.254491400503306,1141,-25,18.255236188419104,22.579342512291834
0.6460997401331198,1.2544788584761475,1141,-25,18.255236188419104,22.579342512291834
0.658641379105296,1.254466316579162,1141,-25,18.255236188419104,22.579342512291834
0.6711828889291132,1.2544537748119808,1141,-25,18.255236188419104,22.579342512291834
0.6837242698952739,1.254441233174263,1141,-25,18.255236188419104,22.579342512291834
0.6962655222722116,1.2544286916656933,1141,-25,18.255236188419104,22.579342512291834
0.7088066463078008,1.2544161502859812,1141,-25,18.255236188419104,22.579342512291834
0.7213476422309415,1.2544036090348585,1141,-25,18.255236188419104,22.579342512291834
0.7338885102530183,1.254391067912077,1141,-25,18.255236188419104,22.579342512291834
0.7464292505692471,1.2543785269174081,1141,-25,18.255236188419104,22.579342512291834
0.7589698633599213,1.25436598605064,1141,-25,18.255236188419104,22.579342512291834
0.7715103487915578,1.2543534453115779,1141,-25,18.255236188419104,22.579342512291834
0.7840507070179581,1.2543409047000413,1141,-25,18.255236188419104,22.579342512291834
0.796590938181186,1.2543283642158638,1141,-25,18.255236188419104,22.579342512291834
0.8091310424124719,1.2543158238588914,1141,-25,18.255236188419104,22.579342512291834
0.8216710198330451,1.2543032836289822,1141,-25,18.255236188419104,22.579342512291834
0.8342108705549036,1.2542907435260051,1141,-25,18.255236188419104,22.579342512291834
0.8467505946815251,1.2542782035498385,1141,-25,18.255236188419104,22.579342512291834
0.8592901923085213,1.2542656637003706,1141,-25,18.255236188419104,22.579342512291834
0.8718296635242443,1.254253123977498,1141,-25,18.255236188419104,22.579342512291834
0.8843690084103444,1.254240584381125,1141,-25,18.255236188419104,22.579342512291834
0.8969082270422861,1.2542280449111631,1141,-25,18.255236188419104,22.579342512291834
0.9094473194898238,1.254215505567531,1141,-25,18.255236188419104,22.579342512291834
0.921986285817442,1.254202966350153,1141,-25,18.255236188419104,22.579342512291834
0.9345251260847593,1.2541904272589595,1141,-25,18.255236188419104,22.579342512291834
0.9470638403469038,1.2541778882938859,1141,-25,18.255236188419104,22.579342512291834
0.9596024286548587,1.2541653494548723,1141,-25,18.255236188419104,22.579342512291834
0.9721408910557804,1.2541528107418642,1141,-25,18.255236188419104,22.579342512291834
0.9846792275932936,1.25414027215481,1141,-25,18.255236188419104,22.579342512291834
0.9972174383077631,1.254127733693663,1141,-25,18.255236188419104,22.579342512291834
1.0097555232365438,1.2541151953583793,1141,-25,18.255236188419104,22.579342512291834
1.022293482414214,1.2541026571489187,1141,-25,18.255236188419104,22.579342512291834
1.0348313158727864,1.2540901190652438,1141,-25,18.255236188419104,22.579342512291834
1.0473690236419084,1.25407758110732,1141,-25,18.255236188419104,22.579342512291834
1.0599066057490416,1.2540650432751153,1141,-25,18.255236188419104,22.579342512291834
1.0724440622196316,1.2540525055685998,1141,-25,18.255236188419104,22.579342512291834
1.0849813930772627,1.2540399679877465,1141,-25,18.255236188419104,22.579342512291834
1.097518598343801,1.2540274305325296,1141,-25,18.255236188419104,22.579342512291834
1.110055678039526,1.2540148932029258,1141,-25,18.255236188419104,22.579342512291834
1.1225926321832538,1.254002355998913,1141,-25,18.255236188419104,22.579342512291834
1.135129460792449,1.253989818920471,1141,-25,18.255236188419104,22.579342512291834
1.1476661638833294,1.253977281967581,1141,-25,18.255236188419104,22.579342512291834
1.1602027414709601,1.2539647451402256,1141,-25,18.255236188419104,22.579342512291834
1.172739193569345,1.2539522084383883,1141,-25,18.255236188419104,22.579342512291834
1.1852755201915057,1.2539396718620544,1141,-25,18.255236188419104,22.579342512291834
1.1978117213495587,1.2539271354112096,1141,-25,18.255236188419104,22.579342512291834
1.2103477970547853,1.2539145990858411,1141,-25,18.255236188419104,22.579342512291834
1.2228837473176941,1.2539020628859368,1141,-25,18.255236188419104,22.579342512291834
1.2354195721480818,1.2538895268114851,1141,-25,18.255236188419104,22.579342512291834
1.2479552715550888,1.2538769908624758,1141,-25,18.255236188419104,22.579342512291834
1.260490845547247,1.253864455038899,1141,-25,18.255236188419104,22.579342512291834
1.2730262941325297,1.2538519193407458,1141,-25,18.255236188419104,22.579342512291834
1.2855616173183915,1.253839383768007,1141,-25,18.255236188419104,22.579342512291834
1.2980968151118122,1.2538268483206754,1141,-25,18.255236188419104,22.579342512291834
1.310631887519328,1.2538143129987431,1141,-25,18.255236188419104,22.579342512291834
1.323166834547071,1.2538017778022033,1141,-25,18.255236188419104,22.579342512291834
1.3357016562007968,1.2537892427310493,1141,-25,18.255236188419104,22.579342512291834
1.348236352485915,1.253776707785275,1141,-25,18.255236188419104,22.579342512291834
1.3607709234075145,1.2537641729648747,1141,-25,18.255236188419104,22.579342512291834
1.37330536897039,1.2537516382698433,1141,-25,18.255236188419104,22.579342512291834
1.3858396891790632,1.253739103700175,1141,-25,18.255236188419104,22.579342512291834
1.3983738840378048,1.2537265692558657,1141,-25,18.255236188419104,22.579342512291834
1.4109079535506523,1.2537140349369105,1141,-25,18.255236188419104,22.579342512291834
1.42344189772143,1.2537015007433052,1141,-25,18.255236188419104,22.579342512291834
1.4359757165537634,1.2536889666750457,1141,-25,18.255236188419104,22.579342512291834
1.4485094100510962,1.2536764327321284,1141,-25,18.255236188419104,22.579342512291834
1.4610429782167031,1.2536638989145494,1141,-25,18.255236188419104,22.579342512291834
1.4735764210537035,1.2536513652223056,1141,-25,18.255236188419104,22.579342512291834
1.4861097385650721,1.2536388316553932,1141,-25,18.255236188419104,22.579342512291834
1.4986429307536533,1.2536262982138096,1141,-25,18.255236188419104,22.579342512291834
1.5111759976221668,1.2536137648975516,1141,-25,18.255236188419104,22.579342512291834
1.5237089391732206,1.2536012317066163,1141,-25,18.255236188419104,22.579342512291834
1.5362417554093177,1.2535886986410012,1141,-25,18.255236188419104,22.579342512291834
1.548774446332866,1.2535761657007034,1141,-25,18.255236188419104,22.579342512291834
1.5613070119461836,1.2535636328857207,1141,-25,18.255236188419104,22.579342512291834
1.5738394522515067,1.2535511001960504,1141,-25,18.255236188419104,22.579342512291834
1.586371767250996,1.2535385676316904,1141,-25,18.255236188419104,22.579342512291834
1.598903956946742,1.2535260351926383,1141,-25,18.255236188419104,22.579342512291834
1.6114360213407717,1.2535135028788922,1141,-25,18.255236188419104,22.579342512291834
1.623967960435051,1.2535009706904496,1141,-25,18.255236188419104,22.579342512291834
1.636499774231492,1.2534884386273089,1141,-25,18.255236188419104,22.579342512291834
1.649031462731956,1.2534759066894678,1141,-25,18.255236188419104,22.579342512291834
1.6615630259382572,1.2534633748769246,1141,-25,18.255236188419104,22.579342512291834
1.6740944638521666,1.2534508431896774,1141,-25,18.255236188419104,22.579342512291834
1.6866257764754147,1.2534383116277241,1141,-25,18.255236188419104,22.579342512291834
1.6991569638096964,1.2534257801910633,1141,-25,18.255236188419104,22.579342512291834
1.711688025856672,1.2534132488796934,1141,-25,18.255236188419104,22.579342512291834
1.7242189626179696,1.2534007176936122,1141,-25,18.255236188419104,22.579342512291834
1.7367497740951898,1.2533881866328183,1141,-25,18.255236188419104,22.579342512291834
1.7492804602899057,1.2533756556973101,1141,-25,18.255236188419104,22.579342512291834
1.761811021203666,1.253363124887086,1141,-25,18.255236188419104,22.579342512291834
1.7743414568379958,1.2533505942021443,1141,-25,18.255236188419104,22.579342512291834
1.7868717671944006,1.2533380636424838,1141,-25,18.255236188419104,22.579342512291834
1.799401952274365,1.2533255332081024,1141,-25,18.255236188419104,22.579342512291834
1.8119320120793563,1.2533130028989992,1141,-25,18.255236188419104,22.579342512291834
1.8244619466108252,1.2533004727151722,1141,-25,18.255236188419104,22.579342512291834
1.8369917558702071,1.2532879426566201,1141,-25,18.255236188419104,22.579342512291834
1.8495214398589246,1.2532754127233419,1141,-25,18.255236188419104,22.579342512291834
1.8620509985783846,1.2532628829153354,1141,-25,18.255236188419104,22.579342512291834
1.8745804320299846,1.2532503532325996,1141,-25,18.255236188419104,22.579342512291834
1.887109740215109,1.2532378236751331,1141,-25,18.255236188419104,22.579342512291834
1.8996389231351332,1.2532252942429345,1141,-25,18.255236188419104,22.579342512291834
1.9121679807914231,1.2532127649360023,1141,-25,18.255236188419104,22.579342512291834
1.9246969131853353,1.2532002357543353,1141,-25,18.255236188419104,22.579342512291834
1.9372257203182186,1.253187706697932,1141,-25,18.255236188419104,22.579342512291834
1.949754402191414,1.253175177766791,1141,-25,18.255236188419104,22.579342512291834
1.9622829588062567,1.253162648960911,1141,-25,18.255236188419104,22.579342512291834
1.9748113901640743,1.2531501202802906,1141,-25,18.255236188419104,22.579342512291834
1.9873396962661893,1.2531375917249288,1141,-25,18.255236188419104,22.579342512291834
1.9998678771139187,1.2531250632948239,1141,-25,18.255236188419104,22.579342512291834
2.012395932708575,1.2531125349899745,1141,-25,18.255236188419104,22.579342512291834
2.0249238630514643,1.2531000068103797,1141,-25,18.255236188419104,22.579342512291834
2.0374516681438903,1.2530874787560378,1141,-25,18.255236188419104,22.579342512291834
2.0499793479871524,1.2530749508269476,1141,-25,18.255236188419104,22.579342512291834
2.062506902582546,1.2530624230231082,1141,-25,18.255236188419104,22.579342512291834
2.0750343319313624,1.2530498953445177,1141,-25,18.255236188419104,22.579342512291834
2.0875616360348923,1.253037367791175,1141,-25,18.255236188419104,22.579342512291834
2.1000888148944203,1.253024840363079,1141,-25,18.255236188419104,22.579342512291834
2.1126158685112313,1.2530123130602282,1141,-25,18.255236188419104,22.579342512291834
2.1251427968866055,1.2529997858826214,1141,-25,18.255236188419104,22.579342512291834
2.1376696000218227,1.2529872588302573,1141,-25,18.255236188419104,22.579342512291834
2.1501962779181585,1.2529747319031348,1141,-25,18.255236188419104,22.579342512291834
2.162722830576889,1.2529622051012521,1141,-25,18.255236188419104,22.579342512291834
2.1752492579992873,1.2529496784246086,1141,-25,18.255236188419104,22.579342512291834
2.1877755601866244,1.2529371518732024,1141,-25,18.255236188419104,22.579342512291834
2.2003017371401707,1.2529246254470328,1141,-25,18.255236188419104,22.579342512291834
2.212827788861194,1.252912099146098,1141,-25,18.255236188419104,22.579342512291834
2.225353715350963,1.2528995729703971,1141,-25,18.255236188419104,22.579342512291834
2.2378795166107426,1.2528870469199287,1141,-25,18.255236188419104,22.579342512291834
2.2504051926417987,1.2528745209946917,1141,-25,18.255236188419104,22.579342512291834
2.262930743445395,1.2528619951946844,1141,-25,18.255236188419104,22.579342512291834
2.275456169022794,1.252849469519906,1141,-25,18.255236188419104,22.579342512291834
2.287981469375259,1.252836943970355,1141,-25,18.255236188419104,22.579342512291834
2.3005066445040505,1.2528244185460302,1141,-25,18.255236188419104,22.579342512291834
2.313031694410429,1.2528118932469303,1141,-25,18.255236188419104,22.579342512291834
2.3255566190956563,1.252799368073054,1141,-25,18.255236188419104,22.579342512291834
2.3380814185609897,1.2527868430244,1141,-25,18.255236188419104,22.579342512291834
2.350606092807689,1.2527743181009674,1141,-25,18.255236188419104,22.579342512291834
2.3631306418370124,1.2527617933027546,1141,-25,18.255236188419104,22.579342512291834
2.375655065650217,1.2527492686297603,1141,-25,18.255236188419104,22.579342512291834
2.3881793642485616,1.2527367440819834,1141,-25,18.255236188419104,22.579342512291834
2.4007035376333006,1.2527242196594228,1141,-25,18.255236188419104,22.579342512291834
2.413227585805692,1.252711695362077,1141,-25,18.255236188419104,22.579342512291834
2.4257515087669925,1.2526991711899447,1141,-25,18.255236188419104,22.579342512291834
2.438275306518457,1.2526866471430247,1141,-25,18.255236188419104,22.579342512291834
2.4507989790613407,1.2526741232213157,1141,-25,18.255236188419104,22.579342512291834
2.463322526396899,1.2526615994248167,1141,-25,18.255236188419104,22.579342512291834
2.4758459485263864,1.2526490757535262,1141,-25,18.255236188419104,22.579342512291834
2.488369245451058,1.252636552207443,1141,-25,18.255236188419104,22.579342512291834
2.5008924171721687,1.252624028786566,1141,-25,18.255236188419104,22.579342512291834
2.513415463690971,1.2526115054908935,1141,-25,18.255236188419104,22.579342512291834
2.5259383850087205,1.2525989823204249,1141,-25,18.255236188419104,22.579342512291834
2.53846118112667,1.2525864592751583,1141,-25,18.255236188419104,22.579342512291834
2.550983852046074,1.252573936355093,1141,-25,18.255236188419104,22.579342512291834
2.563506397768186,1.2525614135602272,1141,-25,18.255236188419104,22.579342512291834
2.576028818294258,1.2525488908905602,1141,-25,18.255236188419104,22.579342512291834
2.588551113625544,1.2525363683460904,1141,-25,18.255236188419104,22.579342512291834
2.601073283763297,1.2525238459268164,1141,-25,18.255236188419104,22.579342512291834
2.613595328708769,1.2525113236327374,1141,-25,18.255236188419104,22.579342512291834
2.626117248463215,1.252498801463852,1141,-25,18.255236188419104,22.579342512291834
2.638639043027886,1.2524862794201588,1141,-25,18.255236188419104,22.579342512291834
2.651160712404035,1.2524737575016565,1141,-25,18.255236188419104,22.579342512291834
2.663682256592914,1.252461235708344,1141,-25,18.255236188419104,22.579342512291834
2.6762036755957763,1.25244871404022,1141,-25,18.255236188419104,22.579342512291834
2.688724969413874,1.2524361924972833,1141,-25,18.255236188419104,22.579342512291834
2.7012461380484587,1.2524236710795327,1141,-25,18.255236188419104,22.579342512291834
2.713767181500784,1.2524111497869668,1141,-25,18.255236188419104,22.579342512291834
2.726288099772101,1.2523986286195843,1141,-25,18.255236188419104,22.579342512291834
2.7388088928636614,1.2523861075773841,1141,-25,18.255236188419104,22.579342512291834
2.751329560776719,1.252373586660365,1141,-25,18.255236188419104,22.579342512291834
2.7638501035125245,1.2523610658685254,1141,-25,18.255236188419104,22.579342512291834
2.7763705210723293,1.2523485452018646,1141,-25,18.255236188419104,22.579342512291834
2.7888908134573858,1.2523360246603807,1141,-25,18.255236188419104,22.579342512291834
2.8014109806689462,1.252323504244073,1141,-25,18.255236188419104,22.579342512291834
2.813931022708262,1.25231098395294,1141,-25,18.255236188419104,22.579342512291834
2.8264509395765853,1.2522984637869805,1141,-25,18.255236188419104,22.579342512291834
2.838970731275168,1.2522859437461933,1141,-25,18.255236188419104,22.579342512291834
2.851490397805261,1.2522734238305768,1141,-25,18.255236188419104,22.579342512291834
2.8640099391681164,1.2522609040401302,1141,-25,18.255236188419104,22.579342512291834
2.876529355364985,1.2522483843748522,1141,-25,18.255236188419104,22.579342512291834
2.8890486463971206,1.2522358648347414,1141,-25,18.255236188419104,22.579342512291834
2.9015678122657724,1.2522233454197964,1141,-25,18.255236188419104,22.579342512291834
2.914086852972193,1.2522108261300162,1141,-25,18.255236188419104,22.579342512291834
