Vout,Iout,Irradiance,Temperature,MaxVoltage,MaxPower
0.009949294333708331,1.989878,1661,24,21.87200905465221,43.045101244401486
0.029847699029256124,1.989878,1661,24,21.87200905465221,43.045101244401486
0.04974569919522744,1.9898678517178663,1661,24,21.87200905465221,43.045101244401486
0.0696432225625474,1.9898479533131708,1661,24,21.87200905465221,43.045101244401486
0.08954024551242858,1.9898280553140197,1661,24,21.87200905465221,43.045101244401486
0.10943679124602783,1.989808157792642,1661,24,21.87200905465221,43.045101244401486
0.1293328811801827,1.9897882607716821,1661,24,21.87200905465221,43.045101244401486
0.14922853508425926,1.9897683642279382,1661,24,21.87200905465221,43.045101244401486
0.1691237712066903,1.9897484681399937,1661,24,21.87200905465221,43.045101244401486
0.1890186063919986,1.9897285724880793,1661,24,21.87200905465221,43.045101244401486
0.20891305618881584,1.9897086772539465,1661,24,21.87200905465221,43.045101244401486
0.22880713494959054,1.9896887824207508,1661,24,21.87200905465221,43.045101244401486
0.24870085592262417,1.9896688879729434,1661,24,21.87200905465221,43.045101244401486
0.26859423133702626,1.9896489938961721,1661,24,21.87200905465221,43.045101244401486
0.2884872724811321,1.9896291001771886,1661,24,21.87200905465221,43.045101244401486
0.30837998977488795,1.9896092068037636,1661,24,21.87200905465221,43.045101244401486
0.32827239283666587,1.9895893137646088,1661,24,21.87200905465221,43.045101244401486
0.34816449054493825,1.9895694210493045,1661,24,21.87200905465221,43.045101244401486
0.36805629109520677,1.989549528648232,1661,24,21.87200905465221,43.045101244401486
0.3879478020525514,1.989529636552513,1661,24,21.87200905465221,43.045101244401486
0.4078390304001358,1.989509744753952,1661,24,21.87200905465221,43.045101244401486
0.4277299825839812,1.9894898532449838,1661,24,21.87200905465221,43.045101244401486
0.44762066455429456,1.9894699620186254,1661,24,21.87200905465221,43.045101244401486
0.46751108180361767,1.9894500710684306,1661,24,21.87200905465221,43.045101244401486
0.4874012394020403,1.9894301803884495,1661,24,21.87200905465221,43.045101244401486
0.5072911420297047,1.9894102899731894,1661,24,21.87200905465221,43.045101244401486
0.5271807940068086,1.98939039981758,1661,24,21.87200905465221,43.045101244401486
0.5470701993212993,1.9893705099169414,1661,24,21.87200905465221,43.045101244401486
0.5669593616544393,1.9893506202669533,1661,24,21.87200905465221,43.045101244401486
0.5868482844044003,1.9893307308636277,1661,24,21.87200905465221,43.045101244401486
0.6067369707080479,1.9893108417032836,1661,24,21.87200905465221,43.045101244401486
0.626625423461044,1.9892909527825227,1661,24,21.87200905465221,43.045101244401486
0.6465136453364076,1.9892710640982079,1661,24,21.87200905465221,43.045101244401486
0.6664016388016436,1.9892511756474438,1661,24,21.87200905465221,43.045101244401486
0.6862894061345564,1.9892312874275573,1661,24,21.87200905465221,43.045101244401486
0.7061769494378457,1.9892113994360807,1661,24,21.87200905465221,43.045101244401486
0.7260642706525788,1.9891915116707368,1661,24,21.87200905465221,43.045101244401486
0.7459513715706274,1.9891716241294222,1661,24,21.87200905465221,43.045101244401486
0.7658382538461469,1.9891517368101963,1661,24,21.87200905465221,43.045101244401486
0.7857249190061716,1.9891318497112669,1661,24,21.87200905465221,43.045101244401486
0.8056113684603967,1.9891119628309801,1661,24,21.87200905465221,43.045101244401486
0.8254976035102064,1.9890920761678088,1661,24,21.87200905465221,43.045101244401486
0.8453836253570068,1.9890721897203434,1661,24,21.87200905465221,43.045101244401486
0.8652694351099192,1.9890523034872822,1661,24,21.87200905465221,43.045101244401486
0.8851550337928803,1.989032417467424,1661,24,21.87200905465221,43.045101244401486
0.9050404223511961,1.9890125316596599,1661,24,21.87200905465221,43.045101244401486
0.9249256016575924,1.9889926460629654,1661,24,21.87200905465221,43.045101244401486
0.9448105725177991,1.9889727606763956,1661,24,21.87200905465221,43.045101244401486
0.9646953356757046,1.9889528754990777,1661,24,21.87200905465221,43.045101244401486
0.9845798918181144,1.9889329905302062,1661,24,21.87200905465221,43.045101244401486
1.0044642415791432,1.9889131057690368,1661,24,21.87200905465221,43.045101244401486
1.0243483855442685,1.9888932212148829,1661,24,21.87200905465221,43.045101244401486
1.0442323242540736,1.9888733368671103,1661,24,21.87200905465221,43.045101244401486
1.064116058207701,1.9888534527251336,1661,24,21.87200905465221,43.045101244401486
1.0839995878660411,1.9888335687884122,1661,24,21.87200905465221,43.045101244401486
1.103882913654676,1.988813685056447,1661,24,21.87200905465221,43.045101244401486
1.1237660359665953,1.9887938015287772,1661,24,21.87200905465221,43.045101244401486
1.1436489551647049,1.9887739182049768,1661,24,21.87200905465221,43.045101244401486
1.1635316715841404,1.9887540350846533,1661,24,21.87200905465221,43.045101244401486
1.1834141855344056,1.9887341521674435,1661,24,21.87200905465221,43.045101244401486
1.2032964973013411,1.9887142694530124,1661,24,21.87200905465221,43.045101244401486
1.22317860714895,1.9886943869410505,1661,24,21.87200905465221,43.045101244401486
1.2430605153210739,1.9886745046312717,1661,24,21.87200905465221,43.045101244401486
1.2629422220429463,1.9886546225234123,1661,24,21.87200905465221,43.045101244401486
1.2828237275226233,1.9886347406172284,1661,24,21.87200905465221,43.045101244401486
1.3027050319523064,1.9886148589124948,1661,24,21.87200905465221,43.045101244401486
1.3225861355095612,1.9885949774090033,1661,24,21.87200905465221,43.045101244401486
1.342467038358444,1.9885750961065618,1661,24,21.87200905465221,43.045101244401486
1.3623477406505415,1.9885552150049928,1661,24,21.87200905465221,43.045101244401486
1.3822282425259302,1.988535334104132,1661,24,21.87200905465221,43.045101244401486
1.402108544114061,1.988515453403828,1661,24,21.87200905465221,43.045101244401486
1.4219886455345778,1.9884955729039406,1661,24,21.87200905465221,43.045101244401486
1.4418685468980723,1.9884756926043405,1661,24,21.87200905465221,43.045101244401486
1.4617482483067794,1.988455812504908,1661,24,21.87200905465221,43.045101244401486
1.4816277498552213,1.9884359326055328,1661,24,21.87200905465221,43.045101244401486
1.501507051630799,1.988416052906112,1661,24,21.87200905465221,43.045101244401486
1.5213861537143434,1.9883961734065516,1661,24,21.87200905465221,43.045101244401486
1.5412650561806178,1.988376294106764,1661,24,21.87200905465221,43.045101244401486
1.5611437590987864,1.9883564150066684,1661,24,21.87200905465221,43.045101244401486
1.5810222625328454,1.98833653610619,1661,24,21.87200905465221,43.045101244401486
1.6009005665420182,1.9883166574052598,1661,24,21.87200905465221,43.045101244401486
1.6207786711811254,1.9882967789038135,1661,24,21.87200905465221,43.045101244401486
1.6406565765009227,1.9882769006017922,1661,24,21.87200905465221,43.045101244401486
1.6605342825484128,1.988257022499141,1661,24,21.87200905465221,43.045101244401486
1.6804117893671346,1.9882371445958091,1661,24,21.87200905465221,43.045101244401486
1.7002890969974311,1.9882172668917493,1661,24,21.87200905465221,43.045101244401486
1.7201662054766929,1.9881973893869185,1661,24,21.87200905465221,43.045101244401486
1.740043114839587,1.988177512081276,1661,24,21.87200905465221,43.045101244401486
1.7599198251182657,1.9881576349747845,1661,24,21.87200905465221,43.045101244401486
1.779796336342561,1.9881377580674093,1661,24,21.87200905465221,43.045101244401486
1.7996726485401617,1.9881178813591183,1661,24,21.87200905465221,43.045101244401486
1.8195487617367794,1.9880980048498818,1661,24,21.87200905465221,43.045101244401486
1.8394246759562995,1.9880781285396718,1661,24,21.87200905465221,43.045101244401486
1.8593003912209238,1.9880582524284627,1661,24,21.87200905465221,43.045101244401486
1.8791759075512973,1.9880383765162308,1661,24,21.87200905465221,43.045101244401486
1.8990512249666307,1.9880185008029538,1661,24,21.87200905465221,43.045101244401486
1.918926343484808,1.987998625288611,1661,24,21.87200905465221,43.045101244401486
1.9388012631224913,1.9879787499731834,1661,24,21.87200905465221,43.045101244401486
1.9586759838952128,1.9879588748566528,1661,24,21.87200905465221,43.045101244401486
1.9785505058174626,1.9879389999390025,1661,24,21.87200905465221,43.045101244401486
1.998424828902769,1.9879191252202173,1661,24,21.87200905465221,43.045101244401486
2.0182989531637725,1.9878992507002826,1661,24,21.87200905465221,43.045101244401486
2.0381728786122917,1.9878793763791847,1661,24,21.87200905465221,43.045101244401486
2.0580466052593924,1.9878595022569112,1661,24,21.87200905465221,43.045101244401486
2.077920133115438,1.98783962833345,1661,24,21.87200905465221,43.045101244401486
2.09779346219015,1.9878197546087903,1661,24,21.87200905465221,43.045101244401486
2.117666592492654,1.9877998810829218,1661,24,21.87200905465221,43.045101244401486
2.1375395240315256,1.9877800077558345,1661,24,21.87200905465221,43.045101244401486
2.1574122568148346,1.9877601346275193,1661,24,21.87200905465221,43.045101244401486
2.177284790850181,1.9877402616979678,1661,24,21.87200905465221,43.045101244401486
2.197157126144735,1.9877203889671717,1661,24,21.87200905465221,43.045101244401486
2.2170292627052666,1.9877005164351236,1661,24,21.87200905465221,43.045101244401486
2.236901200538177,1.9876806441018164,1661,24,21.87200905465221,43.045101244401486
2.2567729396495304,1.9876607719672432,1661,24,21.87200905465221,43.045101244401486
2.276644480045073,1.9876409000313975,1661,24,21.87200905465221,43.045101244401486
2.2965158217302655,1.9876210282942732,1661,24,21.87200905465221,43.045101244401486
2.3163869647103,1.987601156755865,1661,24,21.87200905465221,43.045101244401486
2.336257908990122,1.987581285416167,1661,24,21.87200905465221,43.045101244401486
2.356128654574448,1.987561414275174,1661,24,21.87200905465221,43.045101244401486
2.375999201467786,1.9875415433328814,1661,24,21.87200905465221,43.045101244401486
2.39586954967445,1.9875216725892841,1661,24,21.87200905465221,43.045101244401486
2.4157396991985736,1.987501802044378,1661,24,21.87200905465221,43.045101244401486
2.4356096500441264,1.9874819316981582,1661,24,21.87200905465221,43.045101244401486
2.4554794022149244,1.9874620615506213,1661,24,21.87200905465221,43.045101244401486
2.4753489557146438,1.9874421916017628,1661,24,21.87200905465221,43.045101244401486
2.4952183105468286,1.987422321851579,1661,24,21.87200905465221,43.045101244401486
2.515087466714906,1.9874024523000662,1661,24,21.87200905465221,43.045101244401486
2.53495642422219,1.987382582947221,1661,24,21.87200905465221,43.045101244401486
2.5548251830718933,1.9873627137930399,1661,24,21.87200905465221,43.045101244401486
2.5746937432671344,1.9873428448375194,1661,24,21.87200905465221,43.045101244401486
2.5945621048109437,1.9873229760806568,1661,24,21.87200905465221,43.045101244401486
2.614430267706272,1.9873031075224483,1661,24,21.87200905465221,43.045101244401486
2.634298231955995,1.9872832391628914,1661,24,21.87200905465221,43.045101244401486
2.654165997562922,1.987263371001983,1661,24,21.87200905465221,43.045101244401486
2.6740335645297963,1.9872435030397202,1661,24,21.87200905465221,43.045101244401486
2.693900932859304,1.9872236352761,1661,24,21.87200905465221,43.045101244401486
2.7137681025540785,1.9872037677111198,1661,24,21.87200905465221,43.045101244401486
2.733635073616702,1.987183900344777,1661,24,21.87200905465221,43.045101244401486
2.7535018460497103,1.9871640331770692,1661,24,21.87200905465221,43.045101244401486
2.7733684198555975,1.9871441662079934,1661,24,21.87200905465221,43.045101244401486
2.7932347950368186,1.987124299437547,1661,24,21.87200905465221,43.045101244401486
2.813100971595794,1.987104432865728,1661,24,21.87200905465221,43.045101244401486
2.832966949534908,1.9870845664925332,1661,24,21.87200905465221,43.045101244401486
2.852832728856515,1.987064700317961,1661,24,21.87200905465221,43.045101244401486
2.872698309562942,1.9870448343420084,1661,24,21.87200905465221,43.045101244401486
2.8925636916564894,1.9870249685646735,1661,24,21.87200905465221,43.045101244401486
2.912428875139432,1.9870051029859537,1661,24,21.87200905465221,43.045101244401486
2.9322938600140236,1.9869852376058468,1661,24,21.87200905465221,43.045101244401486
2.952158646282498,1.9869653724243503,1661,24,21.87200905465221,43.045101244401486
2.9720232339470685,1.9869455074414621,1661,24,21.87200905465221,43.045101244401486
2.9918876230099305,1.9869256426571802,1661,24,21.87200905465221,43.045101244401486
3.0117518134732664,1.9869057780715023,1661,24,21.87200905465221,43.045101244401486
3.031615805339239,1.986885913684426,1661,24,21.87200905465221,43.045101244401486
3.051479598610001,1.986866049495949,1661,24,21.87200905465221,43.045101244401486
3.0713431932876896,1.9868461855060695,1661,24,21.87200905465221,43.045101244401486
3.091206589374432,1.986826321714785,1661,24,21.87200905465221,43.045101244401486
3.1110697868723443,1.9868064581220939,1661,24,21.87200905465221,43.045101244401486
3.1309327857835325,1.9867865947279935,1661,24,21.87200905465221,43.045101244401486
3.150795586110092,1.986766731532482,1661,24,21.87200905465221,43.045101244401486
3.1706581878541114,1.986746868535557,1661,24,21.87200905465221,43.045101244401486
3.1905205910176693,1.9867270057372168,1661,24,21.87200905465221,43.045101244401486
3.2103827956028406,1.986707143137459,1661,24,21.87200905465221,43.045101244401486
3.23024480161169,1.9866872807362819,1661,24,21.87200905465221,43.045101244401486
3.250106609046277,1.9866674185336828,1661,24,21.87200905465221,43.045101244401486
3.269968217908656,1.9866475565296602,1661,24,21.87200905465221,43.045101244401486
3.289829628200876,1.9866276947242119,1661,24,21.87200905465221,43.045101244401486
3.30969083992498,1.9866078331173358,1661,24,21.87200905465221,43.045101244401486
3.3295518530830077,1.9865879717090298,1661,24,21.87200905465221,43.045101244401486
3.349412667676994,1.9865681104992918,1661,24,21.87200905465221,43.045101244401486
3.3692732837089703,1.98654824948812,1661,24,21.87200905465221,43.045101244401486
3.389133701180964,1.986528388675512,1661,24,21.87200905465221,43.045101244401486
3.408993920095,1.986508528061466,1661,24,21.87200905465221,43.045101244401486
3.428853940453098,1.9864886676459803,1661,24,21.87200905465221,43.045101244401486
3.448713762257278,1.9864688074290522,1661,24,21.87200905465221,43.045101244401486
3.4685733855095564,1.9864489474106801,1661,24,21.87200905465221,43.045101244401486
3.488432810211945,1.9864290875908621,1661,24,21.87200905465221,43.045101244401486
3.5082920363664565,1.9864092279695957,1661,24,21.87200905465221,43.045101244401486
3.5281510639750993,1.9863893685468794,1661,24,21.87200905465221,43.045101244401486
3.548009893039882,1.9863695093227107,1661,24,21.87200905465221,43.045101244401486
3.5678685235628085,1.986349650297088,1661,24,21.87200905465221,43.045101244401486
3.5877269555458837,1.9863297914700093,1661,24,21.87200905465221,43.045101244401486
3.607585188991111,1.9863099328414722,1661,24,21.87200905465221,43.045101244401486
3.6274432239004897,1.986290074411475,1661,24,21.87200905465221,43.045101244401486
3.647301060276021,1.9862702161800156,1661,24,21.87200905465221,43.045101244401486
3.6671586981197044,1.986250358147092,1661,24,21.87200905465221,43.045101244401486
3.6870161374335355,1.9862305003127023,1661,24,21.87200905465221,43.045101244401486
3.7068733782195116,1.9862106426768444,1661,24,21.87200905465221,43.045101244401486
3.726730420479629,1.9861907852395164,1661,24,21.87200905465221,43.045101244401486
3.7465872642158833,1.9861709280007163,1661,24,21.87200905465221,43.045101244401486
3.7664439094302673,1.986151070960442,1661,24,21.87200905465221,43.045101244401486
3.786300356124774,1.9861312141186913,1661,24,21.87200905465221,43.045101244401486
3.806156604301397,1.9861113574754627,1661,24,21.87200905465221,43.045101244401486
3.826012653962128,1.9860915010307538,1661,24,21.87200905465221,43.045101244401486
3.845868505108957,1.986071644784563,1661,24,21.87200905465221,43.045101244401486
3.8657241577438772,1.9860517887368878,1661,24,21.87200905465221,43.045101244401486
3.8855796118688786,1.9860319328877265,1661,24,21.87200905465221,43.045101244401486
3.9054348674859494,1.9860120772370773,1661,24,21.87200905465221,43.045101244401486
3.9252899245970805,1.985992221784938,1661,24,21.87200905465221,43.045101244401486
3.9451447832042614,1.9859723665313063,1661,24,21.87200905465221,43.045101244401486
3.9649994433094795,1.9859525114761807,1661,24,21.87200905465221,43.045101244401486
3.9848539049147234,1.9859326566195592,1661,24,21.87200905465221,43.045101244401486
4.004708168021983,1.9859128019614394,1661,24,21.87200905465221,43.045101244401486
4.024562232633245,1.9858929475018197,1661,24,21.87200905465221,43.045101244401486
4.044416098750496,1.9858730932406978,1661,24,21.87200905465221,43.045101244401486
4.064269766375722,1.985853239178072,1661,24,21.87200905465221,43.045101244401486
4.084123235510915,1.9858333853139403,1661,24,21.87200905465221,43.045101244401486
4.103976506158057,1.9858135316483003,1661,24,21.87200905465221,43.045101244401486
4.123829578319138,1.9857936781811505,1661,24,21.87200905465221,43.045101244401486
4.143682451996142,1.9857738249124888,1661,24,21.87200905465221,43.045101244401486
4.1635351271910555,1.9857539718423132,1661,24,21.87200905465221,43.045101244401486
4.1833876039058655,1.9857341189706215,1661,24,21.87200905465221,43.045101244401486
4.203239882142557,1.9857142662974119,1661,24,21.87200905465221,43.045101244401486
4.223091961903117,1.9856944138226822,1661,24,21.87200905465221,43.045101244401486
4.242943843189531,1.9856745615464308,1661,24,21.87200905465221,43.045101244401486
4.262795526003783,1.9856547094686556,1661,24,21.87200905465221,43.045101244401486
4.28264701034786,1.9856348575893543,1661,24,21.87200905465221,43.045101244401486
4.302498296223747,1.9856150059085254,1661,24,21.87200905465221,43.045101244401486
4.322349383633428,1.9855951544261665,1661,24,21.87200905465221,43.045101244401486
4.342200272578891,1.9855753031422756,1661,24,21.87200905465221,43.045101244401486
4.362050963062117,1.9855554520568512,1661,24,21.87200905465221,43.045101244401486
4.381901455085095,1.9855356011698908,1661,24,21.87200905465221,43.045101244401486
4.401751748649806,1.9855157504813927,1661,24,21.87200905465221,43.045101244401486
4.421601843758237,1.9854958999913548,1661,24,21.87200905465221,43.045101244401486
4.441451740412374,1.9854760496997752,1661,24,21.87200905465221,43.045101244401486
4.461301438614199,1.9854561996066518,1661,24,21.87200905465221,43.045101244401486
4.481150938365697,1.9854363497119827,1661,24,21.87200905465221,43.045101244401486
4.501000239668854,1.985416500015766,1661,24,21.87200905465221,43.045101244401486
4.520849342525653,1.9853966505179994,1661,24,21.87200905465221,43.045101244401486
4.540698246938079,1.9853768012186812,1661,24,21.87200905465221,43.045101244401486
4.560546952908117,1.9853569521178094,1661,24,21.87200905465221,43.045101244401486
4.58039546043775,1.985337103215382,1661,24,21.87200905465221,43.045101244401486
4.600243769528964,1.9853172545113966,1661,24,21.87200905465221,43.045101244401486
4.620091880183741,1.985297406005852,1661,24,21.87200905465221,43.045101244401486
4.639939792404068,1.9852775576987456,1661,24,21.87200905465221,43.045101244401486
4.659787506191924,1.9852577095900756,1661,24,21.87200905465221,43.045101244401486
4.679635021549299,1.9852378616798403,1661,24,21.87200905465221,43.045101244401486
4.699482338478173,1.985218013968037,1661,24,21.87200905465221,43.045101244401486
4.719329456980533,1.9851981664546645,1661,24,21.87200905465221,43.045101244401486
4.739176377058362,1.9851783191397205,1661,24,21.87200905465221,43.045101244401486
