Vout,Iout,Irradiance,Temperature,MaxVoltage,MaxPower
0.010351880462687858,2.0703959999999997,1791,3,20.319453895547426,41.657264640462806
0.03105544997199615,2.0703959999999997,1791,3,20.319453895547426,41.657264640462806
0.051758598582929256,2.070385441079937,1791,3,20.319453895547426,41.657264640462806
0.07246125110213184,2.0703647375104275,1791,3,20.319453895547426,41.657264640462806
0.09316338295511084,2.0703440343628725,1791,3,20.319453895547426,41.657264640462806
0.11386501828182982,2.070323331712424,1791,3,20.319453895547426,41.657264640462806
0.13456617936573276,2.070302629582641,1791,3,20.319453895547426,41.657264640462806
0.15526688677612896,2.0702819279493845,1791,3,20.319453895547426,41.657264640462806
0.17596715949985217,2.070261226790371,1791,3,20.319453895547426,41.657264640462806
0.19666701506301815,2.0702405260850307,1791,3,20.319453895547426,41.657264640462806
0.21736646964341513,2.070219825814377,1791,3,20.319453895547426,41.657264640462806
0.23806553817424606,2.070199125960884,1791,3,20.319453895547426,41.657264640462806
0.258764234439889,2.070178426508374,1791,3,20.319453895547426,41.657264640462806
0.2794625711642893,2.070157727441913,1791,3,20.319453895547426,41.657264640462806
0.3001605600925514,2.070137028747717,1791,3,20.319453895547426,41.657264640462806
0.32085821206625176,2.0701163304130628,1791,3,20.319453895547426,41.657264640462806
0.3415555370929583,2.070095632426204,1791,3,20.319453895547426,41.657264640462806
0.36225254441039995,2.0700749347763003,1791,3,20.319453895547426,41.657264640462806
0.3829492425456996,2.0700542374533435,1791,3,20.319453895547426,41.657264640462806
0.40364563937004905,2.0700335404480956,1791,3,20.319453895547426,41.657264640462806
0.42434174214917697,2.07001284375203,1791,3,20.319453895547426,41.657264640462806
0.44503755758993496,2.0699921473572758,1791,3,20.319453895547426,41.657264640462806
0.4657330918832982,2.069971451256566,1791,3,20.319453895547426,41.657264640462806
0.4864283507440572,2.069950755443195,1791,3,20.319453895547426,41.657264640462806
0.5071233394474571,2.069930059910971,1791,3,20.319453895547426,41.657264640462806
0.5278180628630164,2.06990936465418,1791,3,20.319453895547426,41.657264640462806
0.5485125254857437,2.069888669667546,1791,3,20.319453895547426,41.657264640462806
0.5692067314649549,2.0698679749462,1791,3,20.319453895547426,41.657264640462806
0.5899006846308692,2.069847280485647,1791,3,20.319453895547426,41.657264640462806
0.6105943885191624,2.0698265862817373,1791,3,20.319453895547426,41.657264640462806
0.6312878463936281,2.0698058923306406,1791,3,20.319453895547426,41.657264640462806
0.6519810612670989,2.069785198628822,1791,3,20.319453895547426,41.657264640462806
0.6726740359207537,2.069764505173017,1791,3,20.319453895547426,41.657264640462806
0.693366772921942,2.0697438119602127,1791,3,20.319453895547426,41.657264640462806
0.7140592746406371,2.0697231189876284,1791,3,20.319453895547426,41.657264640462806
0.7347515432646216,2.0697024262526966,1791,3,20.319453895547426,41.657264640462806
0.7554435808135058,2.0696817337530473,1791,3,20.319453895547426,41.657264640462806
0.7761353891516675,2.0696610414864924,1791,3,20.319453895547426,41.657264640462806
0.7968269700001951,2.0696403494510127,1791,3,20.319453895547426,41.657264640462806
0.8175183249479125,2.069619657644744,1791,3,20.319453895547426,41.657264640462806
0.8382094554615571,2.0695989660659646,1791,3,20.319453895547426,41.657264640462806
0.8589003628951716,2.069578274713086,1791,3,20.319453895547426,41.657264640462806
0.8795910484987756,2.0695575835846416,1791,3,20.319453895547426,41.657264640462806
0.9002815134263698,2.069536892679277,1791,3,20.319453895547426,41.657264640462806
0.9209717587433226,2.0695162019957425,1791,3,20.319453895547426,41.657264640462806
0.9416617854331916,2.069495511532884,1791,3,20.319453895547426,41.657264640462806
0.9623515944040157,2.0694748212896363,1791,3,20.319453895547426,41.657264640462806
0.983041186494128,2.069454131265015,1791,3,20.319453895547426,41.657264640462806
1.0037305624775175,2.0694334414581137,1791,3,20.319453895547426,41.657264640462806
1.0244197230687802,2.0694127518680925,1791,3,20.319453895547426,41.657264640462806
1.0451086689276898,2.069392062494178,1791,3,20.319453895547426,41.657264640462806
1.065797400663414,2.0693713733356556,1791,3,20.319453895547426,41.657264640462806
1.0864859188384104,2.069350684391866,1791,3,20.319453895547426,41.657264640462806
1.1071742239720186,2.069329995662199,1791,3,20.319453895547426,41.657264640462806
1.1278623165437784,2.0693093071460926,1791,3,20.319453895547426,41.657264640462806
1.1485501969964929,2.069288618843028,1791,3,20.319453895547426,41.657264640462806
1.1692378657390532,2.0692679307525252,1791,3,20.319453895547426,41.657264640462806
1.18992532314905,2.0692472428741415,1791,3,20.319453895547426,41.657264640462806
1.2106125695751797,2.0692265552074676,1791,3,20.319453895547426,41.657264640462806
1.231299605339469,2.0692058677521263,1791,3,20.319453895547426,41.657264640462806
1.251986430739326,2.069185180507769,1791,3,20.319453895547426,41.657264640462806
1.2726730460494355,2.0691644934740734,1791,3,20.319453895547426,41.657264640462806
1.2933594515235058,2.069143806650742,1791,3,20.319453895547426,41.657264640462806
1.3140456473958848,2.069123120037501,1791,3,20.319453895547426,41.657264640462806
1.3347316338830473,2.0691024336340953,1791,3,20.319453895547426,41.657264640462806
1.3554174111849715,2.0690817474402916,1791,3,20.319453895547426,41.657264640462806
1.3761029794864081,2.0690610614558733,1791,3,20.319453895547426,41.657264640462806
1.3967883389580518,2.06904037568064,1791,3,20.319453895547426,41.657264640462806
1.4174734897576236,2.0690196901144073,1791,3,20.319453895547426,41.657264640462806
1.4381584320308671,2.068999004757004,1791,3,20.319453895547426,41.657264640462806
1.4588431659124717,2.068978319608273,1791,3,20.319453895547426,41.657264640462806
1.4795276915269229,2.0689576346680685,1791,3,20.319453895547426,41.657264640462806
1.5002120089892863,2.0689369499362553,1791,3,20.319453895547426,41.657264640462806
1.5208961184059344,2.0689162654127093,1791,3,20.319453895547426,41.657264640462806
1.5415800198752139,2.0688955810973155,1791,3,20.319453895547426,41.657264640462806
1.5622637134880635,2.0688748969899673,1791,3,20.319453895547426,41.657264640462806
1.582947199328583,2.0688542130905665,1791,3,20.319453895547426,41.657264640462806
1.6036304774745624,2.068833529399022,1791,3,20.319453895547426,41.657264640462806
1.624313547997964,2.0688128459152497,1791,3,20.319453895547426,41.657264640462806
1.6449964109653727,2.068792162639172,1791,3,20.319453895547426,41.657264640462806
1.6656790664384096,2.0687714795707173,1791,3,20.319453895547426,41.657264640462806
1.6863615144741129,2.068750796709818,1791,3,20.319453895547426,41.657264640462806
1.707043755125292,2.068730114056413,1791,3,20.319453895547426,41.657264640462806
1.7277257884408512,2.0687094316104457,1791,3,20.319453895547426,41.657264640462806
1.7484076144660923,2.068688749371863,1791,3,20.319453895547426,41.657264640462806
1.7690892332429897,2.0686680673406155,1791,3,20.319453895547426,41.657264640462806
1.7897706448104478,2.0686473855166585,1791,3,20.319453895547426,41.657264640462806
1.8104518492045354,2.06862670389995,1791,3,20.319453895547426,41.657264640462806
1.8311328464587067,2.068606022490451,1791,3,20.319453895547426,41.657264640462806
1.8518136366039997,2.0685853412881245,1791,3,20.319453895547426,41.657264640462806
1.8724942196692245,2.068564660292939,1791,3,20.319453895547426,41.657264640462806
1.8931745956811326,2.0685439795048617,1791,3,20.319453895547426,41.657264640462806
1.9138547646645772,2.068523298923864,1791,3,20.319453895547426,41.657264640462806
1.9345347266426565,2.0685026185499207,1791,3,20.319453895547426,41.657264640462806
1.9552144816368522,2.0684819383830053,1791,3,20.319453895547426,41.657264640462806
1.9758940296671517,2.068461258423095,1791,3,20.319453895547426,41.657264640462806
1.996573370752163,2.068440578670169,1791,3,20.319453895547426,41.657264640462806
2.0172525049092225,2.0684198991242067,1791,3,20.319453895547426,41.657264640462806
2.0379314321544904,2.0683992197851895,1791,3,20.319453895547426,41.657264640462806
2.058610152503044,2.0683785406531006,1791,3,20.319453895547426,41.657264640462806
2.079288665968958,2.068357861727923,1791,3,20.319453895547426,41.657264640462806
2.099966972565384,2.0683371830096426,1791,3,20.319453895547426,41.657264640462806
2.120645072304621,2.0683165044982443,1791,3,20.319453895547426,41.657264640462806
2.14132296519818,2.068295826193716,1791,3,20.319453895547426,41.657264640462806
2.162000651256846,2.0682751480960446,1791,3,20.319453895547426,41.657264640462806
2.1826781304907326,2.068254470205219,1791,3,20.319453895547426,41.657264640462806
2.2033554029093345,2.068233792521228,1791,3,20.319453895547426,41.657264640462806
2.224032468521575,2.068213115044062,1791,3,20.319453895547426,41.657264640462806
2.2447093273358503,2.0681924377737113,1791,3,20.319453895547426,41.657264640462806
2.2653859793600675,2.0681717607101664,1791,3,20.319453895547426,41.657264640462806
2.2860624246016874,2.06815108385342,1791,3,20.319453895547426,41.657264640462806
2.306738663067753,2.0681304072034634,1791,3,20.319453895547426,41.657264640462806
2.3274146947649257,2.06810973076029,1791,3,20.319453895547426,41.657264640462806
2.3480905196995137,2.0680890545238912,1791,3,20.319453895547426,41.657264640462806
2.3687661378774982,2.0680683784942615,1791,3,20.319453895547426,41.657264640462806
2.3894415493045584,2.068047702671395,1791,3,20.319453895547426,41.657264640462806
2.410116753986097,2.0680270270552845,1791,3,20.319453895547426,41.657264640462806
2.4307917519272606,2.068006351645925,1791,3,20.319453895547426,41.657264640462806
2.451466543132956,2.067985676443311,1791,3,20.319453895547426,41.657264640462806
2.4721411276078733,2.0679650014474373,1791,3,20.319453895547426,41.657264640462806
2.4928155053565013,2.067944326658299,1791,3,20.319453895547426,41.657264640462806
2.5134896763831414,2.0679236520758915,1791,3,20.319453895547426,41.657264640462806
2.534163640691922,2.0679029777002107,1791,3,20.319453895547426,41.657264640462806
2.554837398286816,2.0678823035312512,1791,3,20.319453895547426,41.657264640462806
2.5755109491716457,2.06786162956901,1791,3,20.319453895547426,41.657264640462806
2.596184293350101,2.0678409558134825,1791,3,20.319453895547426,41.657264640462806
2.616857430825746,2.067820282264665,1791,3,20.319453895547426,41.657264640462806
2.6375303616020314,2.067799608922554,1791,3,20.319453895547426,41.657264640462806
2.6582030856822967,2.0677789357871457,1791,3,20.319453895547426,41.657264640462806
2.6788756030697876,2.067758262858437,1791,3,20.319453895547426,41.657264640462806
2.6995479137676575,2.067737590136424,1791,3,20.319453895547426,41.657264640462806
2.720220017778977,2.0677169176211034,1791,3,20.319453895547426,41.657264640462806
2.740891915106738,2.067696245312473,1791,3,20.319453895547426,41.657264640462806
2.7615636057538624,2.0676755732105287,1791,3,20.319453895547426,41.657264640462806
2.782235089723206,2.0676549013152683,1791,3,20.319453895547426,41.657264640462806
2.802906367017563,2.0676342296266883,1791,3,20.319453895547426,41.657264640462806
2.8235774376396727,2.0676135581447865,1791,3,20.319453895547426,41.657264640462806
2.8442483015922218,2.067592886869559,1791,3,20.319453895547426,41.657264640462806
2.864918958877849,2.0675722158010044,1791,3,20.319453895547426,41.657264640462806
2.8855894094991497,2.0675515449391186,1791,3,20.319453895547426,41.657264640462806
2.906259653458679,2.0675308742839,1791,3,20.319453895547426,41.657264640462806
2.926929690758953,2.067510203835346,1791,3,20.319453895547426,41.657264640462806
2.947599521402454,2.0674895335934536,1791,3,20.319453895547426,41.657264640462806
2.9682691453916323,2.0674688635582203,1791,3,20.319453895547426,41.657264640462806
2.988938562728907,2.067448193729644,1791,3,20.319453895547426,41.657264640462806
3.009607773416674,2.0674275241077216,1791,3,20.319453895547426,41.657264640462806
3.0302767774572987,2.0674068546924516,1791,3,20.319453895547426,41.657264640462806
3.050945574853127,2.0673861854838305,1791,3,20.319453895547426,41.657264640462806
3.0716141656064813,2.067365516481857,1791,3,20.319453895547426,41.657264640462806
3.092282549719666,2.067344847686528,1791,3,20.319453895547426,41.657264640462806
3.112950727194966,2.0673241790978416,1791,3,20.319453895547426,41.657264640462806
3.1336186980346494,2.0673035107157953,1791,3,20.319453895547426,41.657264640462806
3.1542864622409694,2.067282842540387,1791,3,20.319453895547426,41.657264640462806
3.174954019816163,2.067262174571614,1791,3,20.319453895547426,41.657264640462806
3.195621370762457,2.0672415068094745,1791,3,20.319453895547426,41.657264640462806
3.216288515082062,2.067220839253966,1791,3,20.319453895547426,41.657264640462806
3.2369554527771816,2.0672001719050868,1791,3,20.319453895547426,41.657264640462806
3.2576221838500055,2.0671795047628336,1791,3,20.319453895547426,41.657264640462806
3.2782887083027137,2.0671588378272054,1791,3,20.319453895547426,41.657264640462806
3.2989550261374814,2.067138171098199,1791,3,20.319453895547426,41.657264640462806
3.319621137356471,2.0671175045758132,1791,3,20.319453895547426,41.657264640462806
3.340287041961838,2.067096838260045,1791,3,20.319453895547426,41.657264640462806
3.3609527399557346,2.067076172150893,1791,3,20.319453895547426,41.657264640462806
3.381618231340302,2.067055506248354,1791,3,20.319453895547426,41.657264640462806
3.4022835161176777,2.067034840552427,1791,3,20.319453895547426,41.657264640462806
3.422948594289993,2.067014175063109,1791,3,20.319453895547426,41.657264640462806
3.4436134658593742,2.066993509780398,1791,3,20.319453895547426,41.657264640462806
3.4642781308279442,2.066972844704292,1791,3,20.319453895547426,41.657264640462806
3.4849425891978205,2.0669521798347894,1791,3,20.319453895547426,41.657264640462806
3.5056068409711143,2.0669315151718872,1791,3,20.319453895547426,41.657264640462806
3.5262708861499372,2.066910850715584,1791,3,20.319453895547426,41.657264640462806
3.546934724736396,2.066890186465877,1791,3,20.319453895547426,41.657264640462806
3.5675983567325917,2.0668695224227647,1791,3,20.319453895547426,41.657264640462806
3.5882617821406253,2.0668488585862446,1791,3,20.319453895547426,41.657264640462806
3.608925000962595,2.0668281949563148,1791,3,20.319453895547426,41.657264640462806
3.629588013200595,2.066807531532973,1791,3,20.319453895547426,41.657264640462806
3.650250818856718,2.0667868683162176,1791,3,20.319453895547426,41.657264640462806
3.670913417933056,2.066766205306046,1791,3,20.319453895547426,41.657264640462806
3.6915758104316954,2.0667455425024563,1791,3,20.319453895547426,41.657264640462806
3.7122379963547245,2.066724879905446,1791,3,20.319453895547426,41.657264640462806
3.732899975704228,2.0667042175150137,1791,3,20.319453895547426,41.657264640462806
3.7535617484822894,2.066683555331157,1791,3,20.319453895547426,41.657264640462806
3.774223314690992,2.0666628933538735,1791,3,20.319453895547426,41.657264640462806
3.794884674332415,2.066642231583162,1791,3,20.319453895547426,41.657264640462806
3.8155458274086373,2.066621570019019,1791,3,20.319453895547426,41.657264640462806
3.8362067739217394,2.066600908661444,1791,3,20.319453895547426,41.657264640462806
3.856867513873798,2.066580247510434,1791,3,20.319453895547426,41.657264640462806
3.87752804726689,2.066559586565987,1791,3,20.319453895547426,41.657264640462806
3.8981883741030905,2.0665389258281013,1791,3,20.319453895547426,41.657264640462806
3.918848494384474,2.066518265296774,1791,3,20.319453895547426,41.657264640462806
3.939508408113115,2.066497604972004,1791,3,20.319453895547426,41.657264640462806
3.960168115291086,2.0664769448537887,1791,3,20.319453895547426,41.657264640462806
3.9808276159204605,2.066456284942126,1791,3,20.319453895547426,41.657264640462806
4.001486910003309,2.066435625237014,1791,3,20.319453895547426,41.657264640462806
4.022145997541704,2.0664149657384505,1791,3,20.319453895547426,41.657264640462806
4.0428048785377175,2.066394306446434,1791,3,20.319453895547426,41.657264640462806
4.063463552993419,2.0663736473609613,1791,3,20.319453895547426,41.657264640462806
4.084122020910877,2.0663529884820315,1791,3,20.319453895547426,41.657264640462806
4.104780282292164,2.0663323298096414,1791,3,20.319453895547426,41.657264640462806
4.1254383371393475,2.06631167134379,1791,3,20.319453895547426,41.657264640462806
4.146096185454496,2.0662910130844745,1791,3,20.319453895547426,41.657264640462806
4.166753827239679,2.066270355031693,1791,3,20.319453895547426,41.657264640462806
4.187411262496964,2.066249697185444,1791,3,20.319453895547426,41.657264640462806
4.208068491228419,2.0662290395457243,1791,3,20.319453895547426,41.657264640462806
4.228725513436113,2.066208382112533,1791,3,20.319453895547426,41.657264640462806
4.2493823291221124,2.066187724885867,1791,3,20.319453895547426,41.657264640462806
4.270038938288484,2.0661670678657256,1791,3,20.319453895547426,41.657264640462806
4.290695340937296,2.066146411052105,1791,3,20.319453895547426,41.657264640462806
4.311351537070613,2.0661257544450042,1791,3,20.319453895547426,41.657264640462806
4.332007526690503,2.0661050980444213,1791,3,20.319453895547426,41.657264640462806
4.352663309799033,2.0660844418503537,1791,3,20.319453895547426,41.657264640462806
4.373318886398269,2.0660637858627995,1791,3,20.319453895547426,41.657264640462806
4.393974256490278,2.0660431300817566,1791,3,20.319453895547426,41.657264640462806
4.414629420077124,2.0660224745072227,1791,3,20.319453895547426,41.657264640462806
4.435284377160873,2.0660018191391964,1791,3,20.319453895547426,41.657264640462806
4.455939127743592,2.0659811639776753,1791,3,20.319453895547426,41.657264640462806
4.476593671827346,2.065960509022657,1791,3,20.319453895547426,41.657264640462806
4.497248009414201,2.0659398542741396,1791,3,20.319453895547426,41.657264640462806
4.517902140506221,2.0659191997321216,1791,3,20.319453895547426,41.657264640462806
4.538556065105475,2.0658985453966,1791,3,20.319453895547426,41.657264640462806
4.559209783214024,2.0658778912675735,1791,3,20.319453895547426,41.657264640462806
4.579863294833935,2.0658572373450395,1791,3,20.319453895547426,41.657264640462806
4.600516599967272,2.0658365836289967,1791,3,20.319453895547426,41.657264640462806
4.621169698616103,2.065815930119442,1791,3,20.319453895547426,41.657264640462806
4.641822590782489,2.065795276816374,1791,3,20.319453895547426,41.657264640462806
4.662475276468498,2.0657746237197907,1791,3,20.319453895547426,41.657264640462806
4.683127755676193,2.0657539708296895,1791,3,20.319453895547426,41.657264640462806
4.70378002840764,2.065733318146069,1791,3,20.319453895547426,41.657264640462806
4.724432094664903,2.065712665668926,1791,3,20.319453895547426,41.657264640462806
4.745083954450045,2.06569201339826,1791,3,20.319453895547426,41.657264640462806
4.765735607765134,2.065671361334068,1791,3,20.319453895547426,41.657264640462806
4.786387054612233,2.065650709476348,1791,3,20.319453895547426,41.657264640462806
4.807038294993407,2.0656300578250986,1791,3,20.319453895547426,41.657264640462806
4.827689328910719,2.0656094063803163,1791,3,20.319453895547426,41.657264640462806
4.848340156366233,2.0655887551420005,1791,3,20.319453895547426,41.657264640462806
4.868990777362016,2.0655681041101484,1791,3,20.319453895547426,41.657264640462806
4.8896411919001315,2.0655474532847578,1791,3,20.319453895547426,41.657264640462806
4.910291399982642,2.0655268026658273,1791,3,20.319453895547426,41.657264640462806
4.930941401611613,2.0655061522533544,1791,3,20.319453895547426,41.657264640462806
4.95159119678911,2.065485502047337,1791,3,20.319453895547426,41.657264640462806
