Vout,Iout,Irradiance,Temperature,MaxVoltage,MaxPower
0.009384939760194614,1.877006,1531,38,22.89423710033458,42.449318847970254
0.02815464574416518,1.877006,1531,38,22.89423710033458,42.449318847970254
0.04692397014472097,1.8769964273596398,1531,38,22.89423710033458,42.449318847970254
0.06569284479211132,1.8769776576536559,1531,38,22.89423710033458,42.449318847970254
0.08446124740727899,1.8769588883302124,1531,38,22.89423710033458,42.449318847970254
0.10322919987533993,1.876940119457442,1531,38,22.89423710033458,42.449318847970254
0.12199672239830286,1.8769213510567038,1531,38,22.89423710033458,42.449318847970254
0.1407638336241544,1.8769025831061126,1531,38,22.89423710033458,42.449318847970254
0.15953055076622036,1.8768838155854666,1531,38,22.89423710033458,42.449318847970254
0.17829688971355015,1.8768650484761176,1531,38,22.89423710033458,42.449318847970254
0.19706286513280938,1.8768462817608522,1531,38,22.89423710033458,42.449318847970254
0.2158284905623315,1.8768275154237815,1531,38,22.89423710033458,42.449318847970254
0.23459377849893367,1.876808749450239,1531,38,22.89423710033458,42.449318847970254
0.25335874047805257,1.8767899838266862,1531,38,22.89423710033458,42.449318847970254
0.2721233871477145,1.876771218540626,1531,38,22.89423710033458,42.449318847970254
0.2908877283368143,1.8767524535805236,1531,38,22.89423710033458,42.449318847970254
0.3096517731181403,1.8767336889357304,1531,38,22.89423710033458,42.449318847970254
0.3284155298665507,1.8767149245964179,1531,38,22.89423710033458,42.449318847970254
0.34717900631267323,1.8766961605535128,1531,38,22.89423710033458,42.449318847970254
0.36594220959247314,1.876677396798641,1531,38,22.89423710033458,42.449318847970254
0.3847051462930076,1.8766586333240711,1531,38,22.89423710033458,42.449318847970254
0.4034678224946597,1.8766398701226679,1531,38,22.89423710033458,42.449318847970254
0.42223024381012225,1.8766211071878436,1531,38,22.89423710033458,42.449318847970254
0.4409924154203832,1.8766023445135183,1531,38,22.89423710033458,42.449318847970254
0.4597543421079414,1.876583582094079,1531,38,22.89423710033458,42.449318847970254
0.4785160282874669,1.8765648199243452,1531,38,22.89423710033458,42.449318847970254
0.49727747803410244,1.876546057999534,1531,38,22.89423710033458,42.449318847970254
0.5160386951095871,1.8765272963152304,1531,38,22.89423710033458,42.449318847970254
0.5347996829863704,1.87650853486736,1531,38,22.89423710033458,42.449318847970254
0.5535604448698696,1.8764897736521606,1531,38,22.89423710033458,42.449318847970254
0.5723209837190171,1.8764710126661601,1531,38,22.89423710033458,42.449318847970254
0.5910813022652246,1.8764522519061526,1531,38,22.89423710033458,42.449318847970254
0.6098414030298888,1.8764334913691796,1531,38,22.89423710033458,42.449318847970254
0.6286012883405503,1.8764147310525094,1531,38,22.89423710033458,42.449318847970254
0.6473609603458097,1.8763959709536209,1531,38,22.89423710033458,42.449318847970254
0.6661204210290949,1.8763772110701864,1531,38,22.89423710033458,42.449318847970254
0.6848796722213697,1.876358451400057,1531,38,22.89423710033458,42.449318847970254
0.7036387156128655,1.8763396919412498,1531,38,22.89423710033458,42.449318847970254
0.7223975527639087,1.8763209326919335,1531,38,22.89423710033458,42.449318847970254
0.7411561851149159,1.876302173650418,1531,38,22.89423710033458,42.449318847970254
0.7599146139956199,1.8762834148151428,1531,38,22.89423710033458,42.449318847970254
0.7786728406335861,1.8762646561846676,1531,38,22.89423710033458,42.449318847970254
0.7974308661620737,1.8762458977576628,1531,38,22.89423710033458,42.449318847970254
0.8161886916272907,1.8762271395329007,1531,38,22.89423710033458,42.449318847970254
0.8349463179950932,1.876208381509248,1531,38,22.89423710033458,42.449318847970254
0.8537037461571664,1.8761896236856588,1531,38,22.89423710033458,42.449318847970254
0.8724609769367327,1.8761708660611667,1531,38,22.89423710033458,42.449318847970254
0.8912180110938182,1.8761521086348805,1531,38,22.89423710033458,42.449318847970254
0.9099748493301159,1.8761333514059766,1531,38,22.89423710033458,42.449318847970254
0.9287314922934736,1.8761145943736952,1531,38,22.89423710033458,42.449318847970254
0.9474879405820367,1.8760958375373347,1531,38,22.89423710033458,42.449318847970254
0.9662441947480731,1.876077080896247,1531,38,22.89423710033458,42.449318847970254
0.9850002553015021,1.8760583244498341,1531,38,22.89423710033458,42.449318847970254
1.0037561227131533,1.8760395681975437,1531,38,22.89423710033458,42.449318847970254
1.0225117974177746,1.876020812138866,1531,38,22.89423710033458,42.449318847970254
1.041267279816807,1.87600205627333,1531,38,22.89423710033458,42.449318847970254
1.0600225702809496,1.875983300600501,1531,38,22.89423710033458,42.449318847970254
1.0787776691525222,1.8759645451199776,1531,38,22.89423710033458,42.449318847970254
1.0975325767476507,1.875945789831389,1531,38,22.89423710033458,42.449318847970254
1.1162872933582824,1.8759270347343928,1531,38,22.89423710033458,42.449318847970254
1.1350418192540455,1.8759082798286733,1531,38,22.89423710033458,42.449318847970254
1.1537961546839666,1.8758895251139382,1531,38,22.89423710033458,42.449318847970254
1.1725502998780568,1.875870770589918,1531,38,22.89423710033458,42.449318847970254
1.191304255048773,1.8758520162563634,1531,38,22.89423710033458,42.449318847970254
1.2100580203923703,1.875833262113045,1531,38,22.89423710033458,42.449318847970254
1.228811596090148,1.8758145081597495,1531,38,22.89423710033458,42.449318847970254
1.247564982309599,1.8757957543962813,1531,38,22.89423710033458,42.449318847970254
1.266318179205474,1.875777000822459,1531,38,22.89423710033458,42.449318847970254
1.2850711869207618,1.875758247438115,1531,38,22.89423710033458,42.449318847970254
1.3038240055875927,1.8757394942430945,1531,38,22.89423710033458,42.449318847970254
1.322576635328075,1.8757207412372545,1531,38,22.89423710033458,42.449318847970254
1.3413290762550658,1.8757019884204629,1531,38,22.89423710033458,42.449318847970254
1.360081328472884,1.8756832357925977,1531,38,22.89423710033458,42.449318847970254
1.3788333920779652,1.875664483353546,1531,38,22.89423710033458,42.449318847970254
1.3975852671594697,1.8756457311032035,1531,38,22.89423710033458,42.449318847970254
1.4163369537998418,1.8756269790414737,1531,38,22.89423710033458,42.449318847970254
1.4350884520753264,1.8756082271682675,1531,38,22.89423710033458,42.449318847970254
1.453839762056447,1.8755894754835023,1531,38,22.89423710033458,42.449318847970254
1.472590883808444,1.875570723987102,1531,38,22.89423710033458,42.449318847970254
1.491341817391683,1.875551972678996,1531,38,22.89423710033458,42.449318847970254
1.5100925628620292,1.8755332215591192,1531,38,22.89423710033458,42.449318847970254
1.528843120271193,1.875514470627411,1531,38,22.89423710033458,42.449318847970254
1.547593489667051,1.8754957198838158,1531,38,22.89423710033458,42.449318847970254
1.5663436710939398,1.8754769693282818,1531,38,22.89423710033458,42.449318847970254
1.5850936645929292,1.875458218960761,1531,38,22.89423710033458,42.449318847970254
1.6038434702020734,1.875439468781209,1531,38,22.89423710033458,42.449318847970254
1.622593087956642,1.875420718789585,1531,38,22.89423710033458,42.449318847970254
1.641342517889335,1.875401968985851,1531,38,22.89423710033458,42.449318847970254
1.6600917600304823,1.8753832193699713,1531,38,22.89423710033458,42.449318847970254
1.6788408144082232,1.8753644699419136,1531,38,22.89423710033458,42.449318847970254
1.697589681048675,1.8753457207016475,1531,38,22.89423710033458,42.449318847970254
1.7163383599760922,1.8753269716491447,1531,38,22.89423710033458,42.449318847970254
1.7350868512130047,1.8753082227843791,1531,38,22.89423710033458,42.449318847970254
1.7538351547803543,1.8752894741073267,1531,38,22.89423710033458,42.449318847970254
1.7725832706976161,1.8752707256179646,1531,38,22.89423710033458,42.449318847970254
1.7913311989829104,1.8752519773162721,1531,38,22.89423710033458,42.449318847970254
1.8100789396531072,1.8752332292022298,1531,38,22.89423710033458,42.449318847970254
1.828826492723923,1.8752144812758194,1531,38,22.89423710033458,42.449318847970254
1.8475738582100096,1.875195733537024,1531,38,22.89423710033458,42.449318847970254
1.8663210361250346,1.8751769859858278,1531,38,22.89423710033458,42.449318847970254
1.8850680264817596,1.8751582386222165,1531,38,22.89423710033458,42.449318847970254
1.903814829292107,1.8751394914461763,1531,38,22.89423710033458,42.449318847970254
1.9225614445672266,1.8751207444576943,1531,38,22.89423710033458,42.449318847970254
1.9413078723175545,1.8751019976567587,1531,38,22.89423710033458,42.449318847970254
1.9600541125528683,1.8750832510433584,1531,38,22.89423710033458,42.449318847970254
1.978800165282337,1.8750645046174825,1531,38,22.89423710033458,42.449318847970254
1.997546030514568,1.875045758379122,1531,38,22.89423710033458,42.449318847970254
2.0162917082576515,1.875027012328267,1531,38,22.89423710033458,42.449318847970254
2.0350371985191993,1.8750082664649095,1531,38,22.89423710033458,42.449318847970254
2.05378250130638,1.874989520789041,1531,38,22.89423710033458,42.449318847970254
2.0725276166259574,1.8749707753006541,1531,38,22.89423710033458,42.449318847970254
2.0912725444843168,1.8749520299997415,1531,38,22.89423710033458,42.449318847970254
2.1100172848874967,1.8749332848862965,1531,38,22.89423710033458,42.449318847970254
2.1287618378412176,1.8749145399603127,1531,38,22.89423710033458,42.449318847970254
2.1475062033509005,1.874895795221784,1531,38,22.89423710033458,42.449318847970254
2.1662503814216953,1.8748770506707046,1531,38,22.89423710033458,42.449318847970254
2.1849943720584997,1.8748583063070696,1531,38,22.89423710033458,42.449318847970254
2.203738175265978,1.874839562130873,1531,38,22.89423710033458,42.449318847970254
2.2224817910485806,1.8748208181421109,1531,38,22.89423710033458,42.449318847970254
2.241225219410559,1.8748020743407778,1531,38,22.89423710033458,42.449318847970254
2.259968460355983,1.8747833307268695,1531,38,22.89423710033458,42.449318847970254
2.2787115138887506,1.874764587300382,1531,38,22.89423710033458,42.449318847970254
2.297454380012607,1.874745844061311,1531,38,22.89423710033458,42.449318847970254
2.3161970587311513,1.8747271010096525,1531,38,22.89423710033458,42.449318847970254
2.3349395500478516,1.874708358145403,1531,38,22.89423710033458,42.449318847970254
2.353681853966052,1.8746896154685586,1531,38,22.89423710033458,42.449318847970254
2.372423970488984,1.8746708729791164,1531,38,22.89423710033458,42.449318847970254
2.3911658996197738,1.8746521306770723,1531,38,22.89423710033458,42.449318847970254
2.4099076413614515,1.8746333885624236,1531,38,22.89423710033458,42.449318847970254
2.4286491957169587,1.8746146466351672,1531,38,22.89423710033458,42.449318847970254
2.447390562689155,1.8745959048952996,1531,38,22.89423710033458,42.449318847970254
2.4661317422808224,1.8745771633428183,1531,38,22.89423710033458,42.449318847970254
2.4848727344946755,1.8745584219777203,1531,38,22.89423710033458,42.449318847970254
2.5036135393333616,1.8745396808000028,1531,38,22.89423710033458,42.449318847970254
2.5223541567994703,1.8745209398096632,1531,38,22.89423710033458,42.449318847970254
2.5410945868955346,1.8745021990066986,1531,38,22.89423710033458,42.449318847970254
2.5598348296240383,1.8744834583911065,1531,38,22.89423710033458,42.449318847970254
2.578574884987417,1.8744647179628846,1531,38,22.89423710033458,42.449318847970254
2.5973147529880634,1.8744459777220301,1531,38,22.89423710033458,42.449318847970254
2.6160544336283302,1.8744272376685407,1531,38,22.89423710033458,42.449318847970254
2.634793926910534,1.874408497802414,1531,38,22.89423710033458,42.449318847970254
2.6535332328369536,1.874389758123648,1531,38,22.89423710033458,42.449318847970254
2.6722723514098434,1.8743710186322395,1531,38,22.89423710033458,42.449318847970254
2.691011282631423,1.8743522793281873,1531,38,22.89423710033458,42.449318847970254
2.7097500265038854,1.8743335402114882,1531,38,22.89423710033458,42.449318847970254
2.728488583029401,1.8743148012821407,1531,38,22.89423710033458,42.449318847970254
2.747226952210117,1.8742960625401421,1531,38,22.89423710033458,42.449318847970254
2.7659651340481584,1.8742773239854904,1531,38,22.89423710033458,42.449318847970254
2.7847031285456314,1.8742585856181835,1531,38,22.89423710033458,42.449318847970254
2.8034409357046255,1.8742398474382194,1531,38,22.89423710033458,42.449318847970254
2.8221785555272123,1.8742211094455958,1531,38,22.89423710033458,42.449318847970254
2.840915988015447,1.8742023716403107,1531,38,22.89423710033458,42.449318847970254
2.8596532331713727,1.8741836340223619,1531,38,22.89423710033458,42.449318847970254
2.878390290997018,1.8741648965917472,1531,38,22.89423710033458,42.449318847970254
2.8971271614944003,1.8741461593484652,1531,38,22.89423710033458,42.449318847970254
2.9158638446655254,1.8741274222925133,1531,38,22.89423710033458,42.449318847970254
2.93460034051239,1.8741086854238895,1531,38,22.89423710033458,42.449318847970254
2.9533366490369795,1.8740899487425922,1531,38,22.89423710033458,42.449318847970254
2.9720727702412715,1.874071212248619,1531,38,22.89423710033458,42.449318847970254
2.9908087041272355,1.874052475941968,1531,38,22.89423710033458,42.449318847970254
3.009544450696833,1.8740337398226374,1531,38,22.89423710033458,42.449318847970254
3.028280009952021,1.8740150038906251,1531,38,22.89423710033458,42.449318847970254
3.0470153818947465,1.8739962681459292,1531,38,22.89423710033458,42.449318847970254
3.0657505665269524,1.8739775325885475,1531,38,22.89423710033458,42.449318847970254
3.0844855638505764,1.8739587972184784,1531,38,22.89423710033458,42.449318847970254
3.103220373867552,1.8739400620357198,1531,38,22.89423710033458,42.449318847970254
3.121954996579806,1.8739213270402697,1531,38,22.89423710033458,42.449318847970254
3.140689431989262,1.8739025922321262,1531,38,22.89423710033458,42.449318847970254
3.1594236800978392,1.8738838576112875,1531,38,22.89423710033458,42.449318847970254
3.1781577409074546,1.8738651231777514,1531,38,22.89423710033458,42.449318847970254
3.1968916144200197,1.8738463889315164,1531,38,22.89423710033458,42.449318847970254
3.2156253006374453,1.87382765487258,1531,38,22.89423710033458,42.449318847970254
3.234358799561637,1.873808921000941,1531,38,22.89423710033458,42.449318847970254
3.2530921111944995,1.873790187316597,1531,38,22.89423710033458,42.449318847970254
3.2718252355379347,1.8737714538195462,1531,38,22.89423710033458,42.449318847970254
3.290558172593841,1.8737527205097868,1531,38,22.89423710033458,42.449318847970254
3.309290922364115,1.8737339873873167,1531,38,22.89423710033458,42.449318847970254
3.3280234848506534,1.873715254452134,1531,38,22.89423710033458,42.449318847970254
3.3467558600553495,1.8736965217042372,1531,38,22.89423710033458,42.449318847970254
3.3654880479800946,1.8736777891436238,1531,38,22.89423710033458,42.449318847970254
3.3842200486267795,1.8736590567702924,1531,38,22.89423710033458,42.449318847970254
3.4029518619972943,1.873640324584241,1531,38,22.89423710033458,42.449318847970254
3.4216834880935236,1.8736215925854676,1531,38,22.89423710033458,42.449318847970254
3.4404149269173567,1.87360286077397,1531,38,22.89423710033458,42.449318847970254
3.4591461784706774,1.8735841291497473,1531,38,22.89423710033458,42.449318847970254
3.4778772427553704,1.8735653977127966,1531,38,22.89423710033458,42.449318847970254
3.49660811977332,1.8735466664631164,1531,38,22.89423710033458,42.449318847970254
3.5153388095264075,1.8735279354007048,1531,38,22.89423710033458,42.449318847970254
3.534069312016515,1.87350920452556,1531,38,22.89423710033458,42.449318847970254
3.5527996272455233,1.87349047383768,1531,38,22.89423710033458,42.449318847970254
3.571529755215313,1.873471743337063,1531,38,22.89423710033458,42.449318847970254
3.590259695927764,1.873453013023707,1531,38,22.89423710033458,42.449318847970254
3.6089894493847545,1.8734342828976103,1531,38,22.89423710033458,42.449318847970254
3.627719015588163,1.8734155529587708,1531,38,22.89423710033458,42.449318847970254
3.6464483945398674,1.873396823207187,1531,38,22.89423710033458,42.449318847970254
3.665177586241746,1.8733780936428566,1531,38,22.89423710033458,42.449318847970254
3.6839065906956754,1.8733593642657778,1531,38,22.89423710033458,42.449318847970254
3.7026354079035317,1.873340635075949,1531,38,22.89423710033458,42.449318847970254
3.7213640378671924,1.873321906073368,1531,38,22.89423710033458,42.449318847970254
3.7400924805885327,1.8733031772580329,1531,38,22.89423710033458,42.449318847970254
3.7588207360694286,1.8732844486299423,1531,38,22.89423710033458,42.449318847970254
3.7775488043117553,1.8732657201890937,1531,38,22.89423710033458,42.449318847970254
3.796276685317388,1.8732469919354857,1531,38,22.89423710033458,42.449318847970254
3.8150043790881996,1.8732282638691162,1531,38,22.89423710033458,42.449318847970254
3.833731885626067,1.8732095359899834,1531,38,22.89423710033458,42.449318847970254
3.852459204932864,1.8731908082980853,1531,38,22.89423710033458,42.449318847970254
3.871186337010464,1.8731720807934202,1531,38,22.89423710033458,42.449318847970254
3.8899132818607414,1.8731533534759863,1531,38,22.89423710033458,42.449318847970254
3.9086400394855705,1.8731346263457813,1531,38,22.89423710033458,42.449318847970254
3.927366609886823,1.8731158994028039,1531,38,22.89423710033458,42.449318847970254
3.9460929930663746,1.8730971726470518,1531,38,22.89423710033458,42.449318847970254
3.964819189026097,1.8730784460785233,1531,38,22.89423710033458,42.449318847970254
3.9835451977678633,1.8730597196972163,1531,38,22.89423710033458,42.449318847970254
4.002271019293548,1.8730409935031291,1531,38,22.89423710033458,42.449318847970254
4.020996653605022,1.8730222674962602,1531,38,22.89423710033458,42.449318847970254
4.03972210070416,1.873003541676607,1531,38,22.89423710033458,42.449318847970254
4.058447360592833,1.8729848160441682,1531,38,22.89423710033458,42.449318847970254
4.077172433272916,1.8729660905989416,1531,38,22.89423710033458,42.449318847970254
4.09589731874628,1.8729473653409254,1531,38,22.89423710033458,42.449318847970254
4.1146220170147965,1.872928640270118,1531,38,22.89423710033458,42.449318847970254
4.133346528080339,1.8729099153865172,1531,38,22.89423710033458,42.449318847970254
4.15207085194478,1.872891190690121,1531,38,22.89423710033458,42.449318847970254
4.170794988609991,1.8728724661809282,1531,38,22.89423710033458,42.449318847970254
4.189518938077844,1.8728537418589362,1531,38,22.89423710033458,42.449318847970254
4.208242700350212,1.8728350177241433,1531,38,22.89423710033458,42.449318847970254
4.226966275428967,1.872816293776548,1531,38,22.89423710033458,42.449318847970254
4.2456896633159795,1.8727975700161479,1531,38,22.89423710033458,42.449318847970254
4.264412864013122,1.8727788464429416,1531,38,22.89423710033458,42.449318847970254
4.283135877522267,1.872760123056927,1531,38,22.89423710033458,42.449318847970254
4.301858703845286,1.8727413998581022,1531,38,22.89423710033458,42.449318847970254
4.32058134298405,1.8727226768464653,1531,38,22.89423710033458,42.449318847970254
4.339303794940431,1.8727039540220147,1531,38,22.89423710033458,42.449318847970254
4.358026059716302,1.8726852313847482,1531,38,22.89423710033458,42.449318847970254
4.376748137313533,1.8726665089346641,1531,38,22.89423710033458,42.449318847970254
4.395470027733997,1.8726477866717606,1531,38,22.89423710033458,42.449318847970254
4.414191730979565,1.8726290645960355,1531,38,22.89423710033458,42.449318847970254
4.432913247052108,1.8726103427074874,1531,38,22.89423710033458,42.449318847970254
4.451634575953498,1.872591621006114,1531,38,22.89423710033458,42.449318847970254
4.470355717685605,1.8725728994919135,1531,38,22.89423710033458,42.449318847970254
