Vout,Iout,Irradiance,Temperature,MaxVoltage,MaxPower
0.0028035830424707454,0.5607219999999999,491,-4,19.787350472421757,10.703876448625818
0.008410697286508294,0.5607219999999999,491,-4,19.787350472421757,10.703876448625818
0.014017697539319657,0.5607191403447574,491,-4,19.787350472421757,10.703876448625818
0.019624563436410024,0.5607135332305134,491,-4,19.787350472421757,10.703876448625818
0.02523128832230919,0.5607079262305465,491,-4,19.787350472421757,10.703876448625818
0.030837878734804446,0.5607023193652102,491,-4,19.787350472421757,10.703876448625818
0.03644434070888487,0.560696712640885,491,-4,19.787350472421757,10.703876448625818
0.04205067981530326,0.5606911060510332,491,-4,19.787350472421757,10.703876448625818
0.04765690119623304,0.5606854995896198,491,-4,19.787350472421757,10.703876448625818
0.05326300959824383,0.560679893251074,491,-4,19.787350472421757,10.703876448625818
0.05886900940273986,0.5606742870302538,491,-4,19.787350472421757,10.703876448625818
0.06447490465405632,0.5606686809224124,491,-4,19.787350472421757,10.703876448625818
0.07008069908539404,0.5606630749231685,491,-4,19.787350472421757,10.703876448625818
0.07568639614275853,0.5606574690284778,491,-4,19.787350472421757,10.703876448625818
0.0812919990070574,0.560651863234607,491,-4,19.787350472421757,10.703876448625818
0.08689751061449733,0.5606462575381103,491,-4,19.787350472421757,10.703876448625818
0.09250293367541172,0.5606406519358066,491,-4,19.787350472421757,10.703876448625818
0.0981082706916398,0.5606350464247597,491,-4,19.787350472421757,10.703876448625818
0.10371352397256842,0.5606294410022593,491,-4,19.787350472421757,10.703876448625818
0.10931869564993967,0.5606238356658036,491,-4,19.787350472421757,10.703876448625818
0.11492378769151923,0.5606182304130832,491,-4,19.787350472421757,10.703876448625818
0.12052880191371282,0.5606126252419664,491,-4,19.787350472421757,10.703876448625818
0.12613373999321217,0.5606070201504854,491,-4,19.787350472421757,10.703876448625818
0.13173860347774488,0.5606014151368237,491,-4,19.787350472421757,10.703876448625818
0.13734339379599692,0.5605958101993047,491,-4,19.787350472421757,10.703876448625818
0.1429481122667722,0.5605902053363807,491,-4,19.787350472421757,10.703876448625818
0.14855276010744659,0.560584600546623,491,-4,19.787350472421757,10.703876448625818
0.15415733844177265,0.5605789958287126,491,-4,19.787350472421757,10.703876448625818
0.15976184830708237,0.5605733911814325,491,-4,19.787350472421757,10.703876448625818
0.16536629066093714,0.5605677866036586,491,-4,19.787350472421757,10.703876448625818
0.170970666387265,0.5605621820943537,491,-4,19.787350472421757,10.703876448625818
0.17657497630202643,0.5605565776525604,491,-4,19.787350472421757,10.703876448625818
0.18217922115844348,0.5605509732773944,491,-4,19.787350472421757,10.703876448625818
0.18778340165182747,0.5605453689680402,491,-4,19.787350472421757,10.703876448625818
0.1933875184240344,0.5605397647237441,491,-4,19.787350472421757,10.703876448625818
0.1989915720675779,0.5605341605438112,491,-4,19.787350472421757,10.703876448625818
0.20459556312942573,0.5605285564275995,491,-4,19.787350472421757,10.703876448625818
0.21019949211450423,0.5605229523745163,491,-4,19.787350472421757,10.703876448625818
0.21580335948893312,0.5605173483840149,491,-4,19.787350472421757,10.703876448625818
0.22140716568301097,0.5605117444555902,491,-4,19.787350472421757,10.703876448625818
0.2270109110939719,0.5605061405887761,491,-4,19.787350472421757,10.703876448625818
0.23261459608852905,0.5605005367831425,491,-4,19.787350472421757,10.703876448625818
0.2382182210052233,0.5604949330382919,491,-4,19.787350472421757,10.703876448625818
0.24382178615659067,0.5604893293538578,491,-4,19.787350472421757,10.703876448625818
0.2494252918311633,0.5604837257295014,491,-4,19.787350472421757,10.703876448625818
0.2550287382953164,0.5604781221649104,491,-4,19.787350472421757,10.703876448625818
0.26063212579497275,0.5604725186597962,491,-4,19.787350472421757,10.703876448625818
0.2662354545571767,0.5604669152138924,491,-4,19.787350472421757,10.703876448625818
0.2718387247915463,0.5604613118269531,491,-4,19.787350472421757,10.703876448625818
0.27744193669161477,0.5604557084987513,491,-4,19.787350472421757,10.703876448625818
0.28304509043606724,0.5604501052290772,491,-4,19.787350472421757,10.703876448625818
0.2886481861898838,0.5604445020177374,491,-4,19.787350472421757,10.703876448625818
0.29425122410539384,0.5604388988645533,491,-4,19.787350472421757,10.703876448625818
0.2998542043232493,0.5604332957693599,491,-4,19.787350472421757,10.703876448625818
0.3054571269733231,0.5604276927320047,491,-4,19.787350472421757,10.703876448625818
0.311059992175539,0.5604220897523471,491,-4,19.787350472421757,10.703876448625818
0.31666280004063624,0.5604164868302574,491,-4,19.787350472421757,10.703876448625818
0.3222655506708771,0.5604108839656154,491,-4,19.787350472421757,10.703876448625818
0.3278682441606985,0.5604052811583107,491,-4,19.787350472421757,10.703876448625818
0.33347088059731445,0.5603996784082407,491,-4,19.787350472421757,10.703876448625818
0.33907346006127137,0.5603940757153111,491,-4,19.787350472421757,10.703876448625818
0.34467598262696175,0.5603884730794347,491,-4,19.787350472421757,10.703876448625818
0.35027844836309724,0.5603828705005311,491,-4,19.787350472421757,10.703876448625818
0.35588085733314534,0.5603772679785257,491,-4,19.787350472421757,10.703876448625818
0.3614832095957341,0.5603716655133498,491,-4,19.787350472421757,10.703876448625818
0.3670855052050232,0.56036606310494,491,-4,19.787350472421757,10.703876448625818
0.3726877442110482,0.5603604607532376,491,-4,19.787350472421757,10.703876448625818
0.37828992666003824,0.5603548584581886,491,-4,19.787350472421757,10.703876448625818
0.38389205259470843,0.5603492562197429,491,-4,19.787350472421757,10.703876448625818
0.3894941220545304,0.560343654037854,491,-4,19.787350472421757,10.703876448625818
0.3950961350759819,0.5603380519124797,491,-4,19.787350472421757,10.703876448625818
0.40069809169277704,0.56033244984358,491,-4,19.787350472421757,10.703876448625818
0.406299991936079,0.5603268478311187,491,-4,19.787350472421757,10.703876448625818
0.4119018358346965,0.5603212458750622,491,-4,19.787350472421757,10.703876448625818
0.41750362341526426,0.560315643975379,491,-4,19.787350472421757,10.703876448625818
0.4231053547024113,0.5603100421320406,491,-4,19.787350472421757,10.703876448625818
0.42870702971891445,0.5603044403450202,491,-4,19.787350472421757,10.703876448625818
0.434308648485841,0.5602988386142933,491,-4,19.787350472421757,10.703876448625818
0.4399102110226808,0.560293236939837,491,-4,19.787350472421757,10.703876448625818
0.4455117173474667,0.5602876353216303,491,-4,19.787350472421757,10.703876448625818
0.45111316747688734,0.5602820337596536,491,-4,19.787350472421757,10.703876448625818
0.4567145614263905,0.5602764322538889,491,-4,19.787350472421757,10.703876448625818
0.4623158992102784,0.5602708308043197,491,-4,19.787350472421757,10.703876448625818
0.46791718084179584,0.5602652294109304,491,-4,19.787350472421757,10.703876448625818
0.4735184063332117,0.5602596280737066,491,-4,19.787350472421757,10.703876448625818
0.47911957569589375,0.5602540267926353,491,-4,19.787350472421757,10.703876448625818
0.4847206889403784,0.5602484255677039,491,-4,19.787350472421757,10.703876448625818
0.4903217460764343,0.5602428243989014,491,-4,19.787350472421757,10.703876448625818
0.4959227471131218,0.5602372232862171,491,-4,19.787350472421757,10.703876448625818
0.5015236920588467,0.5602316222296411,491,-4,19.787350472421757,10.703876448625818
0.5071245809214117,0.5602260212291645,491,-4,19.787350472421757,10.703876448625818
0.5127254137080619,0.5602204202847789,491,-4,19.787350472421757,10.703876448625818
0.5183261904255279,0.5602148193964764,491,-4,19.787350472421757,10.703876448625818
0.5239269110800658,0.5602092185642499,491,-4,19.787350472421757,10.703876448625818
0.5295275756774933,0.5602036177880925,491,-4,19.787350472421757,10.703876448625818
0.5351281842232233,0.560198017067998,491,-4,19.787350472421757,10.703876448625818
0.5407287367222959,0.5601924164039607,491,-4,19.787350472421757,10.703876448625818
0.5463292331794058,0.560186815795975,491,-4,19.787350472421757,10.703876448625818
0.55192967359893,0.560181215244036,491,-4,19.787350472421757,10.703876448625818
0.5575300579849516,0.5601756147481389,491,-4,19.787350472421757,10.703876448625818
0.5631303863412824,0.5601700143082795,491,-4,19.787350472421757,10.703876448625818
0.5687306586714845,0.5601644139244535,491,-4,19.787350472421757,10.703876448625818
0.5743308749788888,0.5601588135966572,491,-4,19.787350472421757,10.703876448625818
0.5799310352666126,0.5601532133248871,491,-4,19.787350472421757,10.703876448625818
0.585531139537577,0.5601476131091397,491,-4,19.787350472421757,10.703876448625818
0.5911311877945207,0.560142012949412,491,-4,19.787350472421757,10.703876448625818
0.5967311800400155,0.560136412845701,491,-4,19.787350472421757,10.703876448625818
0.6023311162764777,0.5601308127980041,491,-4,19.787350472421757,10.703876448625818
0.6079309965061815,0.5601252128063187,491,-4,19.787350472421757,10.703876448625818
0.6135308207312687,0.5601196128706422,491,-4,19.787350472421757,10.703876448625818
0.6191305889537592,0.5601140129909725,491,-4,19.787350472421757,10.703876448625818
0.6247303011755607,0.5601084131673074,491,-4,19.787350472421757,10.703876448625818
0.6303299573984776,0.5601028133996448,491,-4,19.787350472421757,10.703876448625818
0.635929557624218,0.560097213687983,491,-4,19.787350472421757,10.703876448625818
0.6415291018544019,0.5600916140323201,491,-4,19.787350472421757,10.703876448625818
0.6471285900905673,0.5600860144326544,491,-4,19.787350472421757,10.703876448625818
0.6527280223341778,0.5600804148889842,491,-4,19.787350472421757,10.703876448625818
0.6583273985866266,0.5600748154013079,491,-4,19.787350472421757,10.703876448625818
0.6639267188492429,0.5600692159696242,491,-4,19.787350472421757,10.703876448625818
0.6695259831232974,0.5600636165939318,491,-4,19.787350472421757,10.703876448625818
0.6751251914100048,0.5600580172742291,491,-4,19.787350472421757,10.703876448625818
0.6807243437105306,0.560052418010515,491,-4,19.787350472421757,10.703876448625818
0.6863234400259932,0.5600468188027882,491,-4,19.787350472421757,10.703876448625818
0.6919224803574678,0.5600412196510476,491,-4,19.787350472421757,10.703876448625818
0.6975214647059903,0.5600356205552921,491,-4,19.787350472421757,10.703876448625818
0.7031203930725598,0.5600300215155205,491,-4,19.787350472421757,10.703876448625818
0.7087192654581416,0.5600244225317319,491,-4,19.787350472421757,10.703876448625818
0.7143180818636696,0.5600188236039252,491,-4,19.787350472421757,10.703876448625818
0.719916842290049,0.5600132247320996,491,-4,19.787350472421757,10.703876448625818
0.7255155467381591,0.5600076259162539,491,-4,19.787350472421757,10.703876448625818
0.7311141952088531,0.5600020271563875,491,-4,19.787350472421757,10.703876448625818
0.736712787702963,0.5599964284524992,491,-4,19.787350472421757,10.703876448625818
0.742311324221299,0.5599908298045884,491,-4,19.787350472421757,10.703876448625818
0.7479098047646525,0.5599852312126541,491,-4,19.787350472421757,10.703876448625818
0.7535082293337967,0.5599796326766957,491,-4,19.787350472421757,10.703876448625818
0.7591065979294888,0.5599740341967122,491,-4,19.787350472421757,10.703876448625818
0.7647049105524703,0.5599684357727028,491,-4,19.787350472421757,10.703876448625818
0.7703031672034688,0.559962837404667,491,-4,19.787350472421757,10.703876448625818
0.7759013678831995,0.5599572390926039,491,-4,19.787350472421757,10.703876448625818
0.7814995125923649,0.5599516408365127,491,-4,19.787350472421757,10.703876448625818
0.7870976013316571,0.5599460426363928,491,-4,19.787350472421757,10.703876448625818
0.7926956341017573,0.5599404444922434,491,-4,19.787350472421757,10.703876448625818
0.7982936109033377,0.559934846404064,491,-4,19.787350472421757,10.703876448625818
0.8038915317370623,0.5599292483718538,491,-4,19.787350472421757,10.703876448625818
0.8094893966035865,0.559923650395612,491,-4,19.787350472421757,10.703876448625818
0.8150872055035581,0.559918052475338,491,-4,19.787350472421757,10.703876448625818
0.8206849584376186,0.5599124546110313,491,-4,19.787350472421757,10.703876448625818
0.8262826554064031,0.5599068568026911,491,-4,19.787350472421757,10.703876448625818
0.8318802964105407,0.5599012590503168,491,-4,19.787350472421757,10.703876448625818
0.8374778814506555,0.5598956613539079,491,-4,19.787350472421757,10.703876448625818
0.8430754105273659,0.5598900637134635,491,-4,19.787350472421757,10.703876448625818
0.8486728836412868,0.5598844661289831,491,-4,19.787350472421757,10.703876448625818
0.8542703007930278,0.5598788686004662,491,-4,19.787350472421757,10.703876448625818
0.8598676619831953,0.5598732711279121,491,-4,19.787350472421757,10.703876448625818
0.8654649672123919,0.5598676737113201,491,-4,19.787350472421757,10.703876448625818
0.8710622164812166,0.5598620763506896,491,-4,19.787350472421757,10.703876448625818
0.8766594097902658,0.5598564790460202,491,-4,19.787350472421757,10.703876448625818
0.882256547140133,0.5598508817973111,491,-4,19.787350472421757,10.703876448625818
0.8878536285314088,0.5598452846045617,491,-4,19.787350472421757,10.703876448625818
0.8934506539646815,0.5598396874677717,491,-4,19.787350472421757,10.703876448625818
0.8990476234405373,0.5598340903869401,491,-4,19.787350472421757,10.703876448625818
0.9046445369595603,0.5598284933620665,491,-4,19.787350472421757,10.703876448625818
0.9102413945223325,0.5598228963931504,491,-4,19.787350472421757,10.703876448625818
0.9158381961294343,0.5598172994801911,491,-4,19.787350472421757,10.703876448625818
0.9214349417814446,0.559811702623188,491,-4,19.787350472421757,10.703876448625818
0.9270316314789406,0.5598061058221405,491,-4,19.787350472421757,10.703876448625818
0.9326282652224985,0.5598005090770483,491,-4,19.787350472421757,10.703876448625818
0.9382248430126924,0.5597949123879105,491,-4,19.787350472421757,10.703876448625818
0.9438213648500964,0.5597893157547266,491,-4,19.787350472421757,10.703876448625818
0.9494178307352822,0.559783719177496,491,-4,19.787350472421757,10.703876448625818
0.9550142406688213,0.5597781226562183,491,-4,19.787350472421757,10.703876448625818
0.9606105946512846,0.5597725261908928,491,-4,19.787350472421757,10.703876448625818
0.966206892683241,0.5597669297815189,491,-4,19.787350472421757,10.703876448625818
0.97180313476526,0.5597613334280961,491,-4,19.787350472421757,10.703876448625818
0.9773993208979092,0.5597557371306238,491,-4,19.787350472421757,10.703876448625818
0.982995451081756,0.5597501408891014,491,-4,19.787350472421757,10.703876448625818
0.9885915253173675,0.5597445447035283,491,-4,19.787350472421757,10.703876448625818
0.9941875436053095,0.559738948573904,491,-4,19.787350472421757,10.703876448625818
0.9997835059461477,0.5597333525002282,491,-4,19.787350472421757,10.703876448625818
1.0053794123404478,0.5597277564824997,491,-4,19.787350472421757,10.703876448625818
1.0109752627887736,0.5597221605207185,491,-4,19.787350472421757,10.703876448625818
1.0165710572916902,0.5597165646148838,491,-4,19.787350472421757,10.703876448625818
1.0221667958497611,0.5597109687649952,491,-4,19.787350472421757,10.703876448625818
1.02776247846355,0.5597053729710518,491,-4,19.787350472421757,10.703876448625818
1.0333581051336198,0.5596997772330533,491,-4,19.787350472421757,10.703876448625818
1.0389536758605338,0.5596941815509991,491,-4,19.787350472421757,10.703876448625818
1.0445491906448543,0.5596885859248886,491,-4,19.787350472421757,10.703876448625818
1.050144649487144,0.5596829903547212,491,-4,19.787350472421757,10.703876448625818
1.055740052387965,0.5596773948404965,491,-4,19.787350472421757,10.703876448625818
1.0613353993478787,0.5596717993822138,491,-4,19.787350472421757,10.703876448625818
1.0669306903674474,0.5596662039798725,491,-4,19.787350472421757,10.703876448625818
1.0725259254472324,0.5596606086334721,491,-4,19.787350472421757,10.703876448625818
1.0781211045877945,0.559655013343012,491,-4,19.787350472421757,10.703876448625818
1.0837162277896957,0.5596494181084919,491,-4,19.787350472421757,10.703876448625818
1.0893112950534967,0.5596438229299108,491,-4,19.787350472421757,10.703876448625818
1.0949063063797582,0.5596382278072685,491,-4,19.787350472421757,10.703876448625818
1.100501261769041,0.5596326327405642,491,-4,19.787350472421757,10.703876448625818
1.1060961612219056,0.5596270377297974,491,-4,19.787350472421757,10.703876448625818
1.1116910047389128,0.5596214427749676,491,-4,19.787350472421757,10.703876448625818
1.1172857923206232,0.5596158478760742,491,-4,19.787350472421757,10.703876448625818
1.1228805239675965,0.5596102530331167,491,-4,19.787350472421757,10.703876448625818
1.128475199680393,0.5596046582460945,491,-4,19.787350472421757,10.703876448625818
1.1340698194595733,0.559599063515007,491,-4,19.787350472421757,10.703876448625818
1.139664383305697,0.5595934688398537,491,-4,19.787350472421757,10.703876448625818
1.1452588912193242,0.559587874220634,491,-4,19.787350472421757,10.703876448625818
1.150853343201015,0.5595822796573474,491,-4,19.787350472421757,10.703876448625818
1.1564477392513293,0.5595766851499931,491,-4,19.787350472421757,10.703876448625818
1.1620420793708266,0.5595710906985709,491,-4,19.787350472421757,10.703876448625818
1.1676363635600668,0.5595654963030801,491,-4,19.787350472421757,10.703876448625818
1.1732305918196095,0.55955990196352,491,-4,19.787350472421757,10.703876448625818
1.1788247641500147,0.5595543076798902,491,-4,19.787350472421757,10.703876448625818
1.1844188805518416,0.5595487134521901,491,-4,19.787350472421757,10.703876448625818
1.1900129410256497,0.5595431192804191,491,-4,19.787350472421757,10.703876448625818
1.1956069455719989,0.5595375251645768,491,-4,19.787350472421757,10.703876448625818
1.2012008941914487,0.5595319311046624,491,-4,19.787350472421757,10.703876448625818
1.2067947868845583,0.5595263371006755,491,-4,19.787350472421757,10.703876448625818
1.212388623651887,0.5595207431526154,491,-4,19.787350472421757,10.703876448625818
1.2179824044939949,0.5595151492604816,491,-4,19.787350472421757,10.703876448625818
1.2235761294114404,0.5595095554242737,491,-4,19.787350472421757,10.703876448625818
1.2291697984047838,0.5595039616439911,491,-4,19.787350472421757,10.703876448625818
1.234763411474584,0.5594983679196329,491,-4,19.787350472421757,10.703876448625818
1.2403569686214004,0.559492774251199,491,-4,19.787350472421757,10.703876448625818
1.2459504698457922,0.5594871806386885,491,-4,19.787350472421757,10.703876448625818
1.2515439151483183,0.5594815870821012,491,-4,19.787350472421757,10.703876448625818
1.2571373045295384,0.5594759935814361,491,-4,19.787350472421757,10.703876448625818
1.2627306379900116,0.5594704001366929,491,-4,19.787350472421757,10.703876448625818
1.2683239155302974,0.559464806747871,491,-4,19.787350472421757,10.703876448625818
1.2739171371509546,0.55945921341497,491,-4,19.787350472421757,10.703876448625818
1.2795103028525425,0.5594536201379889,491,-4,19.787350472421757,10.703876448625818
1.2851034126356204,0.5594480269169276,491,-4,19.787350472421757,10.703876448625818
1.2906964665007472,0.5594424337517854,491,-4,19.787350472421757,10.703876448625818
1.2962894644484824,0.5594368406425616,491,-4,19.787350472421757,10.703876448625818
1.301882406479385,0.5594312475892558,491,-4,19.787350472421757,10.703876448625818
1.3074752925940134,0.5594256545918674,491,-4,19.787350472421757,10.703876448625818
1.3130681227929277,0.5594200616503958,491,-4,19.787350472421757,10.703876448625818
1.3186608970766869,0.5594144687648405,491,-4,19.787350472421757,10.703876448625818
1.3242536154458497,0.5594088759352008,491,-4,19.787350472421757,10.703876448625818
