Vout,Iout,Irradiance,Temperature,MaxVoltage,MaxPower
0.009277770790665475,1.855572,1531,31,22.376231690267318,41.02082936286027
0.027833140817233443,1.855572,1531,31,22.376231690267318,41.02082936286027
0.046388133617782885,1.8555625366720094,1531,31,22.376231690267318,41.02082936286027
0.06494268180101054,1.8555439813019827,1531,31,22.376231690267318,41.02082936286027
0.0834967633422693,1.8555254263101286,1531,31,22.376231690267318,41.02082936286027
0.10205039987676348,1.8555068717638008,1531,31,22.376231690267318,41.02082936286027
0.12060361137580997,1.855488317684115,1531,31,22.376231690267318,41.02082936286027
0.13915641627444955,1.855469764049436,1531,31,22.376231690267318,41.02082936286027
0.15770883158944454,1.8554512108397925,1531,31,22.376231690267318,41.02082936286027
0.17626087302840357,1.855432658036749,1531,31,22.376231690267318,41.02082936286027
0.1948125550905097,1.8554141056232896,1531,31,22.376231690267318,41.02082936286027
0.21336389115949903,1.855395553583706,1531,31,22.376231690267318,41.02082936286027
0.2319148935894842,1.855377001903499,1531,31,22.376231690267318,41.02082936286027
0.25046557378417594,1.855358450569285,1531,31,22.376231690267318,41.02082936286027
0.26901594227000813,1.8553398995687103,1531,31,22.376231690267318,41.02082936286027
0.2875660087636369,1.8553213488903708,1531,31,22.376231690267318,41.02082936286027
0.3061157822342464,1.85530279852374,1531,31,22.376231690267318,41.02082936286027
0.32466527096106,1.8552842484591014,1531,31,22.376231690267318,41.02082936286027
0.3432144825864274,1.8552656986874858,1531,31,22.376231690267318,41.02082936286027
0.3617634241648266,1.8552471492006142,1531,31,22.376231690267318,41.02082936286027
0.38031210220809564,1.8552285999908438,1531,31,22.376231690267318,41.02082936286027
0.3988605227271839,1.8552100510511202,1531,31,22.376231690267318,41.02082936286027
0.41740869127069175,1.855191502374932,1531,31,22.376231690267318,41.02082936286027
0.435956612960444,1.8551729539562678,1531,31,22.376231690267318,41.02082936286027
0.454504292524327,1.855154405789579,1531,31,22.376231690267318,41.02082936286027
0.47305173432659864,1.855135857869744,1531,31,22.376231690267318,41.02082936286027
0.4915989423958664,1.855117310192035,1531,31,22.376231690267318,41.02082936286027
0.5101459204509131,1.8550987627520876,1531,31,22.376231690267318,41.02082936286027
0.5286926719245356,1.8550802155458732,1531,31,22.376231690267318,41.02082936286027
0.5472391999855478,1.8550616685696728,1531,31,22.376231690267318,41.02082936286027
0.5657855075590935,1.8550431218200538,1531,31,22.376231690267318,41.02082936286027
0.5843315973453933,1.8550245752938477,1531,31,22.376231690267318,41.02082936286027
0.6028774718370515,1.8550060289881287,1531,31,22.376231690267318,41.02082936286027
0.6214231333350302,1.854987482900197,1531,31,22.376231690267318,41.02082936286027
0.6399685839633943,1.85496893702756,1531,31,22.376231690267318,41.02082936286027
0.6585138256829224,1.8549503913679166,1531,31,22.376231690267318,41.02082936286027
0.6770588603036706,1.8549318459191428,1531,31,22.376231690267318,41.02082936286027
0.6956036894965686,1.854913300679278,1531,31,22.376231690267318,41.02082936286027
0.7141483148041252,1.8548947556465116,1531,31,22.376231690267318,41.02082936286027
0.7326927376503084,1.8548762108191734,1531,31,22.376231690267318,41.02082936286027
0.7512369593496665,1.8548576661957203,1531,31,22.376231690267318,41.02082936286027
0.7697809811157474,1.8548391217747286,1531,31,22.376231690267318,41.02082936286027
0.7883248040688686,1.8548205775548836,1531,31,22.376231690267318,41.02082936286027
0.806868429243292,1.854802033534972,1531,31,22.376231690267318,41.02082936286027
0.8254118575938441,1.8547834897138733,1531,31,22.376231690267318,41.02082936286027
0.8439550900020274,1.8547649460905533,1531,31,22.376231690267318,41.02082936286027
0.8624981272816641,1.8547464026640572,1531,31,22.376231690267318,41.02082936286027
0.881040970184101,1.8547278594335033,1531,31,22.376231690267318,41.02082936286027
0.8995836194030185,1.8547093163980781,1531,31,22.376231690267318,41.02082936286027
0.9181260755788662,1.85469077355703,1531,31,22.376231690267318,41.02082936286027
0.9366683393029597,1.8546722309096653,1531,31,22.376231690267318,41.02082936286027
0.95521041112126,1.8546536884553437,1531,31,22.376231690267318,41.02082936286027
0.9737522915378635,1.854635146193474,1531,31,22.376231690267318,41.02082936286027
0.9922939810182235,1.85461660412351,1531,31,22.376231690267318,41.02082936286027
1.0108354799921229,1.8545980622449476,1531,31,22.376231690267318,41.02082936286027
1.0293767888564196,1.8545795205573214,1531,31,22.376231690267318,41.02082936286027
1.0479179079775784,1.8545609790602016,1531,31,22.376231690267318,41.02082936286027
1.0664588376940105,1.8545424377531916,1531,31,22.376231690267318,41.02082936286027
1.0849995783182327,1.8545238966359245,1531,31,22.376231690267318,41.02082936286027
1.103540130138857,1.8545053557080622,1531,31,22.376231690267318,41.02082936286027
1.1220804934224333,1.8544868149692921,1531,31,22.376231690267318,41.02082936286027
1.140620668415145,1.8544682744193255,1531,31,22.376231690267318,41.02082936286027
1.159160655344376,1.854449734057896,1531,31,22.376231690267318,41.02082936286027
1.1777004544201577,1.8544311938847575,1531,31,22.376231690267318,41.02082936286027
1.1962400658365033,1.8544126538996821,1531,31,22.376231690267318,41.02082936286027
1.2147794897726423,1.8543941141024605,1531,31,22.376231690267318,41.02082936286027
1.233318726394155,1.854375574492898,1531,31,22.376231690267318,41.02082936286027
1.2518577758540252,1.8543570350708158,1531,31,22.376231690267318,41.02082936286027
1.2703966382936083,1.8543384958360485,1531,31,22.376231690267318,41.02082936286027
1.2889353138435258,1.8543199567884425,1531,31,22.376231690267318,41.02082936286027
1.3074738026244916,1.8543014179278567,1531,31,22.376231690267318,41.02082936286027
1.3260121047480753,1.8542828792541608,1531,31,22.376231690267318,41.02082936286027
1.3445502203174027,1.8542643407672337,1531,31,22.376231690267318,41.02082936286027
1.363088149427809,1.854245802466964,1531,31,22.376231690267318,41.02082936286027
1.3816258921674365,1.8542272643532485,1531,31,22.376231690267318,41.02082936286027
1.4001634486177874,1.8542087264259919,1531,31,22.376231690267318,41.02082936286027
1.4187008188542378,1.8541901886851062,1531,31,22.376231690267318,41.02082936286027
1.4372380029465035,1.8541716511305095,1531,31,22.376231690267318,41.02082936286027
1.4557750009590815,1.854153113762127,1531,31,22.376231690267318,41.02082936286027
1.4743118129516473,1.8541345765798884,1531,31,22.376231690267318,41.02082936286027
1.492848438979428,1.8541160395837295,1531,31,22.376231690267318,41.02082936286027
1.5113848790935447,1.8540975027735906,1531,31,22.376231690267318,41.02082936286027
1.529921133341326,1.8540789661494166,1531,31,22.376231690267318,41.02082936286027
1.548457201766603,1.8540604297111563,1531,31,22.376231690267318,41.02082936286027
1.5669930844099758,1.8540418934587621,1531,31,22.376231690267318,41.02082936286027
1.5855287813090644,1.8540233573921905,1531,31,22.376231690267318,41.02082936286027
1.604064292498736,1.8540048215114007,1531,31,22.376231690267318,41.02082936286027
1.622599618011317,1.8539862858163552,1531,31,22.376231690267318,41.02082936286027
1.6411347578767908,1.853967750307019,1531,31,22.376231690267318,41.02082936286027
1.6596697121229744,1.85394921498336,1531,31,22.376231690267318,41.02082936286027
1.6782044807756886,1.853930679845348,1531,31,22.376231690267318,41.02082936286027
1.69673906385891,1.8539121448929554,1531,31,22.376231690267318,41.02082936286027
1.7152734613949112,1.8538936101261563,1531,31,22.376231690267318,41.02082936286027
1.7338076734043957,1.8538750755449267,1531,31,22.376231690267318,41.02082936286027
1.7523416999066157,1.853856541149244,1531,31,22.376231690267318,41.02082936286027
1.770875540919484,1.853838006939088,1531,31,22.376231690267318,41.02082936286027
1.7894091964596788,1.8538194729144393,1531,31,22.376231690267318,41.02082936286027
1.807942666542737,1.8538009390752799,1531,31,22.376231690267318,41.02082936286027
1.8264759511831419,1.853782405421593,1531,31,22.376231690267318,41.02082936286027
1.8450090503944068,1.8537638719533633,1531,31,22.376231690267318,41.02082936286027
1.8635419641891464,1.8537453386705762,1531,31,22.376231690267318,41.02082936286027
1.882074692579147,1.8537268055732183,1531,31,22.376231690267318,41.02082936286027
1.9006072355754315,1.853708272661277,1531,31,22.376231690267318,41.02082936286027
1.9191395931883168,1.8536897399347403,1531,31,22.376231690267318,41.02082936286027
1.9376717654274689,1.8536712073935973,1531,31,22.376231690267318,41.02082936286027
1.9562037523019515,1.8536526750378377,1531,31,22.376231690267318,41.02082936286027
1.9747355538202749,1.8536341428674519,1531,31,22.376231690267318,41.02082936286027
1.993267169990436,1.8536156108824307,1531,31,22.376231690267318,41.02082936286027
2.0117986008199593,1.8535970790827654,1531,31,22.376231690267318,41.02082936286027
2.0303298463159325,1.8535785474684485,1531,31,22.376231690267318,41.02082936286027
2.048860906485041,1.853560016039472,1531,31,22.376231690267318,41.02082936286027
2.0673917813335985,1.8535414847958294,1531,31,22.376231690267318,41.02082936286027
2.085922470867575,1.8535229537375133,1531,31,22.376231690267318,41.02082936286027
2.1044529750926237,1.8535044228645179,1531,31,22.376231690267318,41.02082936286027
2.1229832940141042,1.8534858921768371,1531,31,22.376231690267318,41.02082936286027
2.141513427637109,1.853467361674465,1531,31,22.376231690267318,41.02082936286027
2.160043375966478,1.8534488313573967,1531,31,22.376231690267318,41.02082936286027
2.178573139006824,1.8534303012256268,1531,31,22.376231690267318,41.02082936286027
2.1971027167625454,1.8534117712791505,1531,31,22.376231690267318,41.02082936286027
2.2156321092378457,1.853393241517963,1531,31,22.376231690267318,41.02082936286027
2.2341613164367473,1.8533747119420603,1531,31,22.376231690267318,41.02082936286027
2.252690338363105,1.853356182551438,1531,31,22.376231690267318,41.02082936286027
2.27121917502062,1.8533376533460921,1531,31,22.376231690267318,41.02082936286027
2.289747826412852,1.8533191243260185,1531,31,22.376231690267318,41.02082936286027
2.3082762925432285,1.853300595491214,1531,31,22.376231690267318,41.02082936286027
2.3268045734150546,1.8532820668416747,1531,31,22.376231690267318,41.02082936286027
2.3453326690315253,1.8532635383773972,1531,31,22.376231690267318,41.02082936286027
2.363860579395732,1.8532450100983782,1531,31,22.376231690267318,41.02082936286027
2.382388304510669,1.8532264820046147,1531,31,22.376231690267318,41.02082936286027
2.4009158443792455,1.8532079540961033,1531,31,22.376231690267318,41.02082936286027
2.4194431990042875,1.8531894263728412,1531,31,22.376231690267318,41.02082936286027
2.4379703683885467,1.8531708988348254,1531,31,22.376231690267318,41.02082936286027
2.4564973525347042,1.853152371482053,1531,31,22.376231690267318,41.02082936286027
2.4750241514453792,1.8531338443145215,1531,31,22.376231690267318,41.02082936286027
2.4935507651231306,1.8531153173322281,1531,31,22.376231690267318,41.02082936286027
2.5120771935704633,1.8530967905351703,1531,31,22.376231690267318,41.02082936286027
2.5306034367898325,1.8530782639233452,1531,31,22.376231690267318,41.02082936286027
2.5491294947836454,1.8530597374967506,1531,31,22.376231690267318,41.02082936286027
2.5676553675542686,1.8530412112553838,1531,31,22.376231690267318,41.02082936286027
2.586181055104027,1.8530226851992426,1531,31,22.376231690267318,41.02082936286027
2.6047065574352097,1.8530041593283246,1531,31,22.376231690267318,41.02082936286027
2.6232318745500733,1.8529856336426274,1531,31,22.376231690267318,41.02082936286027
2.6417570064508413,1.8529671081421488,1531,31,22.376231690267318,41.02082936286027
2.66028195313971,1.8529485828268866,1531,31,22.376231690267318,41.02082936286027
2.6788067146188492,1.8529300576968384,1531,31,22.376231690267318,41.02082936286027
2.6973312908904026,1.852911532752002,1531,31,22.376231690267318,41.02082936286027
2.7158556819564934,1.8528930079923753,1531,31,22.376231690267318,41.02082936286027
2.7343798878192227,1.8528744834179562,1531,31,22.376231690267318,41.02082936286027
2.752903908480673,1.8528559590287428,1531,31,22.376231690267318,41.02082936286027
2.7714277439429087,1.8528374348247325,1531,31,22.376231690267318,41.02082936286027
2.789951394207978,1.8528189108059234,1531,31,22.376231690267318,41.02082936286027
2.8084748592779123,1.8528003869723135,1531,31,22.376231690267318,41.02082936286027
2.8269981391547327,1.852781863323901,1531,31,22.376231690267318,41.02082936286027
2.8455212338404436,1.8527633398606833,1531,31,22.376231690267318,41.02082936286027
2.8640441433370403,1.852744816582659,1531,31,22.376231690267318,41.02082936286027
2.882566867646505,1.8527262934898256,1531,31,22.376231690267318,41.02082936286027
2.901089406770811,1.8527077705821813,1531,31,22.376231690267318,41.02082936286027
2.9196117607119225,1.852689247859724,1531,31,22.376231690267318,41.02082936286027
2.938133929471793,1.8526707253224521,1531,31,22.376231690267318,41.02082936286027
2.9566559130523706,1.8526522029703634,1531,31,22.376231690267318,41.02082936286027
2.9751777114555957,1.8526336808034556,1531,31,22.376231690267318,41.02082936286027
2.9936993246833996,1.8526151588217272,1531,31,22.376231690267318,41.02082936286027
3.0122207527377087,1.8525966370251763,1531,31,22.376231690267318,41.02082936286027
3.0307419956204447,1.8525781154138008,1531,31,22.376231690267318,41.02082936286027
3.0492630533335214,1.8525595939875985,1531,31,22.376231690267318,41.02082936286027
3.067783925878851,1.852541072746568,1531,31,22.376231690267318,41.02082936286027
3.086304613258338,1.8525225516907071,1531,31,22.376231690267318,41.02082936286027
3.1048251154738855,1.8525040308200138,1531,31,22.376231690267318,41.02082936286027
3.1233454325273895,1.8524855101344866,1531,31,22.376231690267318,41.02082936286027
3.141865564420745,1.852466989634123,1531,31,22.376231690267318,41.02082936286027
3.1603855111558428,1.8524484693189216,1531,31,22.376231690267318,41.02082936286027
3.17890527273457,1.8524299491888803,1531,31,22.376231690267318,41.02082936286027
3.1974248491588115,1.8524114292439973,1531,31,22.376231690267318,41.02082936286027
3.2159442404304515,1.8523929094842706,1531,31,22.376231690267318,41.02082936286027
3.2344634465513673,1.8523743899096983,1531,31,22.376231690267318,41.02082936286027
3.252982467523437,1.8523558705202785,1531,31,22.376231690267318,41.02082936286027
3.271501303348537,1.8523373513160097,1531,31,22.376231690267318,41.02082936286027
3.290019954028541,1.8523188322968895,1531,31,22.376231690267318,41.02082936286027
3.308538419565321,1.8523003134629163,1531,31,22.376231690267318,41.02082936286027
3.3270566999607465,1.8522817948140882,1531,31,22.376231690267318,41.02082936286027
3.345574795216687,1.8522632763504034,1531,31,22.376231690267318,41.02082936286027
3.3640927053350094,1.8522447580718597,1531,31,22.376231690267318,41.02082936286027
3.3826104303175786,1.8522262399784557,1531,31,22.376231690267318,41.02082936286027
3.4011279701662622,1.8522077220701891,1531,31,22.376231690267318,41.02082936286027
3.4196453248829215,1.8521892043470585,1531,31,22.376231690267318,41.02082936286027
3.438162494469421,1.8521706868090615,1531,31,22.376231690267318,41.02082936286027
3.4566794789276223,1.8521521694561967,1531,31,22.376231690267318,41.02082936286027
3.4751962782593853,1.852133652288462,1531,31,22.376231690267318,41.02082936286027
3.4937128924665712,1.8521151353058554,1531,31,22.376231690267318,41.02082936286027
3.512229321551039,1.8520966185083754,1531,31,22.376231690267318,41.02082936286027
3.5307455655146494,1.85207810189602,1531,31,22.376231690267318,41.02082936286027
3.549261624359258,1.8520595854687871,1531,31,22.376231690267318,41.02082936286027
3.567777498086723,1.852041069226675,1531,31,22.376231690267318,41.02082936286027
3.586293186698902,1.8520225531696821,1531,31,22.376231690267318,41.02082936286027
3.6048086901976513,1.8520040372978064,1531,31,22.376231690267318,41.02082936286027
3.6233240085848273,1.8519855216110457,1531,31,22.376231690267318,41.02082936286027
3.641839141862284,1.8519670061093987,1531,31,22.376231690267318,41.02082936286027
3.6603540900318783,1.851948490792863,1531,31,22.376231690267318,41.02082936286027
3.678868853095465,1.8519299756614371,1531,31,22.376231690267318,41.02082936286027
3.6973834310548974,1.851911460715119,1531,31,22.376231690267318,41.02082936286027
3.715897823912031,1.851892945953907,1531,31,22.376231690267318,41.02082936286027
3.734412031668719,1.851874431377799,1531,31,22.376231690267318,41.02082936286027
3.752926054326815,1.8518559169867934,1531,31,22.376231690267318,41.02082936286027
3.7714398918881726,1.8518374027808882,1531,31,22.376231690267318,41.02082936286027
3.7899535443546446,1.8518188887600815,1531,31,22.376231690267318,41.02082936286027
3.808467011728085,1.8518003749243714,1531,31,22.376231690267318,41.02082936286027
3.8269802940103452,1.8517818612737564,1531,31,22.376231690267318,41.02082936286027
3.8454933912032785,1.8517633478082345,1531,31,22.376231690267318,41.02082936286027
3.8640063033087366,1.8517448345278036,1531,31,22.376231690267318,41.02082936286027
3.882519030328572,1.851726321432462,1531,31,22.376231690267318,41.02082936286027
3.901031572264637,1.8517078085222078,1531,31,22.376231690267318,41.02082936286027
3.9195439291187832,1.8516892957970392,1531,31,22.376231690267318,41.02082936286027
3.9380561008928625,1.8516707832569546,1531,31,22.376231690267318,41.02082936286027
3.956568087588727,1.8516522709019516,1531,31,22.376231690267318,41.02082936286027
3.9750798892082275,1.8516337587320288,1531,31,22.376231690267318,41.02082936286027
3.9935915057532156,1.8516152467471843,1531,31,22.376231690267318,41.02082936286027
4.012102937225543,1.8515967349474158,1531,31,22.376231690267318,41.02082936286027
4.03061418362706,1.851578223332722,1531,31,22.376231690267318,41.02082936286027
4.049125244959618,1.8515597119031009,1531,31,22.376231690267318,41.02082936286027
4.067636121225069,1.8515412006585505,1531,31,22.376231690267318,41.02082936286027
4.086146812425263,1.8515226895990693,1531,31,22.376231690267318,41.02082936286027
4.104657318562052,1.851504178724655,1531,31,22.376231690267318,41.02082936286027
4.123167639637284,1.8514856680353058,1531,31,22.376231690267318,41.02082936286027
4.141677775652814,1.85146715753102,1531,31,22.376231690267318,41.02082936286027
4.160187726610489,1.851448647211796,1531,31,22.376231690267318,41.02082936286027
4.1786974925121605,1.8514301370776314,1531,31,22.376231690267318,41.02082936286027
4.197207073359681,1.8514116271285248,1531,31,22.376231690267318,41.02082936286027
4.2157164691548985,1.8513931173644742,1531,31,22.376231690267318,41.02082936286027
4.234225679899666,1.8513746077854776,1531,31,22.376231690267318,41.02082936286027
4.252734705595831,1.8513560983915334,1531,31,22.376231690267318,41.02082936286027
4.271243546245246,1.8513375891826396,1531,31,22.376231690267318,41.02082936286027
4.28975220184976,1.8513190801587944,1531,31,22.376231690267318,41.02082936286027
4.308260672411224,1.851300571319996,1531,31,22.376231690267318,41.02082936286027
4.32676895793149,1.8512820626662423,1531,31,22.376231690267318,41.02082936286027
4.345277058412405,1.8512635541975317,1531,31,22.376231690267318,41.02082936286027
4.363784973855822,1.8512450459138623,1531,31,22.376231690267318,41.02082936286027
4.382292704263588,1.8512265378152322,1531,31,22.376231690267318,41.02082936286027
4.400800249637556,1.8512080299016396,1531,31,22.376231690267318,41.02082936286027
4.419307609979575,1.8511895221730825,1531,31,22.376231690267318,41.02082936286027
