Vout,Iout,Irradiance,Temperature,MaxVoltage,MaxPower
0.00455101624022846,0.910212,751,31,22.366062732521033,19.858013008849614
0.013652964568087731,0.910212,751,31,22.366062732521033,19.858013008849614
0.02275472785562048,0.9102073579625598,751,31,22.366062732521033,19.858013008849614
0.03185627304543365,0.910198256014232,751,31,22.366062732521033,19.858013008849614
0.04095758933379767,0.9101891542514086,751,31,22.366062732521033,19.858013008849614
0.050058687333409124,0.910180052707129,751,31,22.366062732521033,19.858013008849614
0.05915957684077943,0.9101709513917507,751,31,22.366062732521033,19.858013008849614
0.06826026689883188,0.9101618502946613,751,31,22.366062732521033,19.858013008849614
0.07736076585478306,0.910152749406064,751,31,22.366062732521033,19.858013008849614
0.08646108141367152,0.9101436487169161,751,31,22.366062732521033,19.858013008849614
0.09556122068776804,0.9101345482188703,751,31,22.366062732521033,19.858013008849614
0.10466119024218407,0.9101254479042215,751,31,22.366062732521033,19.858013008849614
0.11376099613697105,0.9101163477658575,751,31,22.366062732521033,19.858013008849614
0.12286064396598052,0.9101072477972131,751,31,22.366062732521033,19.858013008849614
0.13196013889273428,0.9100981479922283,751,31,22.366062732521033,19.858013008849614
0.14105948568353457,0.9100890483453092,751,31,22.366062732521033,19.858013008849614
0.15015868873802685,0.9100799488512925,751,31,22.366062732521033,19.858013008849614
0.15925775211741092,0.9100708495054116,751,31,22.366062732521033,19.858013008849614
0.1683566795704814,0.9100617503032671,751,31,22.366062732521033,19.858013008849614
0.17745547455766483,0.9100526512407977,751,31,22.366062732521033,19.858013008849614
0.186554140273207,0.9100435523142545,751,31,22.366062732521033,19.858013008849614
0.1956526796656533,0.9100344535201772,751,31,22.366062732521033,19.858013008849614
0.2047510954567535,0.9100253548553716,751,31,22.366062732521033,19.858013008849614
0.21384939015891155,0.910016256316889,751,31,22.366062732521033,19.858013008849614
0.2229475660912931,0.9100071579020078,751,31,22.366062732521033,19.858013008849614
0.23204562539469342,0.9099980596082154,751,31,22.366062732521033,19.858013008849614
0.24114357004526174,0.909988961433193,751,31,22.366062732521033,19.858013008849614
0.2502414018671691,0.9099798633747994,751,31,22.366062732521033,19.858013008849614
0.25933912254430197,0.9099707654310586,751,31,22.366062732521033,19.858013008849614
0.26843673363105586,0.9099616676001465,751,31,22.366062732521033,19.858013008849614
0.27753423656229864,0.9099525698803792,751,31,22.366062732521033,19.858013008849614
0.2866316326625672,0.9099434722702022,751,31,22.366062732521033,19.858013008849614
0.29572892315455634,0.9099343747681807,751,31,22.366062732521033,19.858013008849614
0.30482610916695474,0.9099252773729902,751,31,22.366062732521033,19.858013008849614
0.31392319174167815,0.909916180083408,751,31,22.366062732521033,19.858013008849614
0.3230201718405453,0.9099070828983054,751,31,22.366062732521033,19.858013008849614
0.3321170503514413,0.9098979858166404,751,31,22.366062732521033,19.858013008849614
0.34121382809400586,0.9098888888374512,751,31,22.366062732521033,19.858013008849614
0.3503105058248844,0.90987979195985,751,31,22.366062732521033,19.858013008849614
0.35940708424257456,0.9098706951830171,751,31,22.366062732521033,19.858013008849614
0.3685035639919005,0.909861598506196,751,31,22.366062732521033,19.858013008849614
0.37759994566814264,0.9098525019286879,751,31,22.366062732521033,19.858013008849614
0.38669622982084956,0.9098434054498483,751,31,22.366062732521033,19.858013008849614
0.39579241695735634,0.9098343090690817,751,31,22.366062732521033,19.858013008849614
0.40488850754603334,0.9098252127858386,751,31,22.366062732521033,19.858013008849614
0.41398450201928344,0.9098161165996118,751,31,22.366062732521033,19.858013008849614
0.42308040077630954,0.9098070205099327,751,31,22.366062732521033,19.858013008849614
0.4321762041856695,0.9097979245163691,751,31,22.366062732521033,19.858013008849614
0.44127191258763354,0.9097888286185216,751,31,22.366062732521033,19.858013008849614
0.45036752629636106,0.9097797328160219,751,31,22.366062732521033,19.858013008849614
0.45946304560190926,0.9097706371085296,751,31,22.366062732521033,19.858013008849614
0.4685584707720879,0.9097615414957304,751,31,22.366062732521033,19.858013008849614
0.4776538020541711,0.9097524459773344,751,31,22.366062732521033,19.858013008849614
0.4867490396764771,0.9097433505530738,751,31,22.366062732521033,19.858013008849614
0.49584418384982687,0.9097342552227012,751,31,22.366062732521033,19.858013008849614
0.5049392347688907,0.9097251599859885,751,31,22.366062732521033,19.858013008849614
0.5140341926134304,0.9097160648427247,751,31,22.366062732521033,19.858013008849614
0.5231290575494465,0.9097069697927151,751,31,22.366062732521033,19.858013008849614
0.5322238297302372,0.9096978748357801,751,31,22.366062732521033,19.858013008849614
0.5413185092973755,0.9096887799717536,751,31,22.366062732521033,19.858013008849614
0.5504130963816118,0.9096796852004823,751,31,22.366062732521033,19.858013008849614
0.5595075911037063,0.9096705905218246,751,31,22.366062732521033,19.858013008849614
0.568601993575197,0.9096614959356499,751,31,22.366062732521033,19.858013008849614
0.5776963038991109,0.9096524014418372,751,31,22.366062732521033,19.858013008849614
0.586790522170617,0.9096433070402752,751,31,22.366062732521033,19.858013008849614
0.5958846484776322,0.9096342127308608,751,31,22.366062732521033,19.858013008849614
0.6049786829013788,0.9096251185134987,751,31,22.366062732521033,19.858013008849614
0.6140726255168996,0.9096160243881011,751,31,22.366062732521033,19.858013008849614
0.6231664763935337,0.9096069303545868,751,31,22.366062732521033,19.858013008849614
0.6322602355953547,0.9095978364128807,751,31,22.366062732521033,19.858013008849614
0.6413539031815766,0.9095887425629134,751,31,22.366062732521033,19.858013008849614
0.6504474792069267,0.909579648804621,751,31,22.366062732521033,19.858013008849614
0.659540963721992,0.9095705551379442,751,31,22.366062732521033,19.858013008849614
0.6686343567735369,0.9095614615628282,751,31,22.366062732521033,19.858013008849614
0.6777276584047978,0.9095523680792225,751,31,22.366062732521033,19.858013008849614
0.6868208686557539,0.9095432746870803,751,31,22.366062732521033,19.858013008849614
0.6959139875633787,0.9095341813863584,751,31,22.366062732521033,19.858013008849614
0.7050070151618711,0.9095250881770168,751,31,22.366062732521033,19.858013008849614
0.7140999514828678,0.9095159950590185,751,31,22.366062732521033,19.858013008849614
0.7231927965556418,0.9095069020323293,751,31,22.366062732521033,19.858013008849614
0.7322855504072836,0.9094978090969177,751,31,22.366062732521033,19.858013008849614
0.741378213062869,0.9094887162527542,751,31,22.366062732521033,19.858013008849614
0.7504707845456149,0.9094796234998118,751,31,22.366062732521033,19.858013008849614
0.7595632648770212,0.9094705308380655,751,31,22.366062732521033,19.858013008849614
0.7686556540770034,0.909461438267492,751,31,22.366062732521033,19.858013008849614
0.7777479521640155,0.9094523457880699,751,31,22.366062732521033,19.858013008849614
0.7868401591551606,0.9094432533997792,751,31,22.366062732521033,19.858013008849614
0.7959322750662962,0.9094341611026014,751,31,22.366062732521033,19.858013008849614
0.8050242999121295,0.9094250688965195,751,31,22.366062732521033,19.858013008849614
0.8141162337063059,0.9094159767815176,751,31,22.366062732521033,19.858013008849614
0.8232080764614912,0.909406884757581,751,31,22.366062732521033,19.858013008849614
0.8322998281894463,0.909397792824696,751,31,22.366062732521033,19.858013008849614
0.8413914889010969,0.9093887009828501,751,31,22.366062732521033,19.858013008849614
0.8504830586065985,0.9093796092320313,751,31,22.366062732521033,19.858013008849614
0.8595745373153948,0.9093705175722289,751,31,22.366062732521033,19.858013008849614
0.8686659250362728,0.9093614260034325,751,31,22.366062732521033,19.858013008849614
0.8777572217774136,0.9093523345256329,751,31,22.366062732521033,19.858013008849614
0.8868484275464382,0.9093432431388212,751,31,22.366062732521033,19.858013008849614
0.8959395423504514,0.9093341518429892,751,31,22.366062732521033,19.858013008849614
0.9050305661960818,0.9093250606381292,751,31,22.366062732521033,19.858013008849614
0.9141214990895167,0.9093159695242344,751,31,22.366062732521033,19.858013008849614
0.9232123410365386,0.9093068785012979,751,31,22.366062732521033,19.858013008849614
0.9323030920425539,0.9092977875693136,751,31,22.366062732521033,19.858013008849614
0.9413937521126238,0.9092886967282756,751,31,22.366062732521033,19.858013008849614
0.9504843212514892,0.9092796059781787,751,31,22.366062732521033,19.858013008849614
0.9595747994635968,0.9092705153190177,751,31,22.366062732521033,19.858013008849614
0.9686651867531203,0.909261424750788,751,31,22.366062732521033,19.858013008849614
0.9777554831239832,0.9092523342734848,751,31,22.366062732521033,19.858013008849614
0.9868456885798762,0.9092432438871044,751,31,22.366062732521033,19.858013008849614
0.9959358031242759,0.9092341535916426,751,31,22.366062732521033,19.858013008849614
1.0050258267604617,0.9092250633870957,751,31,22.366062732521033,19.858013008849614
1.0141157594915309,0.9092159732734604,751,31,22.366062732521033,19.858013008849614
1.0232056013204116,0.9092068832507332,751,31,22.366062732521033,19.858013008849614
1.0322953522498768,0.9091977933189112,751,31,22.366062732521033,19.858013008849614
1.041385012282556,0.9091887034779913,751,31,22.366062732521033,19.858013008849614
1.0504745814209469,0.9091796137279708,751,31,22.366062732521033,19.858013008849614
1.0595640596674238,0.9091705240688471,751,31,22.366062732521033,19.858013008849614
1.0686534470242495,0.9091614345006177,751,31,22.366062732521033,19.858013008849614
1.0777427434935811,0.9091523450232802,751,31,22.366062732521033,19.858013008849614
1.086831949077481,0.9091432556368323,751,31,22.366062732521033,19.858013008849614
1.095921063777922,0.909134166341272,751,31,22.366062732521033,19.858013008849614
1.1050100875967948,0.909125077136597,751,31,22.366062732521033,19.858013008849614
1.114099020535916,0.9091159880228055,751,31,22.366062732521033,19.858013008849614
1.1231878625970304,0.9091068989998955,751,31,22.366062732521033,19.858013008849614
1.1322766137818194,0.9090978100678653,751,31,22.366062732521033,19.858013008849614
1.1413652740919051,0.9090887212267131,751,31,22.366062732521033,19.858013008849614
1.1504538435288545,0.9090796324764372,751,31,22.366062732521033,19.858013008849614
1.159542322094184,0.909070543817036,751,31,22.366062732521033,19.858013008849614
1.168630709789362,0.9090614552485079,751,31,22.366062732521033,19.858013008849614
1.177719006615816,0.9090523667708514,751,31,22.366062732521033,19.858013008849614
1.186807212574932,0.9090432783840652,751,31,22.366062732521033,19.858013008849614
1.1958953276680595,0.9090341900881476,751,31,22.366062732521033,19.858013008849614
1.204983351896515,0.9090251018830973,751,31,22.366062732521033,19.858013008849614
1.2140712852615814,0.909016013768913,751,31,22.366062732521033,19.858013008849614
1.223159127764515,0.9090069257455933,751,31,22.366062732521033,19.858013008849614
1.2322468794065444,0.908997837813137,751,31,22.366062732521033,19.858013008849614
1.2413345401888738,0.9089887499715429,751,31,22.366062732521033,19.858013008849614
1.250422110112684,0.9089796622208097,751,31,22.366062732521033,19.858013008849614
1.2595095891791361,0.9089705745609361,751,31,22.366062732521033,19.858013008849614
1.26859697738937,0.9089614869919211,751,31,22.366062732521033,19.858013008849614
1.2776842747445094,0.9089523995137634,751,31,22.366062732521033,19.858013008849614
1.2867714812456605,0.908943312126462,751,31,22.366062732521033,19.858013008849614
1.2958585968939142,0.9089342248300155,751,31,22.366062732521033,19.858013008849614
1.3049456216903483,0.9089251376244232,751,31,22.366062732521033,19.858013008849614
1.3140325556360266,0.9089160505096836,751,31,22.366062732521033,19.858013008849614
1.323119398732001,0.9089069634857959,751,31,22.366062732521033,19.858013008849614
1.3322061509793128,0.908897876552759,751,31,22.366062732521033,19.858013008849614
1.3412928123789927,0.9088887897105716,751,31,22.366062732521033,19.858013008849614
1.3503793829320618,0.908879702959233,751,31,22.366062732521033,19.858013008849614
1.3594658626395333,0.9088706162987421,751,31,22.366062732521033,19.858013008849614
1.3685522515024113,0.9088615297290976,751,31,22.366062732521033,19.858013008849614
1.3776385495216936,0.9088524432502989,751,31,22.366062732521033,19.858013008849614
1.38672475669837,0.9088433568623446,751,31,22.366062732521033,19.858013008849614
1.395810873033425,0.908834270565234,751,31,22.366062732521033,19.858013008849614
1.4048968985278365,0.908825184358966,751,31,22.366062732521033,19.858013008849614
1.4139828331825774,0.9088160982435396,751,31,22.366062732521033,19.858013008849614
1.4230686769986156,0.9088070122189538,751,31,22.366062732521033,19.858013008849614
1.4321544299769138,0.9087979262852076,751,31,22.366062732521033,19.858013008849614
1.4412400921184314,0.9087888404423002,751,31,22.366062732521033,19.858013008849614
1.450325663424123,0.9087797546902304,751,31,22.366062732521033,19.858013008849614
1.4594111438949402,0.9087706690289975,751,31,22.366062732521033,19.858013008849614
1.4684965335318316,0.9087615834586005,751,31,22.366062732521033,19.858013008849614
1.477581832335742,0.9087524979790382,751,31,22.366062732521033,19.858013008849614
1.4866670403076128,0.9087434125903099,751,31,22.366062732521033,19.858013008849614
1.4957521574483843,0.9087343272924144,751,31,22.366062732521033,19.858013008849614
1.5048371837589936,0.9087252420853511,751,31,22.366062732521033,19.858013008849614
1.5139221192403747,0.9087161569691189,751,31,22.366062732521033,19.858013008849614
1.5230069638934611,0.9087070719437168,751,31,22.366062732521033,19.858013008849614
1.5320917177191842,0.908697987009144,751,31,22.366062732521033,19.858013008849614
1.541176380718472,0.9086889021653993,751,31,22.366062732521033,19.858013008849614
1.5502609528922526,0.9086798174124822,751,31,22.366062732521033,19.858013008849614
1.5593454342414514,0.9086707327503913,751,31,22.366062732521033,19.858013008849614
1.568429824766994,0.908661648179126,751,31,22.366062732521033,19.858013008849614
1.5775141244698034,0.9086525636986853,751,31,22.366062732521033,19.858013008849614
1.5865983333508014,0.9086434793090682,751,31,22.366062732521033,19.858013008849614
1.595682451410909,0.9086343950102739,751,31,22.366062732521033,19.858013008849614
1.6047664786510463,0.9086253108023012,751,31,22.366062732521033,19.858013008849614
1.6138504150721324,0.9086162266851496,751,31,22.366062732521033,19.858013008849614
1.6229342606750856,0.9086071426588179,751,31,22.366062732521033,19.858013008849614
1.6320180154608233,0.9085980587233052,751,31,22.366062732521033,19.858013008849614
1.641101679430262,0.9085889748786107,751,31,22.366062732521033,19.858013008849614
1.6501852525843177,0.9085798911247334,751,31,22.366062732521033,19.858013008849614
1.6592687349239066,0.9085708074616723,751,31,22.366062732521033,19.858013008849614
1.6683521264499426,0.9085617238894266,751,31,22.366062732521033,19.858013008849614
1.67743542716334,0.9085526404079953,751,31,22.366062732521033,19.858013008849614
1.6865186370650127,0.9085435570173777,751,31,22.366062732521033,19.858013008849614
1.6956017561558743,0.9085344737175727,751,31,22.366062732521033,19.858013008849614
1.7046847844368371,0.9085253905085793,751,31,22.366062732521033,19.858013008849614
1.7137677219088143,0.9085163073903968,751,31,22.366062732521033,19.858013008849614
1.7228505685727176,0.9085072243630241,751,31,22.366062732521033,19.858013008849614
1.7319333244294586,0.9084981414264605,751,31,22.366062732521033,19.858013008849614
1.7410159894799493,0.9084890585807048,751,31,22.366062732521033,19.858013008849614
1.7500985637251003,0.9084799758257565,751,31,22.366062732521033,19.858013008849614
1.7591810471658231,0.9084708931616142,751,31,22.366062732521033,19.858013008849614
1.7682634398030277,0.9084618105882774,751,31,22.366062732521033,19.858013008849614
1.7773457416376248,0.9084527281057448,751,31,22.366062732521033,19.858013008849614
1.7864279526705253,0.9084436457140159,751,31,22.366062732521033,19.858013008849614
1.7955100729026383,0.9084345634130896,751,31,22.366062732521033,19.858013008849614
1.8045921023348743,0.908425481202965,751,31,22.366062732521033,19.858013008849614
1.8136740409681424,0.908416399083641,751,31,22.366062732521033,19.858013008849614
1.8227558888033528,0.908407317055117,751,31,22.366062732521033,19.858013008849614
1.8318376458414145,0.9083982351173919,751,31,22.366062732521033,19.858013008849614
1.8409193120832372,0.908389153270465,751,31,22.366062732521033,19.858013008849614
1.8500008875297298,0.9083800715143351,751,31,22.366062732521033,19.858013008849614
1.8590823721818006,0.9083709898490014,751,31,22.366062732521033,19.858013008849614
1.8681637660403598,0.9083619082744632,751,31,22.366062732521033,19.858013008849614
1.8772450691063152,0.9083528267907193,751,31,22.366062732521033,19.858013008849614
1.886326281380576,0.9083437453977689,751,31,22.366062732521033,19.858013008849614
1.8954074028640502,0.908334664095611,751,31,22.366062732521033,19.858013008849614
1.904488433557647,0.9083255828842449,751,31,22.366062732521033,19.858013008849614
1.9135693734622747,0.9083165017636695,751,31,22.366062732521033,19.858013008849614
1.9226502225788418,0.908307420733884,751,31,22.366062732521033,19.858013008849614
1.9317309809082561,0.9082983397948876,751,31,22.366062732521033,19.858013008849614
1.9408116484514266,0.9082892589466791,751,31,22.366062732521033,19.858013008849614
1.9498922252092612,0.9082801781892578,751,31,22.366062732521033,19.858013008849614
1.958972711182668,0.9082710975226227,751,31,22.366062732521033,19.858013008849614
1.9680531063725553,0.9082620169467729,751,31,22.366062732521033,19.858013008849614
1.9771334107798315,0.9082529364617076,751,31,22.366062732521033,19.858013008849614
1.9862136244054036,0.9082438560674257,751,31,22.366062732521033,19.858013008849614
1.9952937472501808,0.9082347757639265,751,31,22.366062732521033,19.858013008849614
2.00437377931507,0.908225695551209,751,31,22.366062732521033,19.858013008849614
2.0134537206009795,0.9082166154292722,751,31,22.366062732521033,19.858013008849614
2.0225335711088177,0.9082075353981154,751,31,22.366062732521033,19.858013008849614
2.031613330839492,0.9081984554577375,751,31,22.366062732521033,19.858013008849614
2.04069299979391,0.9081893756081376,751,31,22.366062732521033,19.858013008849614
2.049772577972979,0.908180295849315,751,31,22.366062732521033,19.858013008849614
2.0588520653776086,0.9081712161812685,751,31,22.366062732521033,19.858013008849614
2.0679314620087053,0.9081621366039975,751,31,22.366062732521033,19.858013008849614
2.0770107678671765,0.9081530571175008,751,31,22.366062732521033,19.858013008849614
2.0860899829539306,0.9081439777217777,751,31,22.366062732521033,19.858013008849614
2.0951691072698746,0.9081348984168272,751,31,22.366062732521033,19.858013008849614
2.104248140815917,0.9081258192026483,751,31,22.366062732521033,19.858013008849614
2.113327083592965,0.9081167400792403,751,31,22.366062732521033,19.858013008849614
2.1224059356019254,0.9081076610466022,751,31,22.366062732521033,19.858013008849614
2.1314846968437067,0.908098582104733,751,31,22.366062732521033,19.858013008849614
2.140563367319216,0.908089503253632,751,31,22.366062732521033,19.858013008849614
2.149641947029362,0.9080804244932981,751,31,22.366062732521033,19.858013008849614
2.1587204359750505,0.9080713458237305,751,31,22.366062732521033,19.858013008849614
