Vout,Iout,Irradiance,Temperature,MaxVoltage,MaxPower
0.002734843703425929,0.546974,491,-18,18.758539739924206,9.908747839036439
0.008204480540429283,0.546974,491,-18,18.758539739924206,9.908747839036439
0.013674006181087649,0.5469712104588965,491,-18,18.758539739924206,9.908747839036439
0.01914340076021083,0.5469657408220595,491,-18,18.758539739924206,9.908747839036439
0.02461265778551002,0.5469602712966978,491,-18,18.758539739924206,9.908747839036439
0.030081783634476496,0.5469548019026657,491,-18,18.758539739924206,9.908747839036439
0.03555078419413113,0.5469493326461873,491,-18,18.758539739924206,9.908747839036439
0.04101966489864083,0.5469438635208853,491,-18,18.758539739924206,9.908747839036439
0.04648843076410122,0.5469383945208726,491,-18,18.758539739924206,9.908747839036439
0.0519570864207037,0.5469329256407149,491,-18,18.758539739924206,9.908747839036439
0.05742563614242751,0.5469274568753965,491,-18,18.758539739924206,9.908747839036439
0.06289408387444724,0.5469219882202867,491,-18,18.758539739924206,9.908747839036439
0.06836243325843167,0.5469165196711119,491,-18,18.758539739924206,9.908747839036439
0.07383068765589579,0.5469110512239267,491,-18,18.758539739924206,9.908747839036439
0.07929885016975652,0.5469055828750896,491,-18,18.758539739924206,9.908747839036439
0.08476692366422946,0.546900114621239,491,-18,18.758539739924206,9.908747839036439
0.09023491078319497,0.5468946464592719,491,-18,18.758539739924206,9.908747839036439
0.09570281396715127,0.5468891783863242,491,-18,18.758539739924206,9.908747839036439
0.10117063546886271,0.5468837103997521,491,-18,18.758539739924206,9.908747839036439
0.10663837736780457,0.5468782424971149,491,-18,18.758539739924206,9.908747839036439
0.112106041583496,0.54687277467616,491,-18,18.758539739924206,9.908747839036439
0.11757362988780747,0.5468673069348079,491,-18,18.758539739924206,9.908747839036439
0.12304114391632084,0.546861839271139,491,-18,18.758539739924206,9.908747839036439
0.12850858517881597,0.5468563716833814,491,-18,18.758539739924206,9.908747839036439
0.13397595506894977,0.5468509041698997,491,-18,18.758539739924206,9.908747839036439
0.13944325487319106,0.546845436729184,491,-18,18.758539739924206,9.908747839036439
0.14491048577906793,0.5468399693598406,491,-18,18.758539739924206,9.908747839036439
0.15037764888278,0.5468345020605831,491,-18,18.758539739924206,9.908747839036439
0.15584474519622574,0.5468290348302239,491,-18,18.758539739924206,9.908747839036439
0.16131177565348856,0.5468235676676669,491,-18,18.758539739924206,9.908747839036439
0.16677874111682417,0.5468181005719003,491,-18,18.758539739924206,9.908747839036439
0.17224564238218684,0.5468126335419897,491,-18,18.758539739924206,9.908747839036439
0.177712480184331,0.5468071665770731,491,-18,18.758539739924206,9.908747839036439
0.18317925520152004,0.5468016996763544,491,-18,18.758539739924206,9.908747839036439
0.1886459680598725,0.546796232839099,491,-18,18.758539739924206,9.908747839036439
0.1941126193373746,0.5467907660646285,491,-18,18.758539739924206,9.908747839036439
0.19957920956758346,0.5467852993523168,491,-18,18.758539739924206,9.908747839036439
0.20504573924304534,0.546779832701586,491,-18,18.758539739924206,9.908747839036439
0.21051220881845145,0.5467743661119024,491,-18,18.758539739924206,9.908747839036439
0.21597861871355026,0.5467688995827736,491,-18,18.758539739924206,9.908747839036439
0.22144496931583613,0.5467634331137449,491,-18,18.758539739924206,9.908747839036439
0.22691126098303113,0.5467579667043965,491,-18,18.758539739924206,9.908747839036439
0.23237749404537553,0.5467525003543409,491,-18,18.758539739924206,9.908747839036439
0.23784366880774263,0.5467470340632202,491,-18,18.758539739924206,9.908747839036439
0.24330978555159025,0.5467415678307046,491,-18,18.758539739924206,9.908747839036439
0.24877584453676233,0.5467361016564888,491,-18,18.758539739924206,9.908747839036439
0.2542418460031521,0.5467306355402916,491,-18,18.758539739924206,9.908747839036439
0.25970779017223716,0.546725169481853,491,-18,18.758539739924206,9.908747839036439
0.2651736772484962,0.5467197034809332,491,-18,18.758539739924206,9.908747839036439
0.27063950742071713,0.5467142375373107,491,-18,18.758539739924206,9.908747839036439
0.2761052808632041,0.5467087716507811,491,-18,18.758539739924206,9.908747839036439
0.28157099773689204,0.5467033058211554,491,-18,18.758539739924206,9.908747839036439
0.28703665819037555,0.5466978400482596,491,-18,18.758539739924206,9.908747839036439
0.292502262360858,0.5466923743319325,491,-18,18.758539739924206,9.908747839036439
0.2979678103750282,0.5466869086720256,491,-18,18.758539739924206,9.908747839036439
0.3034333023498692,0.5466814430684017,491,-18,18.758539739924206,9.908747839036439
0.3088987383934055,0.5466759775209341,491,-18,18.758539739924206,9.908747839036439
0.3143641186053917,0.5466705120295058,491,-18,18.758539739924206,9.908747839036439
0.31982944307794947,0.5466650465940088,491,-18,18.758539739924206,9.908747839036439
0.3252947118961545,0.5466595812143433,491,-18,18.758539739924206,9.908747839036439
0.3307599251385783,0.5466541158904173,491,-18,18.758539739924206,9.908747839036439
0.3362250828777895,0.5466486506221457,491,-18,18.758539739924206,9.908747839036439
0.3416901851808148,0.5466431854094498,491,-18,18.758539739924206,9.908747839036439
0.34715523210956584,0.5466377202522571,491,-18,18.758539739924206,9.908747839036439
0.352620223721233,0.5466322551505006,491,-18,18.758539739924206,9.908747839036439
0.358085160068648,0.5466267901041184,491,-18,18.758539739924206,9.908747839036439
0.3635500412006199,0.5466213251130532,491,-18,18.758539739924206,9.908747839036439
0.36901486716224413,0.5466158601772523,491,-18,18.758539739924206,9.908747839036439
0.3744796379951886,0.5466103952966669,491,-18,18.758539739924206,9.908747839036439
0.37994435373795715,0.5466049304712517,491,-18,18.758539739924206,9.908747839036439
0.38540901442613307,0.5465994657009653,491,-18,18.758539739924206,9.908747839036439
0.3908736200926041,0.5465940009857689,491,-18,18.758539739924206,9.908747839036439
0.39633817076776917,0.5465885363256272,491,-18,18.758539739924206,9.908747839036439
0.40180266647973045,0.5465830717205072,491,-18,18.758539739924206,9.908747839036439
0.40726710725446996,0.5465776071703785,491,-18,18.758539739924206,9.908747839036439
0.41273149311601276,0.546572142675213,491,-18,18.758539739924206,9.908747839036439
0.4181958240865771,0.5465666782349847,491,-18,18.758539739924206,9.908747839036439
0.42366010018671385,0.5465612138496697,491,-18,18.758539739924206,9.908747839036439
0.42912432143543494,0.5465557495192456,491,-18,18.758539739924206,9.908747839036439
0.4345884878503311,0.5465502852436919,491,-18,18.758539739924206,9.908747839036439
0.440052599447682,0.5465448210229896,491,-18,18.758539739924206,9.908747839036439
0.4455166562425564,0.5465393568571211,491,-18,18.758539739924206,9.908747839036439
0.4509806582489058,0.5465338927460702,491,-18,18.758539739924206,9.908747839036439
0.45644460547965054,0.5465284286898218,491,-18,18.758539739924206,9.908747839036439
0.4619084979467584,0.5465229646883618,491,-18,18.758539739924206,9.908747839036439
0.46737233566131864,0.5465175007416775,491,-18,18.758539739924206,9.908747839036439
0.4728361186336093,0.5465120368497567,491,-18,18.758539739924206,9.908747839036439
0.47829984687315946,0.5465065730125885,491,-18,18.758539739924206,9.908747839036439
0.4837635203888072,0.5465011092301627,491,-18,18.758539739924206,9.908747839036439
0.4892271391887525,0.5464956455024695,491,-18,18.758539739924206,9.908747839036439
0.49469070328060655,0.5464901818295003,491,-18,18.758539739924206,9.908747839036439
0.5001542126714369,0.5464847182112467,491,-18,18.758539739924206,9.908747839036439
0.5056176673678091,0.5464792546477012,491,-18,18.758539739924206,9.908747839036439
0.5110810673758259,0.5464737911388567,491,-18,18.758539739924206,9.908747839036439
0.5165444127011622,0.5464683276847067,491,-18,18.758539739924206,9.908747839036439
0.5220077033490987,0.546462864285245,491,-18,18.758539739924206,9.908747839036439
0.5274709393245512,0.546457400940466,491,-18,18.758539739924206,9.908747839036439
0.5329341206320999,0.5464519376503645,491,-18,18.758539739924206,9.908747839036439
0.538397247276014,0.5464464744149353,491,-18,18.758539739924206,9.908747839036439
0.5438603192602767,0.5464410112341741,491,-18,18.758539739924206,9.908747839036439
0.5493233365886064,0.5464355481080765,491,-18,18.758539739924206,9.908747839036439
0.5547862992644779,0.5464300850366386,491,-18,18.758539739924206,9.908747839036439
0.5602492072911401,0.5464246220198565,491,-18,18.758539739924206,9.908747839036439
0.5657120606716344,0.546419159057727,491,-18,18.758539739924206,9.908747839036439
0.5711748594088095,0.5464136961502466,491,-18,18.758539739924206,9.908747839036439
0.576637603505338,0.5464082332974124,491,-18,18.758539739924206,9.908747839036439
0.5821002929637278,0.5464027704992216,491,-18,18.758539739924206,9.908747839036439
0.5875629277863365,0.5463973077556713,491,-18,18.758539739924206,9.908747839036439
0.5930255079753821,0.5463918450667592,491,-18,18.758539739924206,9.908747839036439
0.5984880335329539,0.5463863824324828,491,-18,18.758539739924206,9.908747839036439
0.6039505044610225,0.5463809198528401,491,-18,18.758539739924206,9.908747839036439
0.6094129207614488,0.5463754573278288,491,-18,18.758539739924206,9.908747839036439
0.614875282435993,0.546369994857447,491,-18,18.758539739924206,9.908747839036439
0.6203375894863212,0.5463645324416928,491,-18,18.758539739924206,9.908747839036439
0.6257998419140136,0.5463590700805645,491,-18,18.758539739924206,9.908747839036439
0.6312620397205709,0.5463536077740604,491,-18,18.758539739924206,9.908747839036439
0.6367241829074204,0.5463481455221789,491,-18,18.758539739924206,9.908747839036439
0.642186271475921,0.5463426833249186,491,-18,18.758539739924206,9.908747839036439
0.64764830542737,0.546337221182278,491,-18,18.758539739924206,9.908747839036439
0.6531102847630061,0.5463317590942557,491,-18,18.758539739924206,9.908747839036439
0.6585722094840152,0.5463262970608505,491,-18,18.758539739924206,9.908747839036439
0.6640340795915333,0.5463208350820611,491,-18,18.758539739924206,9.908747839036439
0.669495895086652,0.5463153731578863,491,-18,18.758539739924206,9.908747839036439
0.6749576559704197,0.546309911288325,491,-18,18.758539739924206,9.908747839036439
0.680419362243847,0.546304449473376,491,-18,18.758539739924206,9.908747839036439
0.6858810139079087,0.5462989877130384,491,-18,18.758539739924206,9.908747839036439
0.6913426109635463,0.5462935260073112,491,-18,18.758539739924206,9.908747839036439
0.6968041534116708,0.5462880643561933,491,-18,18.758539739924206,9.908747839036439
0.7022656412531655,0.5462826027596838,491,-18,18.758539739924206,9.908747839036439
0.7077270744888874,0.5462771412177818,491,-18,18.758539739924206,9.908747839036439
0.7131884531196695,0.5462716797304865,491,-18,18.758539739924206,9.908747839036439
0.718649777146323,0.546266218297797,491,-18,18.758539739924206,9.908747839036439
0.7241110465696385,0.5462607569197123,491,-18,18.758539739924206,9.908747839036439
0.729572261390388,0.5462552955962318,491,-18,18.758539739924206,9.908747839036439
0.7350334216093257,0.5462498343273546,491,-18,18.758539739924206,9.908747839036439
0.74049452722719,0.54624437311308,491,-18,18.758539739924206,9.908747839036439
0.7459555782447044,0.5462389119534072,491,-18,18.758539739924206,9.908747839036439
0.7514165746625787,0.5462334508483354,491,-18,18.758539739924206,9.908747839036439
0.7568775164815106,0.546227989797864,491,-18,18.758539739924206,9.908747839036439
0.7623384037021851,0.5462225288019923,491,-18,18.758539739924206,9.908747839036439
0.7677992363252772,0.5462170678607194,491,-18,18.758539739924206,9.908747839036439
0.773260014351452,0.5462116069740449,491,-18,18.758539739924206,9.908747839036439
0.7787207377813651,0.5462061461419679,491,-18,18.758539739924206,9.908747839036439
0.784181406615664,0.5462006853644878,491,-18,18.758539739924206,9.908747839036439
0.7896420208549876,0.546195224641604,491,-18,18.758539739924206,9.908747839036439
0.7951025804999686,0.5461897639733158,491,-18,18.758539739924206,9.908747839036439
0.8005630855512326,0.5461843033596225,491,-18,18.758539739924206,9.908747839036439
0.8060235360093989,0.5461788428005236,491,-18,18.758539739924206,9.908747839036439
0.8114839318750813,0.5461733822960184,491,-18,18.758539739924206,9.908747839036439
0.8169442731488884,0.5461679218461063,491,-18,18.758539739924206,9.908747839036439
0.8224045598314238,0.5461624614507866,491,-18,18.758539739924206,9.908747839036439
0.8278647919232869,0.5461570011100589,491,-18,18.758539739924206,9.908747839036439
0.8333249694250727,0.5461515408239224,491,-18,18.758539739924206,9.908747839036439
0.8387850923373726,0.5461460805923766,491,-18,18.758539739924206,9.908747839036439
0.8442451606607744,0.5461406204154208,491,-18,18.758539739924206,9.908747839036439
0.8497051743958628,0.5461351602930545,491,-18,18.758539739924206,9.908747839036439
0.8551651335432192,0.5461297002252772,491,-18,18.758539739924206,9.908747839036439
0.8606250381034223,0.546124240212088,491,-18,18.758539739924206,9.908747839036439
0.8660848880770486,0.5461187802534867,491,-18,18.758539739924206,9.908747839036439
0.871544683464672,0.5461133203494725,491,-18,18.758539739924206,9.908747839036439
0.8770044242668641,0.5461078605000449,491,-18,18.758539739924206,9.908747839036439
0.8824641104841947,0.5461024007052032,491,-18,18.758539739924206,9.908747839036439
0.8879237421172316,0.5460969409649471,491,-18,18.758539739924206,9.908747839036439
0.8933833191665411,0.5460914812792756,491,-18,18.758539739924206,9.908747839036439
0.8988428416326878,0.5460860216481886,491,-18,18.758539739924206,9.908747839036439
0.9043023095162346,0.5460805620716853,491,-18,18.758539739924206,9.908747839036439
0.9097617228177436,0.5460751025497651,491,-18,18.758539739924206,9.908747839036439
0.9152210815377754,0.5460696430824276,491,-18,18.758539739924206,9.908747839036439
0.9206803856768889,0.5460641836696719,491,-18,18.758539739924206,9.908747839036439
0.926139635235643,0.5460587243114978,491,-18,18.758539739924206,9.908747839036439
0.9315988302145946,0.5460532650079047,491,-18,18.758539739924206,9.908747839036439
0.9370579706143003,0.5460478057588919,491,-18,18.758539739924206,9.908747839036439
0.9425170564353156,0.5460423465644588,491,-18,18.758539739924206,9.908747839036439
0.9479760876781955,0.5460368874246051,491,-18,18.758539739924206,9.908747839036439
0.9534350643434942,0.5460314283393299,491,-18,18.758539739924206,9.908747839036439
0.9588939864317654,0.546025969308633,491,-18,18.758539739924206,9.908747839036439
0.9643528539435613,0.5460205103325136,491,-18,18.758539739924206,9.908747839036439
0.9698116668794349,0.5460150514109713,491,-18,18.758539739924206,9.908747839036439
0.9752704252399375,0.5460095925440054,491,-18,18.758539739924206,9.908747839036439
0.9807291290256203,0.5460041337316154,491,-18,18.758539739924206,9.908747839036439
0.9861877782370349,0.5459986749738007,491,-18,18.758539739924206,9.908747839036439
0.991646372874731,0.545993216270561,491,-18,18.758539739924206,9.908747839036439
0.9971049129392591,0.5459877576218954,491,-18,18.758539739924206,9.908747839036439
1.0025633984311686,0.5459822990278036,491,-18,18.758539739924206,9.908747839036439
1.008021829351009,0.545976840488285,491,-18,18.758539739924206,9.908747839036439
1.0134802056993297,0.5459713820033388,491,-18,18.758539739924206,9.908747839036439
1.0189385274766793,0.5459659235729649,491,-18,18.758539739924206,9.908747839036439
1.0243967946836061,0.5459604651971625,491,-18,18.758539739924206,9.908747839036439
1.029855007320659,0.5459550068759309,491,-18,18.758539739924206,9.908747839036439
1.0353131653883856,0.5459495486092698,491,-18,18.758539739924206,9.908747839036439
1.0407712688873345,0.5459440903971786,491,-18,18.758539739924206,9.908747839036439
1.0462293178180526,0.5459386322396567,491,-18,18.758539739924206,9.908747839036439
1.0516873121810884,0.5459331741367036,491,-18,18.758539739924206,9.908747839036439
1.0571452519769884,0.5459277160883187,491,-18,18.758539739924206,9.908747839036439
1.0626031372063003,0.5459222580945015,491,-18,18.758539739924206,9.908747839036439
1.0680609678695712,0.5459168001552513,491,-18,18.758539739924206,9.908747839036439
1.0735187439673477,0.5459113422705678,491,-18,18.758539739924206,9.908747839036439
1.0789764655001772,0.5459058844404504,491,-18,18.758539739924206,9.908747839036439
1.0844341324686064,0.5459004266648984,491,-18,18.758539739924206,9.908747839036439
1.0898917448731817,0.5458949689439113,491,-18,18.758539739924206,9.908747839036439
1.0953493027144499,0.5458895112774886,491,-18,18.758539739924206,9.908747839036439
1.1008068059929572,0.5458840536656299,491,-18,18.758539739924206,9.908747839036439
1.1062642547092505,0.5458785961083343,491,-18,18.758539739924206,9.908747839036439
1.1117216488638755,0.5458731386056016,491,-18,18.758539739924206,9.908747839036439
1.117178988457379,0.5458676811574311,491,-18,18.758539739924206,9.908747839036439
1.122636273490307,0.5458622237638222,491,-18,18.758539739924206,9.908747839036439
1.1280935039632052,0.5458567664247744,491,-18,18.758539739924206,9.908747839036439
1.1335506798766204,0.5458513091402872,491,-18,18.758539739924206,9.908747839036439
1.139007801231098,0.5458458519103601,491,-18,18.758539739924206,9.908747839036439
1.1444648680271843,0.5458403947349925,491,-18,18.758539739924206,9.908747839036439
1.1499218802654256,0.5458349376141837,491,-18,18.758539739924206,9.908747839036439
1.1553788379463668,0.5458294805479333,491,-18,18.758539739924206,9.908747839036439
1.1608357410705548,0.5458240235362408,491,-18,18.758539739924206,9.908747839036439
1.1662925896385348,0.5458185665791055,491,-18,18.758539739924206,9.908747839036439
1.1717493836508526,0.5458131096765271,491,-18,18.758539739924206,9.908747839036439
1.177206123108054,0.5458076528285047,491,-18,18.758539739924206,9.908747839036439
1.1826628080106847,0.5458021960350381,491,-18,18.758539739924206,9.908747839036439
1.1881194383592906,0.5457967392961266,491,-18,18.758539739924206,9.908747839036439
1.1935760141544172,0.5457912826117697,491,-18,18.758539739924206,9.908747839036439
1.1990325353966103,0.5457858259819668,491,-18,18.758539739924206,9.908747839036439
1.2044890020864154,0.5457803694067173,491,-18,18.758539739924206,9.908747839036439
1.209945414224378,0.5457749128860208,491,-18,18.758539739924206,9.908747839036439
1.215401771811044,0.5457694564198766,491,-18,18.758539739924206,9.908747839036439
1.2208580748469582,0.5457640000082843,491,-18,18.758539739924206,9.908747839036439
1.226314323332667,0.5457585436512433,491,-18,18.758539739924206,9.908747839036439
1.2317705172687154,0.545753087348753,491,-18,18.758539739924206,9.908747839036439
1.237226656655649,0.5457476311008129,491,-18,18.758539739924206,9.908747839036439
1.2426827414940134,0.5457421749074225,491,-18,18.758539739924206,9.908747839036439
1.248138771784354,0.5457367187685812,491,-18,18.758539739924206,9.908747839036439
1.2535947475272164,0.5457312626842885,491,-18,18.758539739924206,9.908747839036439
1.2590506687231455,0.5457258066545437,491,-18,18.758539739924206,9.908747839036439
1.2645065353726872,0.5457203506793464,491,-18,18.758539739924206,9.908747839036439
1.2699623474763873,0.5457148947586962,491,-18,18.758539739924206,9.908747839036439
1.2754181050347906,0.5457094388925922,491,-18,18.758539739924206,9.908747839036439
1.2808738080484425,0.5457039830810341,491,-18,18.758539739924206,9.908747839036439
1.2863294565178884,0.5456985273240212,491,-18,18.758539739924206,9.908747839036439
1.291785050443674,0.5456930716215532,491,-18,18.758539739924206,9.908747839036439
