Vout,Iout,Irradiance,Temperature,MaxVoltage,MaxPower
0.010978724435341968,2.195766,1791,38,22.89715689981927,49.7535086791264
0.03293597029902014,2.195766,1791,38,22.89715689981927,49.7535086791264
0.05489276977739729,2.1957548016989645,1791,38,22.89715689981927,49.7535086791264
0.07684904312388724,2.195732844453101,1791,38,22.89715689981927,49.7535086791264
0.09880476427592207,2.195710887654742,1791,38,22.89715689981927,49.7535086791264
0.12075995883522783,2.1956889313835917,1791,38,22.89715689981927,49.7535086791264
0.142714650434592,2.195666975664635,1791,38,22.89715689981927,49.7535086791264
0.16466886088887037,2.1956450204722717,1791,38,22.89715689981927,49.7535086791264
0.18662261033461824,2.195623065782868,1791,38,22.89715689981927,49.7535086791264
0.20857591735922157,2.195601111574609,1791,38,22.89715689981927,49.7535086791264
0.23052879912009244,2.1955791578273587,1791,38,22.89715689981927,49.7535086791264
0.2524812714546934,2.1955572045225296,1791,38,22.89715689981927,49.7535086791264
0.27443334898209676,2.195535251642964,1791,38,22.89715689981927,49.7535086791264
0.296385045196729,2.195513299172825,1791,38,22.89715689981927,49.7535086791264
0.3183363725549031,2.1954913470974926,1791,38,22.89715689981927,49.7535086791264
0.34028734255469256,2.195469395403473,1791,38,22.89715689981927,49.7535086791264
0.36223796580965983,2.1954474440783103,1791,38,22.89715689981927,49.7535086791264
0.384188252116912,2.1954254931105055,1791,38,22.89715689981927,49.7535086791264
0.40613821051992005,2.195403542489446,1791,38,22.89715689981927,49.7535086791264
0.42808784936650507,2.1953815922053335,1791,38,22.89715689981927,49.7535086791264
0.4500371763623622,2.1953596422491257,1791,38,22.89715689981927,49.7535086791264
0.4719861986204672,2.1953376926124744,1791,38,22.89715689981927,49.7535086791264
0.49393492270668105,2.195315743287673,1791,38,22.89715689981927,49.7535086791264
0.5158833546818459,2.1952937942676103,1791,38,22.89715689981927,49.7535086791264
0.5378315001406418,2.1952718455457187,1791,38,22.89715689981927,49.7535086791264
0.5597793642474547,2.1952498971159384,1791,38,22.89715689981927,49.7535086791264
0.5817269517694824,2.1952279489726747,1791,38,22.89715689981927,49.7535086791264
0.6036742671072963,2.195206001110763,1791,38,22.89715689981927,49.7535086791264
0.6256213143230497,2.1951840535254354,1791,38,22.89715689981927,49.7535086791264
0.6475680971665162,2.1951621062122926,1791,38,22.89715689981927,49.7535086791264
0.6695146190991247,2.1951401591672717,1791,38,22.89715689981927,49.7535086791264
0.6914608833161447,2.195118212386623,1791,38,22.89715689981927,49.7535086791264
0.7134068927671661,2.195096265866885,1791,38,22.89715689981927,49.7535086791264
0.7353526501750008,2.1950743196048625,1791,38,22.89715689981927,49.7535086791264
0.7572981580531324,2.195052373597606,1791,38,22.89715689981927,49.7535086791264
0.7792434187218219,2.195030427842393,1791,38,22.89715689981927,49.7535086791264
0.8011884343229744,2.1950084823367093,1791,38,22.89715689981927,49.7535086791264
0.8231332068338622,2.1949865370782353,1791,38,22.89715689981927,49.7535086791264
0.8450777380797918,2.194964592064829,1791,38,22.89715689981927,49.7535086791264
0.8670220297457968,2.1949426472945124,1791,38,22.89715689981927,49.7535086791264
0.8889660833874302,2.1949207027654607,1791,38,22.89715689981927,49.7535086791264
0.9109099004407271,2.1948987584759894,1791,38,22.89715689981927,49.7535086791264
0.9328534822314006,2.1948768144245423,1791,38,22.89715689981927,49.7535086791264
0.9547968299833298,2.1948548706096833,1791,38,22.89715689981927,49.7535086791264
0.9767399448263959,2.1948329270300873,1791,38,22.89715689981927,49.7535086791264
0.9986828278037136,2.1948109836845293,1791,38,22.89715689981927,49.7535086791264
1.0206254798783074,2.1947890405718806,1791,38,22.89715689981927,49.7535086791264
1.0425679019392742,2.194767097691098,1791,38,22.89715689981927,49.7535086791264
1.0645100948074708,2.1947451550412174,1791,38,22.89715689981927,49.7535086791264
1.0864520592407654,2.194723212621351,1791,38,22.89715689981927,49.7535086791264
1.1083937959388819,2.1947012704306768,1791,38,22.89715689981927,49.7535086791264
1.130335305547877,2.194679328468438,1791,38,22.89715689981927,49.7535086791264
1.1522765886642659,2.194657386733934,1791,38,22.89715689981927,49.7535086791264
1.1742176458388365,2.194635445226519,1791,38,22.89715689981927,49.7535086791264
1.1961584775801666,2.1946135039455967,1791,38,22.89715689981927,49.7535086791264
1.2180990843578723,2.1945915628906167,1791,38,22.89715689981927,49.7535086791264
1.2400394666056054,2.1945696220610693,1791,38,22.89715689981927,49.7535086791264
1.2619796247238195,2.194547681456486,1791,38,22.89715689981927,49.7535086791264
1.2839195590823276,2.1945257410764323,1791,38,22.89715689981927,49.7535086791264
1.305859270022655,2.194503800920508,1791,38,22.89715689981927,49.7535086791264
1.3277987578602197,2.1944818609883434,1791,38,22.89715689981927,49.7535086791264
1.3497380228863392,2.194459921279597,1791,38,22.89715689981927,49.7535086791264
1.3716770653700858,2.1944379817939534,1791,38,22.89715689981927,49.7535086791264
1.3936158855599958,2.194416042531121,1791,38,22.89715689981927,49.7535086791264
1.4155544836856544,2.1943941034908314,1791,38,22.89715689981927,49.7535086791264
1.4374928599591483,2.194372164672836,1791,38,22.89715689981927,49.7535086791264
1.459431014576416,2.194350226076904,1791,38,22.89715689981927,49.7535086791264
1.4813689477184884,2.1943282877028243,1791,38,22.89715689981927,49.7535086791264
1.503306659552636,2.1943063495504007,1791,38,22.89715689981927,49.7535086791264
1.5252441502334286,2.1942844116194524,1791,38,22.89715689981927,49.7535086791264
1.547181419903712,2.1942624739098124,1791,38,22.89715689981927,49.7535086791264
1.5691184686955089,2.1942405364213253,1791,38,22.89715689981927,49.7535086791264
1.5910552967308533,2.194218599153849,1791,38,22.89715689981927,49.7535086791264
1.6129919041225582,2.1941966621072506,1791,38,22.89715689981927,49.7535086791264
1.6349282909749254,2.194174725281409,1791,38,22.89715689981927,49.7535086791264
1.6568644573844005,2.1941527886762113,1791,38,22.89715689981927,49.7535086791264
1.6788004034401764,2.1941308522915524,1791,38,22.89715689981927,49.7535086791264
1.7007361292247531,2.1941089161273366,1791,38,22.89715689981927,49.7535086791264
1.7226716348144504,2.1940869801834744,1791,38,22.89715689981927,49.7535086791264
1.7446069202798855,2.1940650444598835,1791,38,22.89715689981927,49.7535086791264
1.7665419856864109,2.1940431089564876,1791,38,22.89715689981927,49.7535086791264
1.7884768310945187,2.1940211736732156,1791,38,22.89715689981927,49.7535086791264
1.8104114565602154,2.1939992386100027,1791,38,22.89715689981927,49.7535086791264
1.8323458621353677,2.193977303766788,1791,38,22.89715689981927,49.7535086791264
1.854280047868019,2.1939553691435156,1791,38,22.89715689981927,49.7535086791264
1.8762140138026873,2.193933434740134,1791,38,22.89715689981927,49.7535086791264
1.8981477599806311,2.193911500556595,1791,38,22.89715689981927,49.7535086791264
1.9200812864401045,2.1938895665928535,1791,38,22.89715689981927,49.7535086791264
1.9420145932165869,2.1938676328488693,1791,38,22.89715689981927,49.7535086791264
1.9639476803429967,2.193845699324603,1791,38,22.89715689981927,49.7535086791264
1.9858805478498875,2.19382376602002,1791,38,22.89715689981927,49.7535086791264
2.007813195765631,2.193801832935087,1791,38,22.89715689981927,49.7535086791264
2.0297456241165843,2.1937799000697735,1791,38,22.89715689981927,49.7535086791264
2.051677832927246,2.193757967424051,1791,38,22.89715689981927,49.7535086791264
2.0736098222203987,2.1937360349978934,1791,38,22.89715689981927,49.7535086791264
2.0955415920172387,2.193714102791276,1791,38,22.89715689981927,49.7535086791264
2.1174731423375013,2.193692170804176,1791,38,22.89715689981927,49.7535086791264
2.1394044731995727,2.1936702390365723,1791,38,22.89715689981927,49.7535086791264
2.1613355846205926,2.1936483074884454,1791,38,22.89715689981927,49.7535086791264
2.1832664766165495,2.1936263761597763,1791,38,22.89715689981927,49.7535086791264
2.205197149202372,2.1936044450505485,1791,38,22.89715689981927,49.7535086791264
2.2271276023920077,2.1935825141607457,1791,38,22.89715689981927,49.7535086791264
2.249057836198499,2.193560583490353,1791,38,22.89715689981927,49.7535086791264
2.2709878506340555,2.1935386530393566,1791,38,22.89715689981927,49.7535086791264
2.292917645710115,2.1935167228077432,1791,38,22.89715689981927,49.7535086791264
2.314847221437403,2.1934947927955006,1791,38,22.89715689981927,49.7535086791264
2.3367765778259897,2.1934728630026177,1791,38,22.89715689981927,49.7535086791264
2.3587057148853385,2.1934509334290833,1791,38,22.89715689981927,49.7535086791264
2.3806346326243535,2.1934290040748876,1791,38,22.89715689981927,49.7535086791264
2.402563331051421,2.1934070749400214,1791,38,22.89715689981927,49.7535086791264
2.4244918101744535,2.1933851460244753,1791,38,22.89715689981927,49.7535086791264
2.446420070000921,2.193363217328241,1791,38,22.89715689981927,49.7535086791264
2.468348110537888,2.1933412888513106,1791,38,22.89715689981927,49.7535086791264
2.490275931792044,2.1933193605936774,1791,38,22.89715689981927,49.7535086791264
2.5122035337697333,2.193297432555333,1791,38,22.89715689981927,49.7535086791264
2.5341309164769794,2.1932755047362718,1791,38,22.89715689981927,49.7535086791264
2.5560580799195107,2.193253577136487,1791,38,22.89715689981927,49.7535086791264
2.577985024102786,2.1932316497559725,1791,38,22.89715689981927,49.7535086791264
2.5999117490320094,2.1932097225947227,1791,38,22.89715689981927,49.7535086791264
2.6218382547121557,2.193187795652732,1791,38,22.89715689981927,49.7535086791264
2.643764541147984,2.1931658689299955,1791,38,22.89715689981927,49.7535086791264
2.6656906083440575,2.193143942426508,1791,38,22.89715689981927,49.7535086791264
2.6876164563047538,2.193122016142265,1791,38,22.89715689981927,49.7535086791264
2.709542085034286,2.1931000900772615,1791,38,22.89715689981927,49.7535086791264
2.73146749453671,2.1930781642314936,1791,38,22.89715689981927,49.7535086791264
2.753392684815937,2.1930562386049566,1791,38,22.89715689981927,49.7535086791264
2.7753176558757477,2.193034313197647,1791,38,22.89715689981927,49.7535086791264
2.7972424077198004,2.19301238800956,1791,38,22.89715689981927,49.7535086791264
2.8191669403516384,2.192990463040693,1791,38,22.89715689981927,49.7535086791264
2.8410912537747044,2.192968538291041,1791,38,22.89715689981927,49.7535086791264
2.8630153479923424,2.192946613760602,1791,38,22.89715689981927,49.7535086791264
2.884939223007807,2.1929246894493715,1791,38,22.89715689981927,49.7535086791264
2.9068628788242745,2.192902765357346,1791,38,22.89715689981927,49.7535086791264
2.92878631544484,2.192880841484523,1791,38,22.89715689981927,49.7535086791264
2.950709532872535,2.192858917830899,1791,38,22.89715689981927,49.7535086791264
2.972632531110321,2.1928369943964707,1791,38,22.89715689981927,49.7535086791264
2.9945553101611053,2.1928150711812355,1791,38,22.89715689981927,49.7535086791264
3.016477870027736,2.1927931481851903,1791,38,22.89715689981927,49.7535086791264
3.038400210713012,2.1927712254083316,1791,38,22.89715689981927,49.7535086791264
3.060322332219687,2.1927493028506575,1791,38,22.89715689981927,49.7535086791264
3.0822442345504677,2.1927273805121645,1791,38,22.89715689981927,49.7535086791264
3.104165917708026,2.19270545839285,1791,38,22.89715689981927,49.7535086791264
3.126087381694992,2.1926835364927113,1791,38,22.89715689981927,49.7535086791264
3.148008626513965,2.192661614811746,1791,38,22.89715689981927,49.7535086791264
3.1699296521675113,2.1926396933499515,1791,38,22.89715689981927,49.7535086791264
3.19185045865817,2.1926177721073246,1791,38,22.89715689981927,49.7535086791264
3.2137710459884516,2.1925958510838632,1791,38,22.89715689981927,49.7535086791264
3.2356914141608435,2.1925739302795644,1791,38,22.89715689981927,49.7535086791264
3.257611563177809,2.192552009694426,1791,38,22.89715689981927,49.7535086791264
3.2795314930417927,2.192530089328446,1791,38,22.89715689981927,49.7535086791264
3.3014512037552173,2.1925081691816213,1791,38,22.89715689981927,49.7535086791264
3.3233706953204867,2.192486249253949,1791,38,22.89715689981927,49.7535086791264
3.345289967739992,2.1924643295454276,1791,38,22.89715689981927,49.7535086791264
3.3672090210161056,2.1924424100560547,1791,38,22.89715689981927,49.7535086791264
3.3891278551511883,2.192420490785827,1791,38,22.89715689981927,49.7535086791264
3.411046470147586,2.192398571734743,1791,38,22.89715689981927,49.7535086791264
3.432964866007634,2.1923766529027997,1791,38,22.89715689981927,49.7535086791264
3.4548830427336554,2.192354734289995,1791,38,22.89715689981927,49.7535086791264
3.476801000327964,2.192332815896327,1791,38,22.89715689981927,49.7535086791264
3.498718738792864,2.192310897721793,1791,38,22.89715689981927,49.7535086791264
3.5206362581306494,2.1922889797663903,1791,38,22.89715689981927,49.7535086791264
3.542553558343608,2.1922670620301172,1791,38,22.89715689981927,49.7535086791264
3.564470639434021,2.192245144512971,1791,38,22.89715689981927,49.7535086791264
3.5863875014041584,2.19222322721495,1791,38,22.89715689981927,49.7535086791264
3.6083041442562886,2.1922013101360514,1791,38,22.89715689981927,49.7535086791264
3.630220567992671,2.192179393276273,1791,38,22.89715689981927,49.7535086791264
3.6521367726155622,2.1921574766356127,1791,38,22.89715689981927,49.7535086791264
3.6740527581272113,2.192135560214068,1791,38,22.89715689981927,49.7535086791264
3.6959685245298655,2.1921136440116364,1791,38,22.89715689981927,49.7535086791264
3.717884071825764,2.1920917280283168,1791,38,22.89715689981927,49.7535086791264
3.7397994000171466,2.192069812264106,1791,38,22.89715689981927,49.7535086791264
3.7617145091062443,2.1920478967190014,1791,38,22.89715689981927,49.7535086791264
3.7836293990952896,2.1920259813930016,1791,38,22.89715689981927,49.7535086791264
3.805544069986509,2.192004066286104,1791,38,22.89715689981927,49.7535086791264
3.827458521782127,2.1919821513983067,1791,38,22.89715689981927,49.7535086791264
3.849372754484366,2.191960236729607,1791,38,22.89715689981927,49.7535086791264
3.871286768095445,2.1919383222800026,1791,38,22.89715689981927,49.7535086791264
3.893200562617581,2.191916408049492,1791,38,22.89715689981927,49.7535086791264
3.9151141380529895,2.1918944940380722,1791,38,22.89715689981927,49.7535086791264
3.9370274944038846,2.1918725802457417,1791,38,22.89715689981927,49.7535086791264
3.9589406316724753,2.1918506666724973,1791,38,22.89715689981927,49.7535086791264
3.980853549860973,2.191828753318338,1791,38,22.89715689981927,49.7535086791264
4.002766248971586,2.191806840183261,1791,38,22.89715689981927,49.7535086791264
4.02467872900652,2.1917849272672636,1791,38,22.89715689981927,49.7535086791264
4.0465909899679815,2.1917630145703444,1791,38,22.89715689981927,49.7535086791264
4.068503031858175,2.1917411020925006,1791,38,22.89715689981927,49.7535086791264
4.090414854679304,2.1917191898337305,1791,38,22.89715689981927,49.7535086791264
4.112326458433569,2.1916972777940313,1791,38,22.89715689981927,49.7535086791264
4.134237843123172,2.1916753659734014,1791,38,22.89715689981927,49.7535086791264
4.1561490087503135,2.1916534543718384,1791,38,22.89715689981927,49.7535086791264
4.1780599553171935,2.1916315429893403,1791,38,22.89715689981927,49.7535086791264
4.199970682826011,2.191609631825904,1791,38,22.89715689981927,49.7535086791264
4.221881191278963,2.1915877208815284,1791,38,22.89715689981927,49.7535086791264
4.243791480678248,2.1915658101562108,1791,38,22.89715689981927,49.7535086791264
4.265701551026063,2.191543899649949,1791,38,22.89715689981927,49.7535086791264
4.287611402324602,2.1915219893627405,1791,38,22.89715689981927,49.7535086791264
4.309521034576063,2.191500079294584,1791,38,22.89715689981927,49.7535086791264
4.331430447782642,2.1914781694454764,1791,38,22.89715689981927,49.7535086791264
4.353339641946533,2.191456259815416,1791,38,22.89715689981927,49.7535086791264
4.375248617069929,2.1914343504044003,1791,38,22.89715689981927,49.7535086791264
4.397157373155027,2.191412441212427,1791,38,22.89715689981927,49.7535086791264
4.419065910204019,2.191390532239495,1791,38,22.89715689981927,49.7535086791264
4.440974228219099,2.1913686234856007,1791,38,22.89715689981927,49.7535086791264
4.462882327202459,2.191346714950743,1791,38,22.89715689981927,49.7535086791264
4.484790207156293,2.1913248066349182,1791,38,22.89715689981927,49.7535086791264
4.506697868082794,2.191302898538126,1791,38,22.89715689981927,49.7535086791264
4.528605309984152,2.191280990660363,1791,38,22.89715689981927,49.7535086791264
4.550512532862562,2.1912590830016274,1791,38,22.89715689981927,49.7535086791264
4.572419536720217,2.1912371755619167,1791,38,22.89715689981927,49.7535086791264
4.594326321559304,2.191215268341229,1791,38,22.89715689981927,49.7535086791264
4.616232887382019,2.191193361339562,1791,38,22.89715689981927,49.7535086791264
4.63813923419055,2.1911714545569136,1791,38,22.89715689981927,49.7535086791264
4.660045361987091,2.1911495479932817,1791,38,22.89715689981927,49.7535086791264
4.681951270773832,2.191127641648664,1791,38,22.89715689981927,49.7535086791264
4.703856960552964,2.191105735523058,1791,38,22.89715689981927,49.7535086791264
4.72576243132668,2.191083829616462,1791,38,22.89715689981927,49.7535086791264
4.747667683097166,2.1910619239288733,1791,38,22.89715689981927,49.7535086791264
4.769572715866617,2.1910400184602903,1791,38,22.89715689981927,49.7535086791264
4.79147752963722,2.1910181132107103,1791,38,22.89715689981927,49.7535086791264
4.813382124411167,2.1909962081801315,1791,38,22.89715689981927,49.7535086791264
4.835286500190651,2.1909743033685514,1791,38,22.89715689981927,49.7535086791264
4.857190656977857,2.190952398775968,1791,38,22.89715689981927,49.7535086791264
4.879094594774977,2.190930494402379,1791,38,22.89715689981927,49.7535086791264
4.9009983135842035,2.190908590247782,1791,38,22.89715689981927,49.7535086791264
4.922901813407725,2.1908866863121754,1791,38,22.89715689981927,49.7535086791264
4.94480509424773,2.1908647825955567,1791,38,22.89715689981927,49.7535086791264
4.966708156106411,2.1908428790979237,1791,38,22.89715689981927,49.7535086791264
4.988610998985957,2.190820975819274,1791,38,22.89715689981927,49.7535086791264
5.0105136228885545,2.1907990727596056,1791,38,22.89715689981927,49.7535086791264
5.032416027816397,2.1907771699189165,1791,38,22.89715689981927,49.7535086791264
5.054318213771673,2.190755267297204,1791,38,22.89715689981927,49.7535086791264
5.076220180756572,2.1907333648944665,1791,38,22.89715689981927,49.7535086791264
5.098121928773283,2.1907114627107016,1791,38,22.89715689981927,49.7535086791264
5.120023457823995,2.190689560745907,1791,38,22.89715689981927,49.7535086791264
5.141924767910901,2.19066765900008,1791,38,22.89715689981927,49.7535086791264
5.163825859036185,2.1906457574732197,1791,38,22.89715689981927,49.7535086791264
5.18572673120204,2.190623856165323,1791,38,22.89715689981927,49.7535086791264
5.207627384410655,2.1906019550763878,1791,38,22.89715689981927,49.7535086791264
5.229527818664218,2.1905800542064124,1791,38,22.89715689981927,49.7535086791264
5.2514280339649195,2.1905581535553935,1791,38,22.89715689981927,49.7535086791264
5.273328030314948,2.19053625312333,1791,38,22.89715689981927,49.7535086791264
5.295227807716492,2.1905143529102196,1791,38,22.89715689981927,49.7535086791264
5.317127366171742,2.1904924529160597,1791,38,22.89715689981927,49.7535086791264
5.339026705682884,2.190470553140848,1791,38,22.89715689981927,49.7535086791264
5.360925826252112,2.190448653584583,1791,38,22.89715689981927,49.7535086791264
5.38282472788161,2.1904267542472615,1791,38,22.89715689981927,49.7535086791264
