Vout,Iout,Irradiance,Temperature,MaxVoltage,MaxPower
0.011506679358852318,2.3013579999999996,1921,24,21.87981431922633,49.87555173142578
0.034519825307164964,2.3013579999999996,1921,24,21.87981431922633,49.87555173142578
0.057532503403992706,2.3013462631848407,1921,24,21.87981431922633,49.87555173142578
0.08054463006782273,2.3013232500388923,1921,24,21.87981431922633,49.87555173142578
0.10355617798276656,2.301300237361969,1921,24,21.87981431922633,49.87555173142578
0.1265671739817094,2.3012772252376066,1921,24,21.87981431922633,49.87555173142578
0.14957764283391387,2.301254213691993,1921,24,21.87981431922633,49.87555173142578
0.17258760740328838,2.3012312026982955,1921,24,21.87981431922633,49.87555173142578
0.1955970887947333,2.301208192231744,1921,24,21.87981431922633,49.87555173142578
0.21860610648948176,2.301185182269476,1921,24,21.87981431922633,49.87555173142578
0.24161467847002713,2.3011621727903857,1921,24,21.87981431922633,49.87555173142578
0.26462282133543846,2.301139163774992,1921,24,21.87981431922633,49.87555173142578
0.28763055040780316,2.301116155205312,1921,24,21.87981431922633,49.87555173142578
0.3106378798304801,2.3010931470647478,1921,24,21.87981431922633,49.87555173142578
0.33364482265879275,2.3010701393379764,1921,24,21.87981431922633,49.87555173142578
0.3566513909437446,2.3010471320108543,1921,24,21.87981431922633,49.87555173142578
0.3796575958092926,2.301024125070327,1921,24,21.87981431922633,49.87555173142578
0.40266344752367617,2.3010011185043426,1921,24,21.87981431922633,49.87555173142578
0.425668955565257,2.300978112301778,1921,24,21.87981431922633,49.87555173142578
0.4486741286832937,2.300955106452364,1921,24,21.87981431922633,49.87555173142578
0.47167897495404004,2.300932100946623,1921,24,21.87981431922633,49.87555173142578
0.4946835018325272,2.300909095775806,1921,24,21.87981431922633,49.87555173142578
0.5176877162003611,2.3008860909318356,1921,24,21.87981431922633,49.87555173142578
0.540691624409843,2.3008630864072575,1921,24,21.87981431922633,49.87555173142578
0.5636952323246954,2.30084008219519,1921,24,21.87981431922633,49.87555173142578
0.5866985453576534,2.300817078289281,1921,24,21.87981431922633,49.87555173142578
0.6097015685051648,2.3007940746836666,1921,24,21.87981431922633,49.87555173142578
0.6327043063794195,2.300771071372934,1921,24,21.87981431922633,49.87555173142578
0.6557067632379152,2.300748068352087,1921,24,21.87981431922633,49.87555173142578
0.6787089430107481,2.300725065616513,1921,24,21.87981431922633,49.87555173142578
0.7017108493258035,2.300702063161955,1921,24,21.87981431922633,49.87555173142578
0.7247124855320081,2.300679060984482,1921,24,21.87981431922633,49.87555173142578
0.7477138547207939,2.3006560590804677,1921,24,21.87981431922633,49.87555173142578
0.7707149597459104,2.3006330574465617,1921,24,21.87981431922633,49.87555173142578
0.7937158032417114,2.3006100560796727,1921,24,21.87981431922633,49.87555173142578
0.8167163876400371,2.300587054976948,1921,24,21.87981431922633,49.87555173142578
0.839716715185794,2.3005640541357524,1921,24,21.87981431922633,49.87555173142578
0.86271678795134,2.300541053553654,1921,24,21.87981431922633,49.87555173142578
0.8857166078497581,2.300518053228408,1921,24,21.87981431922633,49.87555173142578
0.9087161766471136,2.3004950531579427,1921,24,21.87981431922633,49.87555173142578
0.9317154959737641,2.3004720533403447,1921,24,21.87981431922633,49.87555173142578
0.9547145673348023,2.300449053773847,1921,24,21.87981431922633,49.87555173142578
0.9777133921196933,2.3004260544568207,1921,24,21.87981431922633,49.87555173142578
1.0007119716111712,2.3004030553877595,1921,24,21.87981431922633,49.87555173142578
1.0237103069934517,2.3003800565652743,1921,24,21.87981431922633,49.87555173142578
1.0467083993598125,2.3003570579880828,1921,24,21.87981431922633,49.87555173142578
1.0697062497195884,2.3003340596550004,1921,24,21.87981431922633,49.87555173142578
1.0927038590046316,2.300311061564934,1921,24,21.87981431922633,49.87555173142578
1.1157012280752736,2.300288063716874,1921,24,21.87981431922633,49.87555173142578
1.1386983577258274,2.3002650661098887,1921,24,21.87981431922633,49.87555173142578
1.1616952486896663,2.3002420687431178,1921,24,21.87981431922633,49.87555173142578
1.1846919016439144,2.3002190716157673,1921,24,21.87981431922633,49.87555173142578
1.2076883172137731,2.300196074727103,1921,24,21.87981431922633,49.87555173142578
1.230684495976517,2.3001730780764484,1921,24,21.87981431922633,49.87555173142578
1.2536804384651812,2.3001500816631784,1921,24,21.87981431922633,49.87555173142578
1.2766761451719646,2.3001270854867153,1921,24,21.87981431922633,49.87555173142578
1.2996716165513733,2.3001040895465263,1921,24,21.87981431922633,49.87555173142578
1.3226668530231183,2.300081093842119,1921,24,21.87981431922633,49.87555173142578
1.3456618549747958,2.3000580983730394,1921,24,21.87981431922633,49.87555173142578
1.3686566227643555,2.300035103138867,1921,24,21.87981431922633,49.87555173142578
1.3916511567223833,2.300012108139215,1921,24,21.87981431922633,49.87555173142578
1.4146454571542049,2.2999891133737247,1921,24,21.87981431922633,49.87555173142578
1.437639524341833,2.2999661188420664,1921,24,21.87981431922633,49.87555173142578
1.4606333585457567,2.299943124543934,1921,24,21.87981431922633,49.87555173142578
1.4836269600065999,2.299920130479046,1921,24,21.87981431922633,49.87555173142578
1.5066203289466487,2.2998971366471412,1921,24,21.87981431922633,49.87555173142578
1.5296134655712645,2.29987414304798,1921,24,21.87981431922633,49.87555173142578
1.552606370070183,2.299851149681339,1921,24,21.87981431922633,49.87555173142578
1.57559904261872,2.299828156547014,1921,24,21.87981431922633,49.87555173142578
1.598591483378878,2.2998051636448142,1921,24,21.87981431922633,49.87555173142578
1.6215836925003706,2.299782170974565,1921,24,21.87981431922633,49.87555173142578
1.6445756701215704,2.2997591785361045,1921,24,21.87981431922633,49.87555173142578
1.66756741637038,2.299736186329282,1921,24,21.87981431922633,49.87555173142578
1.690558931365038,2.29971319435396,1921,24,21.87981431922633,49.87555173142578
1.7135502152148607,2.2996902026100106,1921,24,21.87981431922633,49.87555173142578
1.7365412680209324,2.299667211097315,1921,24,21.87981431922633,49.87555173142578
1.7595320898767357,2.2996442198157645,1921,24,21.87981431922633,49.87555173142578
1.7825226808687367,2.2996212287652575,1921,24,21.87981431922633,49.87555173142578
1.8055130410769258,2.299598237945701,1921,24,21.87981431922633,49.87555173142578
1.828503170575316,2.299575247357008,1921,24,21.87981431922633,49.87555173142578
1.8514930694324028,2.2995522569990987,1921,24,21.87981431922633,49.87555173142578
1.874482737711587,2.2995292668718994,1921,24,21.87981431922633,49.87555173142578
1.897472175471569,2.2995062769753414,1921,24,21.87981431922633,49.87555173142578
1.9204613827667096,2.299483287309361,1921,24,21.87981431922633,49.87555173142578
1.9434503596473627,2.2994602978739005,1921,24,21.87981431922633,49.87555173142578
1.9664391061601862,2.299437308668904,1921,24,21.87981431922633,49.87555173142578
1.9894276223484233,2.2994143196943226,1921,24,21.87981431922633,49.87555173142578
2.012415908252168,2.2993913309501086,1921,24,21.87981431922633,49.87555173142578
2.035403963908605,2.2993683424362192,1921,24,21.87981431922633,49.87555173142578
2.0583917893522363,2.299345354152614,1921,24,21.87981431922633,49.87555173142578
2.0813793846150843,2.2993223660992568,1921,24,21.87981431922633,49.87555173142578
2.104366749726885,2.2992993782761117,1921,24,21.87981431922633,49.87555173142578
2.127353884715265,2.299276390683148,1921,24,21.87981431922633,49.87555173142578
2.150340789605899,2.2992534033203347,1921,24,21.87981431922633,49.87555173142578
2.1733274644226643,2.2992304161876453,1921,24,21.87981431922633,49.87555173142578
2.196313909187779,2.2992074292850533,1921,24,21.87981431922633,49.87555173142578
2.219300123921926,2.2991844426125354,1921,24,21.87981431922633,49.87555173142578
2.242286108644376,2.299161456170069,1921,24,21.87981431922633,49.87555173142578
2.265271863373093,2.2991384699576334,1921,24,21.87981431922633,49.87555173142578
2.288257388124834,2.2991154839752097,1921,24,21.87981431922633,49.87555173142578
2.3112426829152453,2.2990924982227794,1921,24,21.87981431922633,49.87555173142578
2.3342277477589466,2.2990695127003264,1921,24,21.87981431922633,49.87555173142578
2.357212582669606,2.2990465274078344,1921,24,21.87981431922633,49.87555173142578
2.3801971876600216,2.299023542345289,1921,24,21.87981431922633,49.87555173142578
2.403181562742179,2.2990005575126773,1921,24,21.87981431922633,49.87555173142578
2.4261657079273222,2.2989775729099855,1921,24,21.87981431922633,49.87555173142578
2.449149623226004,2.298954588537202,1921,24,21.87981431922633,49.87555173142578
2.4721333086481425,2.298931604394315,1921,24,21.87981431922633,49.87555173142578
2.4951167642030714,2.2989086204813147,1921,24,21.87981431922633,49.87555173142578
2.5180999898995804,2.298885636798191,1921,24,21.87981431922633,49.87555173142578
2.5410829857459603,2.2988626533449343,1921,24,21.87981431922633,49.87555173142578
2.564065751750043,2.298839670121536,1921,24,21.87981431922633,49.87555173142578
2.587048287919231,2.2988166871279883,1921,24,21.87981431922633,49.87555173142578
2.6100305942605364,2.2987937043642823,1921,24,21.87981431922633,49.87555173142578
2.633012670780607,2.2987707218304116,1921,24,21.87981431922633,49.87555173142578
2.655994517485758,2.2987477395263687,1921,24,21.87981431922633,49.87555173142578
2.6789761343819927,2.2987247574521468,1921,24,21.87981431922633,49.87555173142578
2.7019575214750313,2.2987017756077397,1921,24,21.87981431922633,49.87555173142578
2.724938678770329,2.2986787939931417,1921,24,21.87981431922633,49.87555173142578
2.7479196062731006,2.298655812608347,1921,24,21.87981431922633,49.87555173142578
2.7709003039883333,2.2986328314533497,1921,24,21.87981431922633,49.87555173142578
2.793880771920809,2.298609850528145,1921,24,21.87981431922633,49.87555173142578
2.8168610100751175,2.2985868698327283,1921,24,21.87981431922633,49.87555173142578
2.8398410184556733,2.298563889367094,1921,24,21.87981431922633,49.87555173142578
2.8628207970667265,2.2985409091312374,1921,24,21.87981431922633,49.87555173142578
2.8858003459123784,2.298517929125155,1921,24,21.87981431922633,49.87555173142578
2.908779664996591,2.298494949348842,1921,24,21.87981431922633,49.87555173142578
2.931758754323197,2.298471969802294,1921,24,21.87981431922633,49.87555173142578
2.9547376138959125,2.298448990485508,1921,24,21.87981431922633,49.87555173142578
2.977716243718343,2.2984260113984796,1921,24,21.87981431922633,49.87555173142578
3.000694643793995,2.298403032541205,1921,24,21.87981431922633,49.87555173142578
3.0236728141262805,2.29838005391368,1921,24,21.87981431922633,49.87555173142578
3.046650754718525,2.298357075515902,1921,24,21.87981431922633,49.87555173142578
3.0696284655739774,2.298334097347868,1921,24,21.87981431922633,49.87555173142578
3.0926059466958113,2.2983111194095733,1921,24,21.87981431922633,49.87555173142578
3.115583198087133,2.2982881417010157,1921,24,21.87981431922633,49.87555173142578
3.1385602197509863,2.2982651642221916,1921,24,21.87981431922633,49.87555173142578
3.1615370116903594,2.2982421869730985,1921,24,21.87981431922633,49.87555173142578
3.1845135739081853,2.298219209953732,1921,24,21.87981431922633,49.87555173142578
3.207489906407348,2.2981962331640906,1921,24,21.87981431922633,49.87555173142578
3.2304660091906863,2.2981732566041706,1921,24,21.87981431922633,49.87555173142578
3.2534418822610003,2.298150280273969,1921,24,21.87981431922633,49.87555173142578
3.276417525621046,2.2981273041734833,1921,24,21.87981431922633,49.87555173142578
3.2993929392735484,2.2981043283027107,1921,24,21.87981431922633,49.87555173142578
3.322368123221198,2.298081352661648,1921,24,21.87981431922633,49.87555173142578
3.345343077466655,2.2980583772502934,1921,24,21.87981431922633,49.87555173142578
3.368317802012551,2.2980354020686433,1921,24,21.87981431922633,49.87555173142578
3.3912922968614923,2.2980124271166953,1921,24,21.87981431922633,49.87555173142578
3.4142665620160617,2.2979894523944466,1921,24,21.87981431922633,49.87555173142578
3.437240597478819,2.2979664779018956,1921,24,21.87981431922633,49.87555173142578
3.460214403252305,2.297943503639038,1921,24,21.87981431922633,49.87555173142578
3.48318797933904,2.297920529605873,1921,24,21.87981431922633,49.87555173142578
3.5061613257415285,2.297897555802397,1921,24,21.87981431922633,49.87555173142578
3.5291344424622597,2.2978745822286077,1921,24,21.87981431922633,49.87555173142578
3.5521073295037047,2.2978516088845025,1921,24,21.87981431922633,49.87555173142578
3.575079986868324,2.2978286357700792,1921,24,21.87981431922633,49.87555173142578
3.598052414558565,2.297805662885335,1921,24,21.87981431922633,49.87555173142578
3.621024612576862,2.297782690230268,1921,24,21.87981431922633,49.87555173142578
3.6439965809256396,2.2977597178048748,1921,24,21.87981431922633,49.87555173142578
3.6669683196073133,2.2977367456091535,1921,24,21.87981431922633,49.87555173142578
3.6899398286242895,2.2977137736431024,1921,24,21.87981431922633,49.87555173142578
3.7129111079789636,2.2976908019067177,1921,24,21.87981431922633,49.87555173142578
3.735882157673725,2.297667830399998,1921,24,21.87981431922633,49.87555173142578
3.7588529777109567,2.2976448591229404,1921,24,21.87981431922633,49.87555173142578
3.781823568093034,2.297621888075543,1921,24,21.87981431922633,49.87555173142578
3.8047939288223263,2.297598917257803,1921,24,21.87981431922633,49.87555173142578
3.827764059901197,2.297575946669718,1921,24,21.87981431922633,49.87555173142578
3.850733961332004,2.2975529763112856,1921,24,21.87981431922633,49.87555173142578
3.873703633117102,2.297530006182504,1921,24,21.87981431922633,49.87555173142578
3.8966730752588394,2.29750703628337,1921,24,21.87981431922633,49.87555173142578
3.9196422877595616,2.297484066613882,1921,24,21.87981431922633,49.87555173142578
3.94261127062161,2.297461097174037,1921,24,21.87981431922633,49.87555173142578
3.9655800238473224,2.2974381279638334,1921,24,21.87981431922633,49.87555173142578
3.988548547439032,2.2974151589832683,1921,24,21.87981431922633,49.87555173142578
4.011516841399071,2.2973921902323395,1921,24,21.87981431922633,49.87555173142578
4.0344849057297685,2.297369221711045,1921,24,21.87981431922633,49.87555173142578
4.057452740433451,2.2973462534193816,1921,24,21.87981431922633,49.87555173142578
4.080420345512441,2.2973232853573475,1921,24,21.87981431922633,49.87555173142578
4.103387720969062,2.297300317524941,1921,24,21.87981431922633,49.87555173142578
4.126354866805632,2.2972773499221586,1921,24,21.87981431922633,49.87555173142578
4.149321783024469,2.297254382548999,1921,24,21.87981431922633,49.87555173142578
4.172288469627889,2.297231415405459,1921,24,21.87981431922633,49.87555173142578
4.1952549266182055,2.2972084484915367,1921,24,21.87981431922633,49.87555173142578
4.2182211539977335,2.29718548180723,1921,24,21.87981431922633,49.87555173142578
4.241187151768785,2.2971625153525363,1921,24,21.87981431922633,49.87555173142578
4.264152919933667,2.2971395491274538,1921,24,21.87981431922633,49.87555173142578
4.2871184584946915,2.297116583131979,1921,24,21.87981431922633,49.87555173142578
4.310083767454166,2.297093617366111,1921,24,21.87981431922633,49.87555173142578
4.333048846814395,2.2970706518298467,1921,24,21.87981431922633,49.87555173142578
4.356013696577689,2.2970476865231837,1921,24,21.87981431922633,49.87555173142578
4.37897831674635,2.29702472144612,1921,24,21.87981431922633,49.87555173142578
4.401942707322686,2.2970017565986534,1921,24,21.87981431922633,49.87555173142578
4.424906868308997,2.296978791980781,1921,24,21.87981431922633,49.87555173142578
4.447870799707589,2.2969558275925013,1921,24,21.87981431922633,49.87555173142578
4.470834501520761,2.2969328634338115,1921,24,21.87981431922633,49.87555173142578
4.493797973750819,2.2969098995047093,1921,24,21.87981431922633,49.87555173142578
4.516761216400062,2.2968869358051927,1921,24,21.87981431922633,49.87555173142578
4.539724229470793,2.2968639723352586,1921,24,21.87981431922633,49.87555173142578
4.562687012965311,2.296841009094906,1921,24,21.87981431922633,49.87555173142578
4.585649566885915,2.2968180460841316,1921,24,21.87981431922633,49.87555173142578
4.608611891234908,2.2967950833029334,1921,24,21.87981431922633,49.87555173142578
4.631573986014586,2.296772120751309,1921,24,21.87981431922633,49.87555173142578
4.654535851227248,2.2967491584292565,1921,24,21.87981431922633,49.87555173142578
4.677497486875194,2.296726196336773,1921,24,21.87981431922633,49.87555173142578
4.700458892960723,2.2967032344738563,1921,24,21.87981431922633,49.87555173142578
4.723420069486132,2.2966802728405047,1921,24,21.87981431922633,49.87555173142578
4.746381016453719,2.2966573114367153,1921,24,21.87981431922633,49.87555173142578
4.76934173386578,2.296634350262486,1921,24,21.87981431922633,49.87555173142578
4.792302221724616,2.296611389317815,1921,24,21.87981431922633,49.87555173142578
4.81526248003252,2.296588428602699,1921,24,21.87981431922633,49.87555173142578
4.838222508791793,2.296565468117136,1921,24,21.87981431922633,49.87555173142578
4.861182308004727,2.2965425078611243,1921,24,21.87981431922633,49.87555173142578
4.884141877673622,2.296519547834661,1921,24,21.87981431922633,49.87555173142578
4.907101217800776,2.296496588037744,1921,24,21.87981431922633,49.87555173142578
4.93006032838848,2.296473628470371,1921,24,21.87981431922633,49.87555173142578
4.953019209439035,2.29645066913254,1921,24,21.87981431922633,49.87555173142578
4.975977860954737,2.2964277100242483,1921,24,21.87981431922633,49.87555173142578
4.998936282937879,2.2964047511454937,1921,24,21.87981431922633,49.87555173142578
5.0218944753907575,2.2963817924962737,1921,24,21.87981431922633,49.87555173142578
5.0448524383156705,2.2963588340765866,1921,24,21.87981431922633,49.87555173142578
5.06781017171491,2.2963358758864296,1921,24,21.87981431922633,49.87555173142578
5.090767675590775,2.2963129179258006,1921,24,21.87981431922633,49.87555173142578
5.113724949945559,2.296289960194697,1921,24,21.87981431922633,49.87555173142578
5.136681994781559,2.296267002693117,1921,24,21.87981431922633,49.87555173142578
5.159638810101068,2.296244045421058,1921,24,21.87981431922633,49.87555173142578
5.182595395906383,2.296221088378518,1921,24,21.87981431922633,49.87555173142578
5.205551752199798,2.296198131565494,1921,24,21.87981431922633,49.87555173142578
5.228507878983612,2.2961751749819843,1921,24,21.87981431922633,49.87555173142578
5.251463776260113,2.2961522186279866,1921,24,21.87981431922633,49.87555173142578
5.274419444031601,2.2961292625034986,1921,24,21.87981431922633,49.87555173142578
5.297374882300369,2.2961063066085177,1921,24,21.87981431922633,49.87555173142578
5.320330091068714,2.2960833509430416,1921,24,21.87981431922633,49.87555173142578
5.34328507033893,2.2960603955070686,1921,24,21.87981431922633,49.87555173142578
5.36623982011331,2.2960374403005956,1921,24,21.87981431922633,49.87555173142578
5.38919434039415,2.2960144853236213,1921,24,21.87981431922633,49.87555173142578
5.412148631183743,2.295991530576142,1921,24,21.87981431922633,49.87555173142578
5.435102692484386,2.295968576058157,1921,24,21.87981431922633,49.87555173142578
5.458056524298371,2.295945621769663,1921,24,21.87981431922633,49.87555173142578
5.481010126627997,2.2959226677106574,1921,24,21.87981431922633,49.87555173142578
5.503963499475556,2.295899713881139,1921,24,21.87981431922633,49.87555173142578
5.526916642843341,2.295876760281105,1921,24,21.87981431922633,49.87555173142578
5.549869556733648,2.2958538069105527,1921,24,21.87981431922633,49.87555173142578
5.57282224114877,2.29583085376948,1921,24,21.87981431922633,49.87555173142578
