Vout,Iout,Irradiance,Temperature,MaxVoltage,MaxPower
0.007901564023422852,1.5803279999999997,1401,-11,19.29119996828491,30.11487220862472
0.023704545962871228,1.5803279999999997,1401,-11,19.29119996828491,30.11487220862472
0.039507206631660526,1.5803199404031762,1401,-11,19.29119996828491,30.11487220862472
0.0553094886348939,1.5803041374212368,1401,-11,19.29119996828491,30.11487220862472
0.07111137321492332,1.580288334761374,1401,-11,19.29119996828491,30.11487220862472
0.08691287879772155,1.580272532480951,1401,-11,19.29119996828491,30.11487220862472
0.1027140223921847,1.5802567305979514,1401,-11,19.29119996828491,30.11487220862472
0.11851481969881429,1.5802409290939488,1401,-11,19.29119996828491,30.11487220862472
0.13431528521021208,1.5802251279519346,1401,-11,19.29119996828491,30.11487220862472
0.1501154323040178,1.580209327156208,1401,-11,19.29119996828491,30.11487220862472
0.165915273328696,1.5801935266922766,1401,-11,19.29119996828491,30.11487220862472
0.18171481968272246,1.580177726546763,1401,-11,19.29119996828491,30.11487220862472
0.19751408188767794,1.5801619267073184,1401,-11,19.29119996828491,30.11487220862472
0.21331306965571753,1.5801461271625443,1401,-11,19.29119996828491,30.11487220862472
0.22911179195184952,1.5801303279019194,1401,-11,19.29119996828491,30.11487220862472
0.24491025705142175,1.5801145289157312,1401,-11,19.29119996828491,30.11487220862472
0.2607084725931853,1.5800987301950151,1401,-11,19.29119996828491,30.11487220862472
0.2765064456282752,1.5800829317314955,1401,-11,19.29119996828491,30.11487220862472
0.2923041826654226,1.5800671335175336,1401,-11,19.29119996828491,30.11487220862472
0.30810168971268803,1.5800513355460784,1401,-11,19.29119996828491,30.11487220862472
0.323898972315984,1.580035537810621,1401,-11,19.29119996828491,30.11487220862472
0.33969603559463324,1.5800197403051535,1401,-11,19.29119996828491,30.11487220862472
0.35549288427419123,1.58000394302413,1401,-11,19.29119996828491,30.11487220862472
0.37128952271674315,1.579988145962431,1401,-11,19.29119996828491,30.11487220862472
0.38708595494887,1.5799723491153312,1401,-11,19.29119996828491,30.11487220862472
0.4028821846874628,1.5799565524784684,1401,-11,19.29119996828491,30.11487220862472
0.4186782153635507,1.579940756047816,1401,-11,19.29119996828491,30.11487220862472
0.43447405014429546,1.579924959819657,1401,-11,19.29119996828491,30.11487220862472
0.4502696919532939,1.5799091637905607,1401,-11,19.29119996828491,30.11487220862472
0.46606514348931816,1.5798933679573595,1401,-11,19.29119996828491,30.11487220862472
0.48186040724361395,1.57987757231713,1401,-11,19.29119996828491,30.11487220862472
0.4976554855158683,1.5798617768671737,1401,-11,19.29119996828491,30.11487220862472
0.5134503804289482,1.5798459816049988,1401,-11,19.29119996828491,30.11487220862472
0.529245093942505,1.5798301865283062,1401,-11,19.29119996828491,30.11487220862472
0.5450396278655332,1.5798143916349727,1401,-11,19.29119996828491,30.11487220862472
0.5608339838679617,1.5797985969230386,1401,-11,19.29119996828491,30.11487220862472
0.5766281634913543,1.579782802390695,1401,-11,19.29119996828491,30.11487220862472
0.592422168158785,1.579767008036272,1401,-11,19.29119996828491,30.11487220862472
0.608215999183957,1.5797512138582281,1401,-11,19.29119996828491,30.11487220862472
0.6240096577796153,1.57973541985514,1401,-11,19.29119996828491,30.11487220862472
0.6398031450653167,1.5797196260256945,1401,-11,19.29119996828491,30.11487220862472
0.6555964620745984,1.579703832368678,1401,-11,19.29119996828491,30.11487220862472
0.6713896097615977,1.5796880388829717,1401,-11,19.29119996828491,30.11487220862472
0.6871825890071599,1.5796722455675418,1401,-11,19.29119996828491,30.11487220862472
0.7029754006244784,1.5796564524214343,1401,-11,19.29119996828491,30.11487220862472
0.7187680453642996,1.579640659443768,1401,-11,19.29119996828491,30.11487220862472
0.734560523919728,1.57962486663373,1401,-11,19.29119996828491,30.11487220862472
0.7503528369306607,1.5796090739905695,1401,-11,19.29119996828491,30.11487220862472
0.7661449849878814,1.5795932815135934,1401,-11,19.29119996828491,30.11487220862472
0.7819369686368401,1.5795774892021617,1401,-11,19.29119996828491,30.11487220862472
0.7977287883811396,1.5795616970556836,1401,-11,19.29119996828491,30.11487220862472
0.8135204446857566,1.579545905073614,1401,-11,19.29119996828491,30.11487220862472
0.8293119379800131,1.579530113255449,1401,-11,19.29119996828491,30.11487220862472
0.84510326866032,1.5795143216007235,1401,-11,19.29119996828491,30.11487220862472
0.8608944370927089,1.5794985301090083,1401,-11,19.29119996828491,30.11487220862472
0.8766854436151699,1.5794827387799073,1401,-11,19.29119996828491,30.11487220862472
0.8924762885398091,1.579466947613054,1401,-11,19.29119996828491,30.11487220862472
0.90826697215484,1.5794511566081106,1401,-11,19.29119996828491,30.11487220862472
0.9240574947264217,1.579435365764765,1401,-11,19.29119996828491,30.11487220862472
0.9398478565003565,1.5794195750827291,1401,-11,19.29119996828491,30.11487220862472
0.9556380577036556,1.5794037845617368,1401,-11,19.29119996828491,30.11487220862472
0.9714280985459846,1.5793879942015419,1401,-11,19.29119996828491,30.11487220862472
0.987217979220999,1.5793722040019176,1401,-11,19.29119996828491,30.11487220862472
1.0030076999075752,1.5793564139626544,1401,-11,19.29119996828491,30.11487220862472
1.0187972607709481,1.5793406240835584,1401,-11,19.29119996828491,30.11487220862472
1.0345866619637616,1.5793248343644508,1401,-11,19.29119996828491,30.11487220862472
1.050375903627034,1.5793090448051663,1401,-11,19.29119996828491,30.11487220862472
1.0661649858910565,1.5792932554055525,1401,-11,19.29119996828491,30.11487220862472
1.0819539088762176,1.5792774661654683,1401,-11,19.29119996828491,30.11487220862472
1.0977426726937627,1.5792616770847832,1401,-11,19.29119996828491,30.11487220862472
1.1135312774465003,1.5792458881633769,1401,-11,19.29119996828491,30.11487220862472
1.1293197232294492,1.5792300994011383,1401,-11,19.29119996828491,30.11487220862472
1.1451080101304394,1.5792143107979644,1401,-11,19.29119996828491,30.11487220862472
1.1608961382306642,1.5791985223537603,1401,-11,19.29119996828491,30.11487220862472
1.1766841076051915,1.5791827340684381,1401,-11,19.29119996828491,30.11487220862472
1.1924719183234342,1.5791669459419169,1401,-11,19.29119996828491,30.11487220862472
1.2082595704495864,1.579151157974121,1401,-11,19.29119996828491,30.11487220862472
1.224047064043024,1.5791353701649817,1401,-11,19.29119996828491,30.11487220862472
1.2398343991586764,1.5791195825144344,1401,-11,19.29119996828491,30.11487220862472
1.2556215758473672,1.5791037950224196,1401,-11,19.29119996828491,30.11487220862472
1.2714085941561322,1.579088007688883,1401,-11,19.29119996828491,30.11487220862472
1.287195454128508,1.5790722205137728,1401,-11,19.29119996828491,30.11487220862472
1.302982155804804,1.5790564334970427,1401,-11,19.29119996828491,30.11487220862472
1.318768699222349,1.579040646638649,1401,-11,19.29119996828491,30.11487220862472
1.3345550844157217,1.5790248599385517,1401,-11,19.29119996828491,30.11487220862472
1.3503413114169602,1.5790090733967128,1401,-11,19.29119996828491,30.11487220862472
1.366127380255761,1.578993287013098,1401,-11,19.29119996828491,30.11487220862472
1.3819132909596554,1.5789775007876754,1401,-11,19.29119996828491,30.11487220862472
1.397699043554178,1.5789617147204154,1401,-11,19.29119996828491,30.11487220862472
1.4134846380630215,1.57894592881129,1401,-11,19.29119996828491,30.11487220862472
1.429270074508175,1.578930143060274,1401,-11,19.29119996828491,30.11487220862472
1.4450553529100592,1.5789143574673439,1401,-11,19.29119996828491,30.11487220862472
1.4608404732876428,1.5788985720324773,1401,-11,19.29119996828491,30.11487220862472
1.4766254356585584,1.5788827867556539,1401,-11,19.29119996828491,30.11487220862472
1.4924102400392023,1.578867001636855,1401,-11,19.29119996828491,30.11487220862472
1.5081948864448302,1.5788512166760624,1401,-11,19.29119996828491,30.11487220862472
1.5239793748896462,1.5788354318732605,1401,-11,19.29119996828491,30.11487220862472
1.5397637053868833,1.5788196472284333,1401,-11,19.29119996828491,30.11487220862472
1.555547877948876,1.5788038627415668,1401,-11,19.29119996828491,30.11487220862472
1.5713318925871333,1.5787880784126482,1401,-11,19.29119996828491,30.11487220862472
1.587115749312398,1.5787722942416647,1401,-11,19.29119996828491,30.11487220862472
1.6028994481347085,1.5787565102286047,1401,-11,19.29119996828491,30.11487220862472
1.618682989063453,1.5787407263734579,1401,-11,19.29119996828491,30.11487220862472
1.6344663721074175,1.578724942676214,1401,-11,19.29119996828491,30.11487220862472
1.6502495972748343,1.5787091591368636,1401,-11,19.29119996828491,30.11487220862472
1.6660326645734236,1.578693375755398,1401,-11,19.29119996828491,30.11487220862472
1.681815574010432,1.578677592531809,1401,-11,19.29119996828491,30.11487220862472
1.6975983255926708,1.5786618094660887,1401,-11,19.29119996828491,30.11487220862472
1.7133809193265481,1.57864602655823,1401,-11,19.29119996828491,30.11487220862472
1.7291633552181012,1.578630243808226,1401,-11,19.29119996828491,30.11487220862472
1.7449456332730229,1.5786144612160706,1401,-11,19.29119996828491,30.11487220862472
1.7607277534966908,1.5785986787817572,1401,-11,19.29119996828491,30.11487220862472
1.7765097158941883,1.5785828965052806,1401,-11,19.29119996828491,30.11487220862472
1.7922915204703311,1.578567114386635,1401,-11,19.29119996828491,30.11487220862472
1.8080731672296841,1.5785513324258158,1401,-11,19.29119996828491,30.11487220862472
1.8238546561765827,1.578535550622818,1401,-11,19.29119996828491,30.11487220862472
1.8396359873151513,1.578519768977637,1401,-11,19.29119996828491,30.11487220862472
1.8554171606493164,1.578503987490268,1401,-11,19.29119996828491,30.11487220862472
1.871198176182825,1.5784882061607077,1401,-11,19.29119996828491,30.11487220862472
1.8869790339192565,1.5784724249889517,1401,-11,19.29119996828491,30.11487220862472
1.902759733862037,1.5784566439749963,1401,-11,19.29119996828491,30.11487220862472
1.91854027601445,1.578440863118838,1401,-11,19.29119996828491,30.11487220862472
1.9343206603796474,1.5784250824204733,1401,-11,19.29119996828491,30.11487220862472
1.9501008869606604,1.578409301879899,1401,-11,19.29119996828491,30.11487220862472
1.9658809557604078,1.5783935214971119,1401,-11,19.29119996828491,30.11487220862472
1.9816608667817053,1.578377741272109,1401,-11,19.29119996828491,30.11487220862472
1.9974406200272736,1.5783619612048871,1401,-11,19.29119996828491,30.11487220862472
2.013220215499745,1.5783461812954438,1401,-11,19.29119996828491,30.11487220862472
2.028999653201672,1.5783304015437762,1401,-11,19.29119996828491,30.11487220862472
2.044778933135529,1.5783146219498818,1401,-11,19.29119996828491,30.11487220862472
2.060558055303725,1.5782988425137578,1401,-11,19.29119996828491,30.11487220862472
2.076337019708602,1.578283063235402,1401,-11,19.29119996828491,30.11487220862472
2.092115826352445,1.5782672841148118,1401,-11,19.29119996828491,30.11487220862472
2.107894475237484,1.5782515051519848,1401,-11,19.29119996828491,30.11487220862472
2.1236729663658975,1.5782357263469189,1401,-11,19.29119996828491,30.11487220862472
2.1394512997398207,1.5782199476996117,1401,-11,19.29119996828491,30.11487220862472
2.1552294753613435,1.5782041692100612,1401,-11,19.29119996828491,30.11487220862472
2.171007493232515,1.5781883908782652,1401,-11,19.29119996828491,30.11487220862472
2.1867853533553525,1.5781726127042215,1401,-11,19.29119996828491,30.11487220862472
2.202563055731835,1.5781568346879282,1401,-11,19.29119996828491,30.11487220862472
2.218340600363913,1.5781410568293832,1401,-11,19.29119996828491,30.11487220862472
2.2341179872535064,1.5781252791285845,1401,-11,19.29119996828491,30.11487220862472
2.249895216402511,1.5781095015855302,1401,-11,19.29119996828491,30.11487220862472
2.265672287812797,1.5780937242002182,1401,-11,19.29119996828491,30.11487220862472
2.2814492014862107,1.5780779469726471,1401,-11,19.29119996828491,30.11487220862472
2.29722595742458,1.5780621699028146,1401,-11,19.29119996828491,30.11487220862472
2.313002555629712,1.578046392990719,1401,-11,19.29119996828491,30.11487220862472
2.328778996103397,1.5780306162363582,1401,-11,19.29119996828491,30.11487220862472
2.344555278847407,1.5780148396397307,1401,-11,19.29119996828491,30.11487220862472
2.3603314038635013,1.5779990632008347,1401,-11,19.29119996828491,30.11487220862472
2.3761073711534233,1.5779832869196684,1401,-11,19.29119996828491,30.11487220862472
2.3918831807189056,1.5779675107962299,1401,-11,19.29119996828491,30.11487220862472
2.407658832561666,1.5779517348305176,1401,-11,19.29119996828491,30.11487220862472
2.4234343266834144,1.5779359590225297,1401,-11,19.29119996828491,30.11487220862472
2.4392096630858484,1.5779201833722645,1401,-11,19.29119996828491,30.11487220862472
2.4549848417706572,1.5779044078797204,1401,-11,19.29119996828491,30.11487220862472
2.470759862739521,1.5778886325448955,1401,-11,19.29119996828491,30.11487220862472
2.486534725994112,1.5778728573677883,1401,-11,19.29119996828491,30.11487220862472
2.502309431536096,1.577857082348397,1401,-11,19.29119996828491,30.11487220862472
2.51808397936713,1.57784130748672,1401,-11,19.29119996828491,30.11487220862472
2.5338583694888657,1.5778255327827555,1401,-11,19.29119996828491,30.11487220862472
2.5496326019029514,1.5778097582365018,1401,-11,19.29119996828491,30.11487220862472
2.5654066766110244,1.5777939838479575,1401,-11,19.29119996828491,30.11487220862472
2.5811805936147243,1.577778209617121,1401,-11,19.29119996828491,30.11487220862472
2.5969543529156796,1.5777624355439903,1401,-11,19.29119996828491,30.11487220862472
2.6127279545155173,1.577746661628564,1401,-11,19.29119996828491,30.11487220862472
2.628501398415862,1.5777308878708405,1401,-11,19.29119996828491,30.11487220862472
2.644274684618333,1.5777151142708181,1401,-11,19.29119996828491,30.11487220862472
2.6600478131245455,1.5776993408284952,1401,-11,19.29119996828491,30.11487220862472
2.6758207839361132,1.57768356754387,1401,-11,19.29119996828491,30.11487220862472
2.6915935970546467,1.577667794416941,1401,-11,19.29119996828491,30.11487220862472
2.707366252481753,1.5776520214477068,1401,-11,19.29119996828491,30.11487220862472
2.723138750219038,1.5776362486361657,1401,-11,19.29119996828491,30.11487220862472
2.738911090268104,1.5776204759823158,1401,-11,19.29119996828491,30.11487220862472
2.7546832726305532,1.5776047034861558,1401,-11,19.29119996828491,30.11487220862472
2.7704552973079855,1.577588931147684,1401,-11,19.29119996828491,30.11487220862472
2.786227164301995,1.5775731589668989,1401,-11,19.29119996828491,30.11487220862472
2.8019988736141794,1.5775573869437987,1401,-11,19.29119996828491,30.11487220862472
2.817770425246133,1.5775416150783819,1401,-11,19.29119996828491,30.11487220862472
2.8335418191994486,1.577525843370647,1401,-11,19.29119996828491,30.11487220862472
2.849313055475718,1.577510071820592,1401,-11,19.29119996828491,30.11487220862472
2.8650841340765307,1.577494300428216,1401,-11,19.29119996828491,30.11487220862472
2.880855055003477,1.577478529193517,1401,-11,19.29119996828491,30.11487220862472
2.896625818258144,1.577462758116493,1401,-11,19.29119996828491,30.11487220862472
2.9123964238421203,1.5774469871971433,1401,-11,19.29119996828491,30.11487220862472
2.928166871756992,1.5774312164354658,1401,-11,19.29119996828491,30.11487220862472
2.943937162004344,1.5774154458314589,1401,-11,19.29119996828491,30.11487220862472
2.9597072945857623,1.5773996753851212,1401,-11,19.29119996828491,30.11487220862472
2.975477269502831,1.5773839050964509,1401,-11,19.29119996828491,30.11487220862472
2.991247086757133,1.5773681349654465,1401,-11,19.29119996828491,30.11487220862472
3.0070167463502524,1.5773523649921064,1401,-11,19.29119996828491,30.11487220862472
3.0227862482837713,1.577336595176429,1401,-11,19.29119996828491,30.11487220862472
3.038555592559271,1.577320825518413,1401,-11,19.29119996828491,30.11487220862472
3.054324779178334,1.5773050560180564,1401,-11,19.29119996828491,30.11487220862472
3.0700938081425395,1.5772892866753578,1401,-11,19.29119996828491,30.11487220862472
3.0858626794534714,1.5772735174903159,1401,-11,19.29119996828491,30.11487220862472
3.101631393112708,1.5772577484629284,1401,-11,19.29119996828491,30.11487220862472
3.1173999491218294,1.5772419795931945,1401,-11,19.29119996828491,30.11487220862472
3.133168347482416,1.5772262108811121,1401,-11,19.29119996828491,30.11487220862472
3.1489365881960474,1.57721044232668,1401,-11,19.29119996828491,30.11487220862472
3.1647046712643028,1.5771946739298963,1401,-11,19.29119996828491,30.11487220862472
3.1804725966887597,1.5771789056907595,1401,-11,19.29119996828491,30.11487220862472
3.196240364470998,1.577163137609268,1401,-11,19.29119996828491,30.11487220862472
3.2120079746125962,1.5771473696854204,1401,-11,19.29119996828491,30.11487220862472
3.227775427115132,1.577131601919215,1401,-11,19.29119996828491,30.11487220862472
3.243542721980184,1.5771158343106502,1401,-11,19.29119996828491,30.11487220862472
3.25930985920933,1.5771000668597244,1401,-11,19.29119996828491,30.11487220862472
3.2750768388041465,1.577084299566436,1401,-11,19.29119996828491,30.11487220862472
3.290843660766213,1.5770685324307838,1401,-11,19.29119996828491,30.11487220862472
3.3066103250971057,1.5770527654527657,1401,-11,19.29119996828491,30.11487220862472
3.3223768317984024,1.5770369986323802,1401,-11,19.29119996828491,30.11487220862472
3.3381431808716795,1.5770212319696262,1401,-11,19.29119996828491,30.11487220862472
3.3539093723185154,1.5770054654645014,1401,-11,19.29119996828491,30.11487220862472
3.369675406140486,1.576989699117005,1401,-11,19.29119996828491,30.11487220862472
3.3854412823391677,1.5769739329271346,1401,-11,19.29119996828491,30.11487220862472
3.401207000916139,1.5769581668948893,1401,-11,19.29119996828491,30.11487220862472
3.416972561872976,1.5769424010202673,1401,-11,19.29119996828491,30.11487220862472
3.4327379652112553,1.576926635303267,1401,-11,19.29119996828491,30.11487220862472
3.4485032109325524,1.5769108697438867,1401,-11,19.29119996828491,30.11487220862472
3.464268299038445,1.5768951043421249,1401,-11,19.29119996828491,30.11487220862472
3.480033229530509,1.5768793390979803,1401,-11,19.29119996828491,30.11487220862472
3.4957980024103206,1.576863574011451,1401,-11,19.29119996828491,30.11487220862472
3.5115626176794557,1.5768478090825353,1401,-11,19.29119996828491,30.11487220862472
3.5273270753394925,1.576832044311232,1401,-11,19.29119996828491,30.11487220862472
3.5430913753920046,1.5768162796975393,1401,-11,19.29119996828491,30.11487220862472
3.5588555178385697,1.5768005152414557,1401,-11,19.29119996828491,30.11487220862472
3.574619502680764,1.5767847509429798,1401,-11,19.29119996828491,30.11487220862472
3.5903833299201624,1.5767689868021095,1401,-11,19.29119996828491,30.11487220862472
3.6061469995583413,1.576753222818844,1401,-11,19.29119996828491,30.11487220862472
3.621910511596877,1.5767374589931809,1401,-11,19.29119996828491,30.11487220862472
3.6376738660373458,1.576721695325119,1401,-11,19.29119996828491,30.11487220862472
3.653437062881322,1.576705931814657,1401,-11,19.29119996828491,30.11487220862472
3.6692001021303824,1.5766901684617929,1401,-11,19.29119996828491,30.11487220862472
3.6849629837861038,1.5766744052665251,1401,-11,19.29119996828491,30.11487220862472
3.70072570785006,1.5766586422288524,1401,-11,19.29119996828491,30.11487220862472
3.7164882743238286,1.576642879348773,1401,-11,19.29119996828491,30.11487220862472
3.7322506832089837,1.5766271166262855,1401,-11,19.29119996828491,30.11487220862472
3.7480129345071016,1.576611354061388,1401,-11,19.29119996828491,30.11487220862472
3.7637750282197575,1.576595591654079,1401,-11,19.29119996828491,30.11487220862472
