Vout,Iout,Irradiance,Temperature,MaxVoltage,MaxPower
0.003044170729127605,0.60884,491,45,22.840252985615365,13.365151491723145
0.00913245589778484,0.60884,491,45,22.840252985615365,13.365151491723145
0.01522061729313168,0.6088368949452709,491,45,22.840252985615365,13.365151491723145
0.02130863280310721,0.6088308066601023,491,45,22.840252985615365,13.365151491723145
0.027396495201106305,0.6088247184990174,491,45,22.840252985615365,13.365151491723145
0.0334842115859523,0.6088186304841163,491,45,22.840252985615365,13.365151491723145
0.039571788510522996,0.6088125426223271,491,45,22.840252985615365,13.365151491723145
0.045659232023621765,0.608806454906551,491,45,22.840252985615365,13.365151491723145
0.051746547708694364,0.6088003673302352,491,45,22.840252985615365,13.365151491723145
0.05783374071963429,0.6087942798873309,491,45,22.840252985615365,13.365151491723145
0.06392081581383315,0.6087881925722546,491,45,22.840252985615365,13.365151491723145
0.07000777738268814,0.6087821053798524,491,45,22.840252985615365,13.365151491723145
0.07609462947976235,0.608776018305367,491,45,22.840252985615365,13.365151491723145
0.08218137584677808,0.6087699313444068,491,45,22.840252985615365,13.365151491723145
0.08826801993761049,0.6087638444929184,491,45,22.840252985615365,13.365151491723145
0.09435456494043495,0.6087577577471601,491,45,22.840252985615365,13.365151491723145
0.10044101379817037,0.608751671103678,491,45,22.840252985615365,13.365151491723145
0.10652736922734972,0.6087455845592838,491,45,22.840252985615365,13.365151491723145
0.11261363373553841,0.6087394981110348,491,45,22.840252985615365,13.365151491723145
0.11869980963741264,0.6087334117562142,491,45,22.840252985615365,13.365151491723145
0.1247858990696006,0.6087273254923147,491,45,22.840252985615365,13.365151491723145
0.13087190400438173,0.6087212393170215,491,45,22.840252985615365,13.365151491723145
0.136957826262332,0.6087151532281979,491,45,22.840252985615365,13.365151491723145
0.14304366752399622,0.6087090672238717,491,45,22.840252985615365,13.365151491723145
0.14912942934066217,0.6087029813022224,491,45,22.840252985615365,13.365151491723145
0.15521511314430605,0.6086968954615694,491,45,22.840252985615365,13.365151491723145
0.1613007202567722,0.6086908097003613,491,45,22.840252985615365,13.365151491723145
0.167386251898247,0.6086847240171662,491,45,22.840252985615365,13.365151491723145
0.17347170919508068,0.6086786384106623,491,45,22.840252985615365,13.365151491723145
0.17955709318700705,0.6086725528796294,491,45,22.840252985615365,13.365151491723145
0.18564240483380784,0.6086664674229412,491,45,22.840252985615365,13.365151491723145
0.19172764502146467,0.6086603820395577,491,45,22.840252985615365,13.365151491723145
0.19781281456783698,0.6086542967285195,491,45,22.840252985615365,13.365151491723145
0.2038979142279037,0.6086482114889403,491,45,22.840252985615365,13.365151491723145
0.2099829446986013,0.6086421263200026,491,45,22.840252985615365,13.365151491723145
0.21606790662328948,0.6086360412209509,491,45,22.840252985615365,13.365151491723145
0.22215280059587386,0.6086299561910888,491,45,22.840252985615365,13.365151491723145
0.22823762716461066,0.6086238712297727,491,45,22.840252985615365,13.365151491723145
0.23432238683561923,0.6086177863364085,491,45,22.840252985615365,13.365151491723145
0.24040708007612413,0.6086117015104483,491,45,22.840252985615365,13.365151491723145
0.2464917073174477,0.6086056167513858,491,45,22.840252985615365,13.365151491723145
0.25257626895777247,0.6085995320587537,491,45,22.840252985615365,13.365151491723145
0.25866076536469096,0.608593447432121,491,45,22.840252985615365,13.365151491723145
0.26474519687755915,0.608587362871089,491,45,22.840252985615365,13.365151491723145
0.27082956380966966,0.6085812783752906,491,45,22.840252985615365,13.365151491723145
0.2769138664502561,0.6085751939443862,491,45,22.840252985615365,13.365151491723145
0.2829981050663453,0.6085691095780625,491,45,22.840252985615365,13.365151491723145
0.2890822799044652,0.6085630252760303,491,45,22.840252985615365,13.365151491723145
0.2951663911922221,0.6085569410380227,491,45,22.840252985615365,13.365151491723145
0.30125043913975696,0.6085508568637931,491,45,22.840252985615365,13.365151491723145
0.30733442394108895,0.6085447727531137,491,45,22.840252985615365,13.365151491723145
0.3134183457753556,0.6085386887057747,491,45,22.840252985615365,13.365151491723145
0.3195022048079585,0.6085326047215817,491,45,22.840252985615365,13.365151491723145
0.3255860011916193,0.6085265208003559,491,45,22.840252985615365,13.365151491723145
0.33166973506735636,0.6085204369419316,491,45,22.840252985615365,13.365151491723145
0.337753406565384,0.6085143531461563,491,45,22.840252985615365,13.365151491723145
0.343837015805945,0.608508269412889,491,45,22.840252985615365,13.365151491723145
0.34992056290007695,0.6085021857419993,491,45,22.840252985615365,13.365151491723145
0.3560040479503209,0.6084961021333671,491,45,22.840252985615365,13.365151491723145
0.36208747105137495,0.6084900185868813,491,45,22.840252985615365,13.365151491723145
0.36817083229069775,0.6084839351024395,491,45,22.840252985615365,13.365151491723145
0.3742541317490656,0.6084778516799468,491,45,22.840252985615365,13.365151491723145
0.3803373695010866,0.6084717683193158,491,45,22.840252985615365,13.365151491723145
0.3864205456156748,0.6084656850204658,491,45,22.840252985615365,13.365151491723145
0.3925036601564892,0.6084596017833221,491,45,22.840252985615365,13.365151491723145
0.3985867131823372,0.6084535186078158,491,45,22.840252985615365,13.365151491723145
0.40466970474754815,0.6084474354938834,491,45,22.840252985615365,13.365151491723145
0.4107526349023185,0.6084413524414658,491,45,22.840252985615365,13.365151491723145
0.4168355036930287,0.608435269450509,491,45,22.840252985615365,13.365151491723145
0.42291831116253764,0.6084291865209625,491,45,22.840252985615365,13.365151491723145
0.4290010573504535,0.6084231036527801,491,45,22.840252985615365,13.365151491723145
0.4350837422933835,0.6084170208459189,491,45,22.840252985615365,13.365151491723145
0.44116636602516496,0.6084109381003392,491,45,22.840252985615365,13.365151491723145
0.4472489285770788,0.6084048554160045,491,45,22.840252985615365,13.365151491723145
0.45333142997804576,0.6083987727928811,491,45,22.840252985615365,13.365151491723145
0.45941387025480795,0.6083926902309374,491,45,22.840252985615365,13.365151491723145
0.46549624943209683,0.6083866077301447,491,45,22.840252985615365,13.365151491723145
0.47157856753278765,0.6083805252904763,491,45,22.840252985615365,13.365151491723145
0.47766082457804265,0.6083744429119072,491,45,22.840252985615365,13.365151491723145
0.48374302058744234,0.6083683605944147,491,45,22.840252985615365,13.365151491723145
0.4898251555791076,0.6083622783379777,491,45,22.840252985615365,13.365151491723145
0.49590722956981165,0.6083561961425765,491,45,22.840252985615365,13.365151491723145
0.501989242575084,0.608350114008193,491,45,22.840252985615365,13.365151491723145
0.5080711946093062,0.6083440319348106,491,45,22.840252985615365,13.365151491723145
0.5141530856857995,0.6083379499224135,491,45,22.840252985615365,13.365151491723145
0.520234915816908,0.6083318679709876,491,45,22.840252985615365,13.365151491723145
0.5263166850140717,0.6083257860805192,491,45,22.840252985615365,13.365151491723145
0.5323983932878977,0.6083197042509964,491,45,22.840252985615365,13.365151491723145
0.5384800406482239,0.6083136224824074,491,45,22.840252985615365,13.365151491723145
0.5445616271041774,0.6083075407747417,491,45,22.840252985615365,13.365151491723145
0.5506431526642305,0.6083014591279896,491,45,22.840252985615365,13.365151491723145
0.5567246173362498,0.6082953775421418,491,45,22.840252985615365,13.365151491723145
0.5628060211275439,0.60828929601719,491,45,22.840252985615365,13.365151491723145
0.5688873640449055,0.6082832145531261,491,45,22.840252985615365,13.365151491723145
0.5749686460946517,0.6082771331499429,491,45,22.840252985615365,13.365151491723145
0.5810498672826598,0.6082710518076336,491,45,22.840252985615365,13.365151491723145
0.5871310276144023,0.6082649705261921,491,45,22.840252985615365,13.365151491723145
0.593212127094977,0.6082588893056122,491,45,22.840252985615365,13.365151491723145
0.5992931657291363,0.6082528081458886,491,45,22.840252985615365,13.365151491723145
0.6053741435213138,0.6082467270470161,491,45,22.840252985615365,13.365151491723145
0.6114550604756488,0.6082406460089901,491,45,22.840252985615365,13.365151491723145
0.6175359165960083,0.6082345650318061,491,45,22.840252985615365,13.365151491723145
0.6236167118860093,0.6082284841154598,491,45,22.840252985615365,13.365151491723145
0.629697446349037,0.6082224032599476,491,45,22.840252985615365,13.365151491723145
0.6357781199882627,0.6082163224652656,491,45,22.840252985615365,13.365151491723145
0.6418587328066605,0.6082102417314107,491,45,22.840252985615365,13.365151491723145
0.6479392848070226,0.6082041610583795,491,45,22.840252985615365,13.365151491723145
0.6540197759919728,0.6081980804461692,491,45,22.840252985615365,13.365151491723145
0.6601002063639806,0.6081919998947769,491,45,22.840252985615365,13.365151491723145
0.6661805759253712,0.6081859194042001,491,45,22.840252985615365,13.365151491723145
0.6722608846783381,0.6081798389744361,491,45,22.840252985615365,13.365151491723145
0.6783411326249528,0.6081737586054827,491,45,22.840252985615365,13.365151491723145
0.6844213197671741,0.6081676782973379,491,45,22.840252985615365,13.365151491723145
0.6905014461068573,0.6081615980499993,491,45,22.840252985615365,13.365151491723145
0.6965815116457608,0.608155517863465,491,45,22.840252985615365,13.365151491723145
0.7026615163855552,0.6081494377377333,491,45,22.840252985615365,13.365151491723145
0.7087414603278291,0.6081433576728025,491,45,22.840252985615365,13.365151491723145
0.7148213434740958,0.6081372776686708,491,45,22.840252985615365,13.365151491723145
0.7209011658257984,0.6081311977253364,491,45,22.840252985615365,13.365151491723145
0.7269809273843161,0.6081251178427982,491,45,22.840252985615365,13.365151491723145
0.7330606281509686,0.6081190380210545,491,45,22.840252985615365,13.365151491723145
0.7391402681270213,0.6081129582601039,491,45,22.840252985615365,13.365151491723145
0.7452198473136882,0.6081068785599453,491,45,22.840252985615365,13.365151491723145
0.751299365712137,0.6081007989205772,491,45,22.840252985615365,13.365151491723145
0.7573788233234926,0.6080947193419985,491,45,22.840252985615365,13.365151491723145
0.7634582201488396,0.608088639824208,491,45,22.840252985615365,13.365151491723145
0.7695375561892261,0.6080825603672046,491,45,22.840252985615365,13.365151491723145
0.7756168314456663,0.6080764809709872,491,45,22.840252985615365,13.365151491723145
0.7816960459191432,0.6080704016355548,491,45,22.840252985615365,13.365151491723145
0.787775199610611,0.6080643223609062,491,45,22.840252985615365,13.365151491723145
0.7938542925209967,0.6080582431470407,491,45,22.840252985615365,13.365151491723145
0.7999333246512036,0.6080521639939572,491,45,22.840252985615365,13.365151491723145
0.8060122960021114,0.6080460849016547,491,45,22.840252985615365,13.365151491723145
0.8120912065745794,0.6080400058701324,491,45,22.840252985615365,13.365151491723145
0.8181700563694471,0.6080339268993894,491,45,22.840252985615365,13.365151491723145
0.8242488453875365,0.6080278479894249,491,45,22.840252985615365,13.365151491723145
0.830327573629653,0.6080217691402379,491,45,22.840252985615365,13.365151491723145
0.8364062410965868,0.6080156903518277,491,45,22.840252985615365,13.365151491723145
0.8424848477891141,0.6080096116241935,491,45,22.840252985615365,13.365151491723145
0.8485633937079978,0.6080035329573344,491,45,22.840252985615365,13.365151491723145
0.8546418788539892,0.6079974543512497,491,45,22.840252985615365,13.365151491723145
0.8607203032278283,0.6079913758059388,491,45,22.840252985615365,13.365151491723145
0.8667986668302452,0.6079852973214006,491,45,22.840252985615365,13.365151491723145
0.8728769696619602,0.6079792188976346,491,45,22.840252985615365,13.365151491723145
0.8789552117236848,0.60797314053464,491,45,22.840252985615365,13.365151491723145
0.8850333930161233,0.6079670622324161,491,45,22.840252985615365,13.365151491723145
0.891111513539972,0.6079609839909623,491,45,22.840252985615365,13.365151491723145
0.8971895732959199,0.6079549058102777,491,45,22.840252985615365,13.365151491723145
0.9032675722846508,0.6079488276903616,491,45,22.840252985615365,13.365151491723145
0.9093455105068418,0.6079427496312135,491,45,22.840252985615365,13.365151491723145
0.9154233879631649,0.6079366716328326,491,45,22.840252985615365,13.365151491723145
0.9215012046542873,0.6079305936952183,491,45,22.840252985615365,13.365151491723145
0.9275789605808714,0.6079245158183697,491,45,22.840252985615365,13.365151491723145
0.933656655743575,0.6079184380022864,491,45,22.840252985615365,13.365151491723145
0.9397342901430528,0.6079123602469676,491,45,22.840252985615365,13.365151491723145
0.9458118637799554,0.6079062825524126,491,45,22.840252985615365,13.365151491723145
0.95188937665493,0.607900204918621,491,45,22.840252985615365,13.365151491723145
0.9579668287686212,0.6078941273455918,491,45,22.840252985615365,13.365151491723145
0.9640442201216702,0.6078880498333247,491,45,22.840252985615365,13.365151491723145
0.970121550714716,0.6078819723818187,491,45,22.840252985615365,13.365151491723145
0.976198820548395,0.6078758949910734,491,45,22.840252985615365,13.365151491723145
0.9822760296233408,0.607869817661088,491,45,22.840252985615365,13.365151491723145
0.9883531779401863,0.6078637403918622,491,45,22.840252985615365,13.365151491723145
0.9944302654995613,0.607857663183395,491,45,22.840252985615365,13.365151491723145
1.0005072923020943,0.6078515860356858,491,45,22.840252985615365,13.365151491723145
1.006584258348412,0.6078455089487341,491,45,22.840252985615365,13.365151491723145
1.0126611636391403,0.6078394319225393,491,45,22.840252985615365,13.365151491723145
1.0187380081749027,0.6078333549571008,491,45,22.840252985615365,13.365151491723145
1.0248147919563215,0.6078272780524178,491,45,22.840252985615365,13.365151491723145
1.0308915149840192,0.6078212012084897,491,45,22.840252985615365,13.365151491723145
1.036968177258615,0.6078151244253159,491,45,22.840252985615365,13.365151491723145
1.0430447787807293,0.6078090477028959,491,45,22.840252985615365,13.365151491723145
1.0491213195509796,0.607802971041229,491,45,22.840252985615365,13.365151491723145
1.0551977995699846,0.6077968944403146,491,45,22.840252985615365,13.365151491723145
1.0612742188383602,0.607790817900152,491,45,22.840252985615365,13.365151491723145
1.0673505773567227,0.6077847414207406,491,45,22.840252985615365,13.365151491723145
1.073426875125688,0.6077786650020799,491,45,22.840252985615365,13.365151491723145
1.0795031121458698,0.6077725886441692,491,45,22.840252985615365,13.365151491723145
1.0855792884178836,0.6077665123470078,491,45,22.840252985615365,13.365151491723145
1.0916554039423423,0.6077604361105953,491,45,22.840252985615365,13.365151491723145
1.097731458719859,0.6077543599349309,491,45,22.840252985615365,13.365151491723145
1.1038074527510469,0.6077482838200141,491,45,22.840252985615365,13.365151491723145
1.109883386036518,0.6077422077658442,491,45,22.840252985615365,13.365151491723145
1.115959258576884,0.6077361317724206,491,45,22.840252985615365,13.365151491723145
1.1220350703727564,0.6077300558397427,491,45,22.840252985615365,13.365151491723145
1.1281108214247473,0.60772397996781,491,45,22.840252985615365,13.365151491723145
1.1341865117334669,0.6077179041566217,491,45,22.840252985615365,13.365151491723145
1.1402621412995255,0.6077118284061773,491,45,22.840252985615365,13.365151491723145
1.1463377101235341,0.6077057527164762,491,45,22.840252985615365,13.365151491723145
1.1524132182061024,0.6076996770875177,491,45,22.840252985615365,13.365151491723145
1.158488665547841,0.6076936015193013,491,45,22.840252985615365,13.365151491723145
1.1645640521493588,0.6076875260118262,491,45,22.840252985615365,13.365151491723145
1.1706393780112652,0.607681450565092,491,45,22.840252985615365,13.365151491723145
1.17671464313417,0.6076753751790981,491,45,22.840252985615365,13.365151491723145
1.1827898475186824,0.6076692998538438,491,45,22.840252985615365,13.365151491723145
1.1888649911654112,0.6076632245893283,491,45,22.840252985615365,13.365151491723145
1.1949400740749652,0.6076571493855514,491,45,22.840252985615365,13.365151491723145
1.2010150962479533,0.6076510742425122,491,45,22.840252985615365,13.365151491723145
1.2070900576849837,0.6076449991602102,491,45,22.840252985615365,13.365151491723145
1.2131649583866657,0.6076389241386446,491,45,22.840252985615365,13.365151491723145
1.2192397983536067,0.6076328491778151,491,45,22.840252985615365,13.365151491723145
1.225314577586416,0.6076267742777209,491,45,22.840252985615365,13.365151491723145
1.2313892960857007,0.6076206994383615,491,45,22.840252985615365,13.365151491723145
1.23746395385207,0.6076146246597363,491,45,22.840252985615365,13.365151491723145
1.2435385508861314,0.6076085499418444,491,45,22.840252985615365,13.365151491723145
1.2496130871884927,0.6076024752846855,491,45,22.840252985615365,13.365151491723145
1.255687562759762,0.6075964006882589,491,45,22.840252985615365,13.365151491723145
1.2617619776005473,0.607590326152564,491,45,22.840252985615365,13.365151491723145
1.267836331711456,0.6075842516776002,491,45,22.840252985615365,13.365151491723145
1.2739106250930963,0.6075781772633669,491,45,22.840252985615365,13.365151491723145
1.2799848577460753,0.6075721029098634,491,45,22.840252985615365,13.365151491723145
1.2860590296710013,0.6075660286170892,491,45,22.840252985615365,13.365151491723145
1.292133140868481,0.6075599543850437,491,45,22.840252985615365,13.365151491723145
1.298207191339123,0.6075538802137261,491,45,22.840252985615365,13.365151491723145
1.3042811810835342,0.6075478061031361,491,45,22.840252985615365,13.365151491723145
1.3103551101023223,0.6075417320532729,491,45,22.840252985615365,13.365151491723145
1.3164289783960945,0.6075356580641359,491,45,22.840252985615365,13.365151491723145
1.3225027859654581,0.6075295841357246,491,45,22.840252985615365,13.365151491723145
1.3285765328110213,0.6075235102680382,491,45,22.840252985615365,13.365151491723145
1.3346502189333906,0.6075174364610761,491,45,22.840252985615365,13.365151491723145
1.3407238443331735,0.607511362714838,491,45,22.840252985615365,13.365151491723145
1.3467974090109773,0.607505289029323,491,45,22.840252985615365,13.365151491723145
1.3528709129674097,0.6074992154045306,491,45,22.840252985615365,13.365151491723145
1.3589443562030774,0.6074931418404602,491,45,22.840252985615365,13.365151491723145
1.365017738718588,0.6074870683371111,491,45,22.840252985615365,13.365151491723145
1.3710910605145483,0.6074809948944828,491,45,22.840252985615365,13.365151491723145
1.377164321591566,0.6074749215125747,491,45,22.840252985615365,13.365151491723145
1.3832375219502484,0.607468848191386,491,45,22.840252985615365,13.365151491723145
1.389310661591202,0.6074627749309164,491,45,22.840252985615365,13.365151491723145
1.3953837405150344,0.607456701731165,491,45,22.840252985615365,13.365151491723145
1.4014567587223525,0.6074506285921314,491,45,22.840252985615365,13.365151491723145
1.4075297162137634,0.6074445555138148,491,45,22.840252985615365,13.365151491723145
1.4136026129898747,0.6074384824962148,491,45,22.840252985615365,13.365151491723145
1.4196754490512928,0.6074324095393308,491,45,22.840252985615365,13.365151491723145
1.4257482243986253,0.6074263366431619,491,45,22.840252985615365,13.365151491723145
1.4318209390324792,0.6074202638077077,491,45,22.840252985615365,13.365151491723145
1.4378935929534615,0.6074141910329678,491,45,22.840252985615365,13.365151491723145
