Vout,Iout,Irradiance,Temperature,MaxVoltage,MaxPower
0.009600487687618387,1.9201159999999997,1661,3,20.32663589427216,38.617094974759176
0.028801285540751315,1.9201159999999997,1661,3,20.32663589427216,38.617094974759176
0.0480016930464799,1.920106207500712,1661,3,20.32663589427216,38.617094974759176
0.06720164046936962,1.920087006702859,1661,3,20.32663589427216,38.617094974759176
0.08640110501867064,1.9200678062963326,1661,3,20.32663589427216,38.617094974759176
0.10560010908214369,1.9200486063508297,1661,3,20.32663589427216,38.617094974759176
0.12479867332578568,1.9200294068882005,1661,3,20.32663589427216,38.617094974759176
0.14399681682587956,1.920010207886057,1661,3,20.32663589427216,38.617094974759176
0.1631945571910968,1.9199910093237333,1661,3,20.32663589427216,38.617094974759176
0.18239191067541768,1.919971811182153,1661,3,20.32663589427216,38.617094974759176
0.2015888922823632,1.9199526134437077,1661,3,20.32663589427216,38.617094974759176
0.22078551586120754,1.919933416092143,1661,3,20.32663589427216,38.617094974759176
0.23998179419578763,1.919914219112456,1661,3,20.32663589427216,38.617094974759176
0.2591777390864794,1.919895022490797,1661,3,20.32663589427216,38.617094974759176
0.27837336142586705,1.919875826214382,1661,3,20.32663589427216,38.617094974759176
0.2975686712685897,1.919856630271411,1661,3,20.32663589427216,38.617094974759176
0.3167636778958145,1.9198374346509912,1661,3,20.32663589427216,38.617094974759176
0.33595838987474835,1.919818239343068,1661,3,20.32663589427216,38.617094974759176
0.3551528151135717,1.9197990443383603,1661,3,20.32663589427216,38.617094974759176
0.3743469609121447,1.919779849628301,1661,3,20.32663589427216,38.617094974759176
0.3935408340088121,1.9197606552049817,1661,3,20.32663589427216,38.617094974759176
0.4127344406236078,1.9197414610611025,1661,3,20.32663589427216,38.617094974759176
0.43192778649813396,1.9197222671899254,1661,3,20.32663589427216,38.617094974759176
0.45112087693237224,1.91970307358523,1661,3,20.32663589427216,38.617094974759176
0.4703137168186632,1.9196838802412748,1661,3,20.32663589427216,38.617094974759176
0.4895063106730706,1.91966468715276,1661,3,20.32663589427216,38.617094974759176
0.5086986626643326,1.919645494314793,1661,3,20.32663589427216,38.617094974759176
0.527890776640586,1.9196263017228579,1661,3,20.32663589427216,38.617094974759176
0.5470826561540331,1.919607109372786,1661,3,20.32663589427216,38.617094974759176
0.5662743044837116,1.9195879172607289,1661,3,20.32663589427216,38.617094974759176
0.5854657246565133,1.9195687253831348,1661,3,20.32663589427216,38.617094974759176
0.6046569194665832,1.9195495337367243,1661,3,20.32663589427216,38.617094974759176
0.6238478914932277,1.9195303423184706,1661,3,20.32663589427216,38.617094974759176
0.6430386431174453,1.9195111511255798,1661,3,20.32663589427216,38.617094974759176
0.6622291765371843,1.9194919601554723,1661,3,20.32663589427216,38.617094974759176
0.6814194937814267,1.9194727694057672,1661,3,20.32663589427216,38.617094974759176
0.7006095967231897,1.9194535788742666,1661,3,20.32663589427216,38.617094974759176
0.7197994870915237,1.9194343885589413,1661,3,20.32663589427216,38.617094974759176
0.7389891664825925,1.9194151984579186,1661,3,20.32663589427216,38.617094974759176
0.7581786363698951,1.9193960085694692,1661,3,20.32663589427216,38.617094974759176
0.7773678981137052,1.9193768188919973,1661,3,20.32663589427216,38.617094974759176
0.7965569529697819,1.9193576294240289,1661,3,20.32663589427216,38.617094974759176
0.8157458020974127,1.9193384401642042,1661,3,20.32663589427216,38.617094974759176
0.8349344465668339,1.9193192511112669,1661,3,20.32663589427216,38.617094974759176
0.8541228873660852,1.9193000622640584,1661,3,20.32663589427216,38.617094974759176
0.8733111254073314,1.9192808736215077,1661,3,20.32663589427216,38.617094974759176
0.8924991615327021,1.9192616851826274,1661,3,20.32663589427216,38.617094974759176
0.9116869965196794,1.919242496946505,1661,3,20.32663589427216,38.617094974759176
0.9308746310860727,1.9192233089122985,1661,3,20.32663589427216,38.617094974759176
0.9500620658946083,1.9192041210792303,1661,3,20.32663589427216,38.617094974759176
0.9692493015571706,1.9191849334465827,1661,3,20.32663589427216,38.617094974759176
0.9884363386387107,1.919165746013693,1661,3,20.32663589427216,38.617094974759176
1.0076231776608597,1.9191465587799492,1661,3,20.32663589427216,38.617094974759176
1.0268098191052613,1.9191273717447863,1661,3,20.32663589427216,38.617094974759176
1.0459962634166475,1.919108184907683,1661,3,20.32663589427216,38.617094974759176
1.0651825110056812,1.9190889982681574,1661,3,20.32663589427216,38.617094974759176
1.0843685622515735,1.9190698118257645,1661,3,20.32663589427216,38.617094974759176
1.1035544175045071,1.919050625580094,1661,3,20.32663589427216,38.617094974759176
1.1227400770878693,1.919031439530767,1661,3,20.32663589427216,38.617094974759176
1.1419255413003115,1.9190122536774326,1661,3,20.32663589427216,38.617094974759176
1.1611108104176555,1.918993068019768,1661,3,20.32663589427216,38.617094974759176
1.1802958846946467,1.918973882557474,1661,3,20.32663589427216,38.617094974759176
1.1994807643665795,1.9189546972902753,1661,3,20.32663589427216,38.617094974759176
1.2186654496507903,1.9189355122179168,1661,3,20.32663589427216,38.617094974759176
1.2378499407480414,1.9189163273401635,1661,3,20.32663589427216,38.617094974759176
1.2570342378437955,1.9188971426567978,1661,3,20.32663589427216,38.617094974759176
1.2762183411093941,1.918877958167619,1661,3,20.32663589427216,38.617094974759176
1.2954022507031409,1.9188587738724416,1661,3,20.32663589427216,38.617094974759176
1.3145859667713087,1.9188395897710946,1661,3,20.32663589427216,38.617094974759176
1.3337694894490626,1.9188204058634193,1661,3,20.32663589427216,38.617094974759176
1.352952818861316,1.9188012221492694,1661,3,20.32663589427216,38.617094974759176
1.3721359551235175,1.9187820386285102,1661,3,20.32663589427216,38.617094974759176
1.391318898342382,1.918762855301016,1661,3,20.32663589427216,38.617094974759176
1.41050164861656,1.9187436721666724,1661,3,20.32663589427216,38.617094974759176
1.4296842060372599,1.9187244892253719,1661,3,20.32663589427216,38.617094974759176
1.4488665706888189,1.9187053064770159,1661,3,20.32663589427216,38.617094974759176
1.4680487426492341,1.9186861239215136,1661,3,20.32663589427216,38.617094974759176
1.4872307219906478,1.9186669415587803,1661,3,20.32663589427216,38.617094974759176
1.506412508779799,1.918647759388738,1661,3,20.32663589427216,38.617094974759176
1.5255941030784397,1.918628577411315,1661,3,20.32663589427216,38.617094974759176
1.5447755049437184,1.918609395626444,1661,3,20.32663589427216,38.617094974759176
1.5639567144285331,1.9185902140340636,1661,3,20.32663589427216,38.617094974759176
1.5831377315818598,1.9185710326341163,1661,3,20.32663589427216,38.617094974759176
1.6023185564490536,1.9185518514265498,1661,3,20.32663589427216,38.617094974759176
1.6214991890721278,1.9185326704113146,1661,3,20.32663589427216,38.617094974759176
1.6406796294900097,1.9185134895883655,1661,3,20.32663589427216,38.617094974759176
1.65985987773878,1.9184943089576605,1661,3,20.32663589427216,38.617094974759176
1.6790399338518898,1.9184751285191608,1661,3,20.32663589427216,38.617094974759176
1.6982197978603646,1.91845594827283,1661,3,20.32663589427216,38.617094974759176
1.7173994697929904,1.918436768218635,1661,3,20.32663589427216,38.617094974759176
1.7365789496764843,1.9184175883565444,1661,3,20.32663589427216,38.617094974759176
1.755758237535658,1.91839840868653,1661,3,20.32663589427216,38.617094974759176
1.774937333393559,1.9183792292085644,1661,3,20.32663589427216,38.617094974759176
1.7941162372716104,1.9183600499226232,1661,3,20.32663589427216,38.617094974759176
1.8132949491897337,1.9183408708286833,1661,3,20.32663589427216,38.617094974759176
1.8324734691664657,1.9183216919267232,1661,3,20.32663589427216,38.617094974759176
1.8516517972190643,1.9183025132167228,1661,3,20.32663589427216,38.617094974759176
1.870829933363607,1.918283334698664,1661,3,20.32663589427216,38.617094974759176
1.890007877615081,1.9182641563725293,1661,3,20.32663589427216,38.617094974759176
1.909185629987469,1.9182449782383026,1661,3,20.32663589427216,38.617094974759176
1.9283631904938245,1.918225800295969,1661,3,20.32663589427216,38.617094974759176
1.9475405591463446,1.9182066225455143,1661,3,20.32663589427216,38.617094974759176
1.9667177359564356,1.9181874449869258,1661,3,20.32663589427216,38.617094974759176
1.9858947209347726,1.9181682676201912,1661,3,20.32663589427216,38.617094974759176
2.005071514091358,1.9181490904452987,1661,3,20.32663589427216,38.617094974759176
2.024248115435571,1.9181299134622383,1661,3,20.32663589427216,38.617094974759176
2.043424524976217,1.9181107366709993,1661,3,20.32663589427216,38.617094974759176
2.062600742721573,1.9180915600715729,1661,3,20.32663589427216,38.617094974759176
2.0817767686794237,1.9180723836639497,1661,3,20.32663589427216,38.617094974759176
2.1009526028571037,1.918053207448122,1661,3,20.32663589427216,38.617094974759176
2.1201282452615313,1.918034031424082,1661,3,20.32663589427216,38.617094974759176
2.1393036958992386,1.918014855591822,1661,3,20.32663589427216,38.617094974759176
2.158478954776405,1.9179956799513351,1661,3,20.32663589427216,38.617094974759176
2.1776540218988782,1.917976504502615,1661,3,20.32663589427216,38.617094974759176
2.196828897272207,1.9179573292456553,1661,3,20.32663589427216,38.617094974759176
2.216003580901659,1.9179381541804503,1661,3,20.32663589427216,38.617094974759176
2.2351780727922423,1.9179189793069946,1661,3,20.32663589427216,38.617094974759176
2.2543523729487314,1.9178998046252826,1661,3,20.32663589427216,38.617094974759176
2.2735264813756775,1.9178806301353095,1661,3,20.32663589427216,38.617094974759176
2.2927003980774296,1.9178614558370706,1661,3,20.32663589427216,38.617094974759176
2.3118741230581503,1.917842281730561,1661,3,20.32663589427216,38.617094974759176
2.331047656321829,1.9178231078157768,1661,3,20.32663589427216,38.617094974759176
2.3502209978722957,1.9178039340927133,1661,3,20.32663589427216,38.617094974759176
2.369394147713232,1.9177847605613672,1661,3,20.32663589427216,38.617094974759176
2.3885671058481863,1.917765587221734,1661,3,20.32663589427216,38.617094974759176
2.4077398722805787,1.9177464140738105,1661,3,20.32663589427216,38.617094974759176
2.426912447013715,1.9177272411175927,1661,3,20.32663589427216,38.617094974759176
2.446084830050794,1.9177080683530778,1661,3,20.32663589427216,38.617094974759176
2.4652570213949145,1.9176888957802618,1661,3,20.32663589427216,38.617094974759176
2.4844290210490874,1.917669723399142,1661,3,20.32663589427216,38.617094974759176
2.5036008290162353,1.9176505512097153,1661,3,20.32663589427216,38.617094974759176
2.5227724452992066,1.9176313792119783,1661,3,20.32663589427216,38.617094974759176
2.541943869900776,1.9176122074059283,1661,3,20.32663589427216,38.617094974759176
2.5611151028236536,1.9175930357915625,1661,3,20.32663589427216,38.617094974759176
2.5802861440704876,1.9175738643688782,1661,3,20.32663589427216,38.617094974759176
2.5994569936438694,1.9175546931378724,1661,3,20.32663589427216,38.617094974759176
2.6186276515463396,1.9175355220985428,1661,3,20.32663589427216,38.617094974759176
2.637798117780389,1.9175163512508866,1661,3,20.32663589427216,38.617094974759176
2.656968392348467,1.9174971805949013,1661,3,20.32663589427216,38.617094974759176
2.6761384752529795,1.9174780101305842,1661,3,20.32663589427216,38.617094974759176
2.6953083664962953,1.917458839857933,1661,3,20.32663589427216,38.617094974759176
2.7144780660807486,1.9174396697769458,1661,3,20.32663589427216,38.617094974759176
2.7336475740086414,1.9174204998876194,1661,3,20.32663589427216,38.617094974759176
2.752816890282245,1.917401330189952,1661,3,20.32663589427216,38.617094974759176
2.771986014903805,1.9173821606839412,1661,3,20.32663589427216,38.617094974759176
2.7911549478755413,1.9173629913695844,1661,3,20.32663589427216,38.617094974759176
2.8103236891996497,1.91734382224688,1661,3,20.32663589427216,38.617094974759176
2.829492238878305,1.917324653315825,1661,3,20.32663589427216,38.617094974759176
2.84866059691366,1.917305484576418,1661,3,20.32663589427216,38.617094974759176
2.867828763307853,1.9172863160286562,1661,3,20.32663589427216,38.617094974759176
2.8869967380630035,1.9172671476725376,1661,3,20.32663589427216,38.617094974759176
2.906164521181214,1.9172479795080604,1661,3,20.32663589427216,38.617094974759176
2.925332112664574,1.9172288115352218,1661,3,20.32663589427216,38.617094974759176
2.944499512515159,1.9172096437540205,1661,3,20.32663589427216,38.617094974759176
2.963666720735033,1.917190476164454,1661,3,20.32663589427216,38.617094974759176
2.982833737326247,1.91717130876652,1661,3,20.32663589427216,38.617094974759176
3.002000562290844,1.917152141560217,1661,3,20.32663589427216,38.617094974759176
3.021167195630855,1.9171329745455425,1661,3,20.32663589427216,38.617094974759176
3.040333637348303,1.9171138077224947,1661,3,20.32663589427216,38.617094974759176
3.0594998874452033,1.9170946410910714,1661,3,20.32663589427216,38.617094974759176
3.078665945923562,1.9170754746512706,1661,3,20.32663589427216,38.617094974759176
3.0978318127853792,1.9170563084030905,1661,3,20.32663589427216,38.617094974759176
3.11699748803265,1.9170371423465287,1661,3,20.32663589427216,38.617094974759176
3.13616297166736,1.9170179764815836,1661,3,20.32663589427216,38.617094974759176
3.155328263691492,1.9169988108082527,1661,3,20.32663589427216,38.617094974759176
3.1744933641070228,1.9169796453265346,1661,3,20.32663589427216,38.617094974759176
3.193658272915924,1.916960480036427,1661,3,20.32663589427216,38.617094974759176
3.212822990120164,1.9169413149379282,1661,3,20.32663589427216,38.617094974759176
3.2319875157217064,1.9169221500310358,1661,3,20.32663589427216,38.617094974759176
3.251151849722512,1.916902985315748,1661,3,20.32663589427216,38.617094974759176
3.270315992124536,1.916883820792063,1661,3,20.32663589427216,38.617094974759176
3.2894799429297326,1.9168646564599787,1661,3,20.32663589427216,38.617094974759176
3.3086437021400514,1.916845492319493,1661,3,20.32663589427216,38.617094974759176
3.327807269757441,1.9168263283706044,1661,3,20.32663589427216,38.617094974759176
3.3469706457838457,1.9168071646133105,1661,3,20.32663589427216,38.617094974759176
3.3661338302212087,1.9167880010476095,1661,3,20.32663589427216,38.617094974759176
3.385296823071472,1.9167688376734995,1661,3,20.32663589427216,38.617094974759176
3.4044596243365732,1.9167496744909784,1661,3,20.32663589427216,38.617094974759176
3.42362223401845,1.9167305115000444,1661,3,20.32663589427216,38.617094974759176
3.4427846521190366,1.9167113487006957,1661,3,20.32663589427216,38.617094974759176
3.461946878640268,1.91669218609293,1661,3,20.32663589427216,38.617094974759176
3.4811089135840763,1.9166730236767457,1661,3,20.32663589427216,38.617094974759176
3.500270756952392,1.916653861452141,1661,3,20.32663589427216,38.617094974759176
3.5194324087471447,1.9166346994191132,1661,3,20.32663589427216,38.617094974759176
3.538593868970264,1.9166155375776612,1661,3,20.32663589427216,38.617094974759176
3.557755137623677,1.9165963759277826,1661,3,20.32663589427216,38.617094974759176
3.576916214709311,1.9165772144694757,1661,3,20.32663589427216,38.617094974759176
3.59607710022909,1.9165580532027384,1661,3,20.32663589427216,38.617094974759176
3.6152377941849414,1.916538892127569,1661,3,20.32663589427216,38.617094974759176
3.634398296578786,1.9165197312439652,1661,3,20.32663589427216,38.617094974759176
3.653558607412551,1.9165005705519256,1661,3,20.32663589427216,38.617094974759176
3.6727187266881565,1.9164814100514478,1661,3,20.32663589427216,38.617094974759176
3.691878654407526,1.91646224974253,1661,3,20.32663589427216,38.617094974759176
3.711038390572581,1.9164430896251705,1661,3,20.32663589427216,38.617094974759176
3.7301979351852412,1.9164239296993673,1661,3,20.32663589427216,38.617094974759176
3.749357288247429,1.916404769965118,1661,3,20.32663589427216,38.617094974759176
3.768516449761063,1.9163856104224215,1661,3,20.32663589427216,38.617094974759176
3.787675419728064,1.9163664510712752,1661,3,20.32663589427216,38.617094974759176
3.8068341981503515,1.9163472919116775,1661,3,20.32663589427216,38.617094974759176
3.8259927850298445,1.9163281329436266,1661,3,20.32663589427216,38.617094974759176
3.8451511803684606,1.9163089741671202,1661,3,20.32663589427216,38.617094974759176
3.86430938416812,1.9162898155821566,1661,3,20.32663589427216,38.617094974759176
3.883467396430739,1.9162706571887338,1661,3,20.32663589427216,38.617094974759176
3.9026252171582363,1.91625149898685,1661,3,20.32663589427216,38.617094974759176
3.9217828463525297,1.9162323409765032,1661,3,20.32663589427216,38.617094974759176
3.940940284015536,1.9162131831576916,1661,3,20.32663589427216,38.617094974759176
3.9600975301491723,1.916194025530413,1661,3,20.32663589427216,38.617094974759176
3.9792545847553566,1.9161748680946658,1661,3,20.32663589427216,38.617094974759176
3.998411447836004,1.916155710850448,1661,3,20.32663589427216,38.617094974759176
4.017568119393033,1.9161365537977575,1661,3,20.32663589427216,38.617094974759176
4.036724599428359,1.9161173969365926,1661,3,20.32663589427216,38.617094974759176
4.055880887943897,1.9160982402669513,1661,3,20.32663589427216,38.617094974759176
4.075036984941566,1.9160790837888317,1661,3,20.32663589427216,38.617094974759176
4.094192890423281,1.9160599275022319,1661,3,20.32663589427216,38.617094974759176
4.113348604390956,1.9160407714071497,1661,3,20.32663589427216,38.617094974759176
4.13250412684651,1.9160216155035836,1661,3,20.32663589427216,38.617094974759176
4.151659457791857,1.9160024597915317,1661,3,20.32663589427216,38.617094974759176
4.170814597228913,1.9159833042709917,1661,3,20.32663589427216,38.617094974759176
4.189969545159592,1.9159641489419619,1661,3,20.32663589427216,38.617094974759176
4.209124301585811,1.9159449938044404,1661,3,20.32663589427216,38.617094974759176
4.228278866509484,1.9159258388584253,1661,3,20.32663589427216,38.617094974759176
4.247433239932528,1.9159066841039145,1661,3,20.32663589427216,38.617094974759176
4.266587421856858,1.9158875295409064,1661,3,20.32663589427216,38.617094974759176
4.285741412284389,1.9158683751693988,1661,3,20.32663589427216,38.617094974759176
4.304895211217034,1.9158492209893898,1661,3,20.32663589427216,38.617094974759176
4.324048818656712,1.9158300670008779,1661,3,20.32663589427216,38.617094974759176
4.343202234605332,1.9158109132038605,1661,3,20.32663589427216,38.617094974759176
4.362355459064815,1.9157917595983363,1661,3,20.32663589427216,38.617094974759176
4.381508492037073,1.915772606184303,1661,3,20.32663589427216,38.617094974759176
4.40066133352402,1.915753452961759,1661,3,20.32663589427216,38.617094974759176
4.419813983527573,1.915734299930702,1661,3,20.32663589427216,38.617094974759176
4.438966442049645,1.9157151470911304,1661,3,20.32663589427216,38.617094974759176
4.45811870909215,1.915695994443042,1661,3,20.32663589427216,38.617094974759176
4.477270784657005,1.9156768419864354,1661,3,20.32663589427216,38.617094974759176
4.496422668746123,1.915657689721308,1661,3,20.32663589427216,38.617094974759176
4.51557436136142,1.9156385376476586,1661,3,20.32663589427216,38.617094974759176
4.534725862504808,1.9156193857654846,1661,3,20.32663589427216,38.617094974759176
4.553877172178203,1.9156002340747846,1661,3,20.32663589427216,38.617094974759176
4.57302829038352,1.9155810825755564,1661,3,20.32663589427216,38.617094974759176
4.592179217122672,1.915561931267798,1661,3,20.32663589427216,38.617094974759176
4.611329952397573,1.915542780151508,1661,3,20.32663589427216,38.617094974759176
4.630480496210139,1.915523629226684,1661,3,20.32663589427216,38.617094974759176
