Vout,Iout,Irradiance,Temperature,MaxVoltage,MaxPower
0.005030461630176632,1.0061019999999998,881,-4,19.79439463149409,19.52375039759837
0.015091291872533212,1.0061019999999998,881,-4,19.79439463149409,19.52375039759837
0.025151917580734456,1.0060968689281697,881,-4,19.79439463149409,19.52375039759837
0.035212302214821245,1.0060868080979273,881,-4,19.79439463149409,19.52375039759837
0.045272433832901006,1.0060767474727321,881,-4,19.79439463149409,19.52375039759837
0.05533232416570818,1.0060666870891042,881,-4,19.79439463149409,19.52375039759837
0.06539198404180767,1.006056626958492,881,-4,19.79439463149409,19.52375039759837
0.0754514234567865,1.0060465670691654,881,-4,19.79439463149409,19.52375039759837
0.08551065163723279,1.0060365074102953,881,-4,19.79439463149409,19.52375039759837
0.09556967709990388,1.0060264479718863,881,-4,19.79439463149409,19.52375039759837
0.10562850770634177,1.0060163887447118,881,-4,19.79439463149409,19.52375039759837
0.11568715071328636,1.006006329720255,881,-4,19.79439463149409,19.52375039759837
0.12574561281921,1.0059962708906547,881,-4,19.79439463149409,19.52375039759837
0.13580390020727134,1.0059862122486536,881,-4,19.79439463149409,19.52375039759837
0.14586201858496445,1.0059761537875536,881,-4,19.79439463149409,19.52375039759837
0.15591997322071718,1.0059660955011713,881,-4,19.79439463149409,19.52375039759837
0.1659777689776736,1.0059560373837995,881,-4,19.79439463149409,19.52375039759837
0.17603541034487713,1.0059459794301695,881,-4,19.79439463149409,19.52375039759837
0.18609290146605453,1.0059359216354185,881,-4,19.79439463149409,19.52375039759837
0.1961502461661851,1.005925863995057,881,-4,19.79439463149409,19.52375039759837
0.2062074479760254,1.0059158065049416,881,-4,19.79439463149409,19.52375039759837
0.21626451015474749,1.0059057491612473,881,-4,19.79439463149409,19.52375039759837
0.22632143571083493,1.0058956919604432,881,-4,19.79439463149409,19.52375039759837
0.23637822742137124,1.0058856348992702,881,-4,19.79439463149409,19.52375039759837
0.24643488784984385,1.0058755779747197,881,-4,19.79439463149409,19.52375039759837
0.2564914193625791,1.005865521184015,881,-4,19.79439463149409,19.52375039759837
0.26654782414391137,1.0058554645245923,881,-4,19.79439463149409,19.52375039759837
0.2766041042101868,1.005845407994085,881,-4,19.79439463149409,19.52375039759837
0.2866602614226875,1.0058353515903096,881,-4,19.79439463149409,19.52375039759837
0.2967162974995633,1.0058252953112488,881,-4,19.79439463149409,19.52375039759837
0.30677221402684407,1.005815239155042,881,-4,19.79439463149409,19.52375039759837
0.3168280124686053,1.0058051831199708,881,-4,19.79439463149409,19.52375039759837
0.32688369417635166,1.005795127204449,881,-4,19.79439463149409,19.52375039759837
0.3369392603976782,1.005785071407013,881,-4,19.79439463149409,19.52375039759837
0.34699471228426537,1.0057750157263108,881,-4,19.79439463149409,19.52375039759837
0.3570500508992588,1.005764960161095,881,-4,19.79439463149409,19.52375039759837
0.3671052772240815,1.005754904710214,881,-4,19.79439463149409,19.52375039759837
0.3771603921647214,1.0057448493726047,881,-4,19.79439463149409,19.52375039759837
0.3872153965575358,1.0057347941472852,881,-4,19.79439463149409,19.52375039759837
0.3972702911746084,1.0057247390333501,881,-4,19.79439463149409,19.52375039759837
0.4073250767286951,1.005714684029963,881,-4,19.79439463149409,19.52375039759837
0.4173797538777885,1.0057046291363514,881,-4,19.79439463149409,19.52375039759837
0.42743432322933145,1.0056945743518027,881,-4,19.79439463149409,19.52375039759837
0.4374887853441067,1.0056845196756592,881,-4,19.79439463149409,19.52375039759837
0.4475431407398267,1.005674465107313,881,-4,19.79439463149409,19.52375039759837
0.45759738989444765,1.0056644106462038,881,-4,19.79439463149409,19.52375039759837
0.46765153324922815,1.0056543562918134,881,-4,19.79439463149409,19.52375039759837
0.4777055712115533,1.0056443020436643,881,-4,19.79439463149409,19.52375039759837
0.4877595041575404,1.005634247901315,881,-4,19.79439463149409,19.52375039759837
0.49781333243444525,1.005624193864358,881,-4,19.79439463149409,19.52375039759837
0.5078670563628825,1.0056141399324174,881,-4,19.79439463149409,19.52375039759837
0.517920676238875,1.005604086105146,881,-4,19.79439463149409,19.52375039759837
0.5279741923357475,1.005594032382223,881,-4,19.79439463149409,19.52375039759837
0.538027604905871,1.0055839787633523,881,-4,19.79439463149409,19.52375039759837
0.5480809141822764,1.005573925248261,881,-4,19.79439463149409,19.52375039759837
0.5581341203801424,1.0055638718366962,881,-4,19.79439463149409,19.52375039759837
0.5681872236981683,1.005553818528425,881,-4,19.79439463149409,19.52375039759837
0.5782402243198429,1.0055437653232324,881,-4,19.79439463149409,19.52375039759837
0.5882931224146142,1.0055337122209198,881,-4,19.79439463149409,19.52375039759837
0.5983459181389698,1.0055236592213035,881,-4,19.79439463149409,19.52375039759837
0.6083986116374344,1.005513606324214,881,-4,19.79439463149409,19.52375039759837
0.6184512030434898,1.005503553529495,881,-4,19.79439463149409,19.52375039759837
0.6285036924804254,1.0054935008370018,881,-4,19.79439463149409,19.52375039759837
0.6385560800621208,1.005483448246601,881,-4,19.79439463149409,19.52375039759837
0.6486083658937719,1.0054733957581694,881,-4,19.79439463149409,19.52375039759837
0.6586605500725572,1.005463343371593,881,-4,19.79439463149409,19.52375039759837
0.6687126326882559,1.0054532910867664,881,-4,19.79439463149409,19.52375039759837
0.6787646138238165,1.005443238903593,881,-4,19.79439463149409,19.52375039759837
0.6888164935558824,1.0054331868219826,881,-4,19.79439463149409,19.52375039759837
0.698868271955278,1.005423134841852,881,-4,19.79439463149409,19.52375039759837
0.7089199490874548,1.0054130829631254,881,-4,19.79439463149409,19.52375039759837
0.7189715250129061,1.0054030311857312,881,-4,19.79439463149409,19.52375039759837
0.7290229997875479,1.0053929795096042,881,-4,19.79439463149409,19.52375039759837
0.7390743734630713,1.0053829279346838,881,-4,19.79439463149409,19.52375039759837
0.7491256460872673,1.0053728764609142,881,-4,19.79439463149409,19.52375039759837
0.7591768177043273,1.005362825088244,881,-4,19.79439463149409,19.52375039759837
0.76922788835512,1.005352773816625,881,-4,19.79439463149409,19.52375039759837
0.7792788580774466,1.005342722646013,881,-4,19.79439463149409,19.52375039759837
0.7893297269062771,1.0053326715763673,881,-4,19.79439463149409,19.52375039759837
0.7993804948739681,1.0053226206076502,881,-4,19.79439463149409,19.52375039759837
0.8094311620104644,1.0053125697398264,881,-4,19.79439463149409,19.52375039759837
0.8194817283434833,1.0053025189728637,881,-4,19.79439463149409,19.52375039759837
0.8295321938986875,1.0052924683067324,881,-4,19.79439463149409,19.52375039759837
0.8395825586998419,1.0052824177414044,881,-4,19.79439463149409,19.52375039759837
0.8496328227689607,1.0052723672768542,881,-4,19.79439463149409,19.52375039759837
0.8596829861264411,1.0052623169130581,881,-4,19.79439463149409,19.52375039759837
0.8697330487911885,1.0052522666499941,881,-4,19.79439463149409,19.52375039759837
0.8797830107807307,1.0052422164876418,881,-4,19.79439463149409,19.52375039759837
0.8898328721113249,1.005232166425982,881,-4,19.79439463149409,19.52375039759837
0.8998826327980533,1.0052221164649975,881,-4,19.79439463149409,19.52375039759837
0.9099322928549163,1.0052120666046718,881,-4,19.79439463149409,19.52375039759837
0.9199818522949138,1.0052020168449902,881,-4,19.79439463149409,19.52375039759837
0.9300313111301226,1.0051919671859382,881,-4,19.79439463149409,19.52375039759837
0.940080669371768,1.0051819176275032,881,-4,19.79439463149409,19.52375039759837
0.9501299270302885,1.005171868169673,881,-4,19.79439463149409,19.52375039759837
0.9601790841153969,1.0051618188124363,881,-4,19.79439463149409,19.52375039759837
0.9702281406361359,1.0051517695557828,881,-4,19.79439463149409,19.52375039759837
0.9802770966009299,1.0051417203997026,881,-4,19.79439463149409,19.52375039759837
0.9903259520176322,1.0051316713441867,881,-4,19.79439463149409,19.52375039759837
1.000374706893569,1.0051216223892268,881,-4,19.79439463149409,19.52375039759837
1.0104233612355806,1.005111573534815,881,-4,19.79439463149409,19.52375039759837
1.0204719150500572,1.005101524780944,881,-4,19.79439463149409,19.52375039759837
1.030520368342976,1.0050914761276069,881,-4,19.79439463149409,19.52375039759837
1.0405687211199306,1.0050814275747972,881,-4,19.79439463149409,19.52375039759837
1.0506169733861617,1.0050713791225092,881,-4,19.79439463149409,19.52375039759837
1.0606651251465844,1.0050613307707372,881,-4,19.79439463149409,19.52375039759837
1.0707131764058122,1.0050512825194757,881,-4,19.79439463149409,19.52375039759837
1.0807611271681816,1.00504123436872,881,-4,19.79439463149409,19.52375039759837
1.0908089774377723,1.0050311863184658,881,-4,19.79439463149409,19.52375039759837
1.1008567272184275,1.0050211383687082,881,-4,19.79439463149409,19.52375039759837
1.1109043765137718,1.0050110905194434,881,-4,19.79439463149409,19.52375039759837
1.1209519253272286,1.0050010427706675,881,-4,19.79439463149409,19.52375039759837
1.1309993736620345,1.004990995122377,881,-4,19.79439463149409,19.52375039759837
1.1410467215212552,1.0049809475745684,881,-4,19.79439463149409,19.52375039759837
1.1510939689077968,1.0049709001272382,881,-4,19.79439463149409,19.52375039759837
1.1611411158244198,1.0049608527803837,881,-4,19.79439463149409,19.52375039759837
1.1711881622737492,1.004950805534002,881,-4,19.79439463149409,19.52375039759837
1.1812351082582855,1.00494075838809,881,-4,19.79439463149409,19.52375039759837
1.1912819537804138,1.0049307113426456,881,-4,19.79439463149409,19.52375039759837
1.2013286988424134,1.0049206643976658,881,-4,19.79439463149409,19.52375039759837
1.2113753434464651,1.0049106175531484,881,-4,19.79439463149409,19.52375039759837
1.2214218875946592,1.004900570809091,881,-4,19.79439463149409,19.52375039759837
1.231468331289002,1.0048905241654915,881,-4,19.79439463149409,19.52375039759837
1.2415146745314238,1.0048804776223481,881,-4,19.79439463149409,19.52375039759837
1.2515609173237832,1.0048704311796584,881,-4,19.79439463149409,19.52375039759837
1.2616070596678723,1.0048603848374207,881,-4,19.79439463149409,19.52375039759837
1.2716531015654233,1.0048503385956329,881,-4,19.79439463149409,19.52375039759837
1.281699043018112,1.0048402924542934,881,-4,19.79439463149409,19.52375039759837
1.2917448840275632,1.0048302464134005,881,-4,19.79439463149409,19.52375039759837
1.3017906245953528,1.0048202004729525,881,-4,19.79439463149409,19.52375039759837
1.3118362647230135,1.0048101546329475,881,-4,19.79439463149409,19.52375039759837
1.3218818044120377,1.0048001088933844,881,-4,19.79439463149409,19.52375039759837
1.331927243663879,1.0047900632542615,881,-4,19.79439463149409,19.52375039759837
1.341972582479957,1.004780017715577,881,-4,19.79439463149409,19.52375039759837
1.3520178208616602,1.0047699722773296,881,-4,19.79439463149409,19.52375039759837
1.3620629588103457,1.0047599269395182,881,-4,19.79439463149409,19.52375039759837
1.372107996327345,1.004749881702141,881,-4,19.79439463149409,19.52375039759837
1.382152933413964,1.0047398365651967,881,-4,19.79439463149409,19.52375039759837
1.3921977700714847,1.0047297915286844,881,-4,19.79439463149409,19.52375039759837
1.4022425063011683,1.004719746592602,881,-4,19.79439463149409,19.52375039759837
1.4122871421042562,1.0047097017569493,881,-4,19.79439463149409,19.52375039759837
1.4223316774819716,1.004699657021724,881,-4,19.79439463149409,19.52375039759837
1.4323761124355203,1.0046896123869253,881,-4,19.79439463149409,19.52375039759837
1.4424204469660935,1.0046795678525522,881,-4,19.79439463149409,19.52375039759837
1.4524646810748665,1.0046695234186032,881,-4,19.79439463149409,19.52375039759837
1.4625088147630025,1.004659479085077,881,-4,19.79439463149409,19.52375039759837
1.472552848031653,1.0046494348519726,881,-4,19.79439463149409,19.52375039759837
1.482596780881957,1.004639390719289,881,-4,19.79439463149409,19.52375039759837
1.492640613315043,1.0046293466870246,881,-4,19.79439463149409,19.52375039759837
1.5026843453320307,1.0046193027551789,881,-4,19.79439463149409,19.52375039759837
1.5127279769340303,1.00460925892375,881,-4,19.79439463149409,19.52375039759837
1.5227715081221447,1.0045992151927374,881,-4,19.79439463149409,19.52375039759837
1.5328149388974683,1.00458917156214,881,-4,19.79439463149409,19.52375039759837
1.5428582692610886,1.0045791280319563,881,-4,19.79439463149409,19.52375039759837
1.552901499214087,1.0045690846021853,881,-4,19.79439463149409,19.52375039759837
1.5629446287575381,1.004559041272826,881,-4,19.79439463149409,19.52375039759837
1.5729876578925126,1.0045489980438773,881,-4,19.79439463149409,19.52375039759837
1.583030586620075,1.004538954915338,881,-4,19.79439463149409,19.52375039759837
1.5930734149412844,1.0045289118872076,881,-4,19.79439463149409,19.52375039759837
1.6031161428571972,1.0045188689594842,881,-4,19.79439463149409,19.52375039759837
1.6131587703688652,1.0045088261321673,881,-4,19.79439463149409,19.52375039759837
1.623201297477336,1.0044987834052557,881,-4,19.79439463149409,19.52375039759837
1.6332437241836544,1.0044887407787484,881,-4,19.79439463149409,19.52375039759837
1.6432860504888613,1.0044786982526441,881,-4,19.79439463149409,19.52375039759837
1.653328276393996,1.004468655826942,881,-4,19.79439463149409,19.52375039759837
1.663370401900094,1.0044586135016411,881,-4,19.79439463149409,19.52375039759837
1.6734124270081887,1.0044485712767401,881,-4,19.79439463149409,19.52375039759837
1.6834543517193106,1.0044385291522384,881,-4,19.79439463149409,19.52375039759837
1.6934961760344893,1.0044284871281346,881,-4,19.79439463149409,19.52375039759837
1.7035378999547515,1.0044184452044276,881,-4,19.79439463149409,19.52375039759837
1.713579523481122,1.0044084033811167,881,-4,19.79439463149409,19.52375039759837
1.723621046614625,1.0043983616582006,881,-4,19.79439463149409,19.52375039759837
1.733662469356282,1.0043883200356785,881,-4,19.79439463149409,19.52375039759837
1.7437037917071148,1.004378278513549,881,-4,19.79439463149409,19.52375039759837
1.7537450136681412,1.0043682370918114,881,-4,19.79439463149409,19.52375039759837
1.76378613524038,1.0043581957704648,881,-4,19.79439463149409,19.52375039759837
1.7738271564248478,1.0043481545495079,881,-4,19.79439463149409,19.52375039759837
1.7838680772225608,1.00433811342894,881,-4,19.79439463149409,19.52375039759837
1.7939088976345332,1.0043280724087595,881,-4,19.79439463149409,19.52375039759837
1.80394961766178,1.004318031488966,881,-4,19.79439463149409,19.52375039759837
1.813990237305314,1.004307990669558,881,-4,19.79439463149409,19.52375039759837
1.8240307565661482,1.004297949950535,881,-4,19.79439463149409,19.52375039759837
1.8340711754452936,1.0042879093318955,881,-4,19.79439463149409,19.52375039759837
1.844111493943762,1.0042778688136387,881,-4,19.79439463149409,19.52375039759837
1.8541517120625637,1.0042678283957636,881,-4,19.79439463149409,19.52375039759837
1.8641918298027085,1.0042577880782693,881,-4,19.79439463149409,19.52375039759837
1.8742318471652064,1.0042477478611544,881,-4,19.79439463149409,19.52375039759837
1.8842717641510662,1.0042377077444182,881,-4,19.79439463149409,19.52375039759837
1.8943115807612967,1.00422766772806,881,-4,19.79439463149409,19.52375039759837
1.9043512969969059,1.004217627812078,881,-4,19.79439463149409,19.52375039759837
1.9143909128589018,1.0042075879964718,881,-4,19.79439463149409,19.52375039759837
1.9244304283482918,1.0041975482812402,881,-4,19.79439463149409,19.52375039759837
1.9344698434660832,1.004187508666382,881,-4,19.79439463149409,19.52375039759837
1.9445091582132823,1.0041774691518968,881,-4,19.79439463149409,19.52375039759837
1.9545483725908965,1.004167429737783,881,-4,19.79439463149409,19.52375039759837
1.964587486599932,1.0041573904240397,881,-4,19.79439463149409,19.52375039759837
1.9746265002413945,1.004147351210666,881,-4,19.79439463149409,19.52375039759837
1.9846654135162902,1.0041373120976609,881,-4,19.79439463149409,19.52375039759837
1.9947042264256252,1.0041272730850233,881,-4,19.79439463149409,19.52375039759837
2.004742938970405,1.0041172341727522,881,-4,19.79439463149409,19.52375039759837
2.014781551151634,1.004107195360847,881,-4,19.79439463149409,19.52375039759837
2.0248200629703175,1.004097156649306,881,-4,19.79439463149409,19.52375039759837
2.034858474427462,1.0040871180381286,881,-4,19.79439463149409,19.52375039759837
2.044896785524071,1.004077079527314,881,-4,19.79439463149409,19.52375039759837
2.05493499626115,1.0040670411168606,881,-4,19.79439463149409,19.52375039759837
2.064973106639703,1.004057002806768,881,-4,19.79439463149409,19.52375039759837
2.0750111166607357,1.0040469645970345,881,-4,19.79439463149409,19.52375039759837
2.085049026325251,1.0040369264876599,881,-4,19.79439463149409,19.52375039759837
2.0950868356342536,1.0040268884786427,881,-4,19.79439463149409,19.52375039759837
2.105124544588749,1.004016850569982,881,-4,19.79439463149409,19.52375039759837
2.11516215318974,1.0040068127616768,881,-4,19.79439463149409,19.52375039759837
2.125199661438232,1.003996775053726,881,-4,19.79439463149409,19.52375039759837
2.1352370693352283,1.0039867374461289,881,-4,19.79439463149409,19.52375039759837
2.145274376881733,1.0039766999388842,881,-4,19.79439463149409,19.52375039759837
2.1553115840787496,1.003966662531991,881,-4,19.79439463149409,19.52375039759837
2.1653486909272823,1.0039566252254482,881,-4,19.79439463149409,19.52375039759837
2.1753856974283345,1.0039465880192548,881,-4,19.79439463149409,19.52375039759837
2.1854226035829103,1.00393655091341,881,-4,19.79439463149409,19.52375039759837
2.1954594093920137,1.0039265139079128,881,-4,19.79439463149409,19.52375039759837
2.205496114856648,1.0039164770027618,881,-4,19.79439463149409,19.52375039759837
2.2155327199778174,1.0039064401979565,881,-4,19.79439463149409,19.52375039759837
2.2255692247565237,1.0038964034934954,881,-4,19.79439463149409,19.52375039759837
2.2356056291937727,1.003886366889378,881,-4,19.79439463149409,19.52375039759837
2.245641933290566,1.0038763303856029,881,-4,19.79439463149409,19.52375039759837
2.255678137047908,1.0038662939821694,881,-4,19.79439463149409,19.52375039759837
2.2657142404668025,1.0038562576790762,881,-4,19.79439463149409,19.52375039759837
2.2757502435482517,1.0038462214763226,881,-4,19.79439463149409,19.52375039759837
2.28578614629326,1.0038361853739073,881,-4,19.79439463149409,19.52375039759837
2.2958219487028297,1.0038261493718295,881,-4,19.79439463149409,19.52375039759837
2.3058576507779662,1.003816113470088,881,-4,19.79439463149409,19.52375039759837
2.31589325251967,1.0038060776686821,881,-4,19.79439463149409,19.52375039759837
2.325928753928946,1.0037960419676104,881,-4,19.79439463149409,19.52375039759837
2.3359641550067973,1.0037860063668724,881,-4,19.79439463149409,19.52375039759837
2.3459994557542267,1.0037759708664666,881,-4,19.79439463149409,19.52375039759837
2.356034656172238,1.0037659354663924,881,-4,19.79439463149409,19.52375039759837
2.366069756261834,1.0037559001666485,881,-4,19.79439463149409,19.52375039759837
2.376104756024018,1.003745864967234,881,-4,19.79439463149409,19.52375039759837
2.3861396554597922,1.003735829868148,881,-4,19.79439463149409,19.52375039759837
2.3961744545701613,1.0037257948693894,881,-4,19.79439463149409,19.52375039759837
2.4062091533561274,1.003715759970957,881,-4,19.79439463149409,19.52375039759837
2.4162437518186937,1.0037057251728503,881,-4,19.79439463149409,19.52375039759837
2.426278249958864,1.0036956904750678,881,-4,19.79439463149409,19.52375039759837
2.4363126477776396,1.0036856558776086,881,-4,19.79439463149409,19.52375039759837
2.446346945276026,1.0036756213804718,881,-4,19.79439463149409,19.52375039759837
