Vout,Iout,Irradiance,Temperature,MaxVoltage,MaxPower
0.009251681041528447,1.8503539999999998,1661,-18,18.782596090388363,34.40235033192958
0.027754872052246513,1.8503539999999998,1661,-18,18.782596090388363,34.40235033192958
0.04625768689773236,1.8503445632835582,1661,-18,18.782596090388363,34.40235033192958
0.06476005837619182,1.8503260600925475,1661,-18,18.782596090388363,34.40235033192958
0.0832619645249127,1.8503075572786458,1661,-18,18.782596090388363,34.40235033192958
0.10176342691825958,1.8502890549090176,1661,-18,18.782596090388363,34.40235033192958
0.12026446547138861,1.8502705530047192,1661,-18,18.782596090388363,34.40235033192958
0.13876509856749983,1.850252051544176,1661,-18,18.782596090388363,34.40235033192958
0.1572653431755033,1.8502335505074732,1661,-18,18.782596090388363,34.40235033192958
0.17576521495883674,1.850215049876227,1661,-18,18.782596090388363,34.40235033192958
0.19426472837591052,1.8501965496334694,1661,-18,18.782596090388363,34.40235033192958
0.21276389677282453,1.850178049763536,1661,-18,18.782596090388363,34.40235033192958
0.23126273246895102,1.850159550251969,1661,-18,18.782596090388363,34.40235033192958
0.24976124683593254,1.850141051085422,1661,-18,18.782596090388363,34.40235033192958
0.2682594503706019,1.8501225522515758,1661,-18,18.782596090388363,34.40235033192958
0.2867573527622914,1.8501040537390587,1661,-18,18.782596090388363,34.40235033192958
0.30525496295496296,1.850085555537374,1661,-18,18.782596090388363,34.40235033192958
0.3237522892045585,1.850067057636832,1661,-18,18.782596090388363,34.40235033192958
0.3422493391319367,1.8500485600284893,1661,-18,18.782596090388363,34.40235033192958
0.36074611977173804,1.8500300627040895,1661,-18,18.782596090388363,34.40235033192958
0.3792426376174885,1.8500115656560119,1661,-18,18.782596090388363,34.40235033192958
0.39773889866323453,1.849993068877222,1661,-18,18.782596090388363,34.40235033192958
0.41623490844197336,1.8499745723612258,1661,-18,18.782596090388363,34.40235033192958
0.43473067206112687,1.8499560761020297,1661,-18,18.782596090388363,34.40235033192958
0.4532261942352862,1.8499375800941007,1661,-18,18.782596090388363,34.40235033192958
0.4717214793164366,1.849919084332331,1661,-18,18.782596090388363,34.40235033192958
0.490216531321857,1.8499005888120066,1661,-18,18.782596090388363,34.40235033192958
0.5087113539598727,1.849882093528775,1661,-18,18.782596090388363,34.40235033192958
0.5272059506536272,1.8498635984786191,1661,-18,18.782596090388363,34.40235033192958
0.5457003245630233,1.8498451036578305,1661,-18,18.782596090388363,34.40235033192958
0.5641944786049795,1.8498266090629865,1661,-18,18.782596090388363,34.40235033192958
0.5826884154721228,1.8498081146909264,1661,-18,18.782596090388363,34.40235033192958
0.6011821376500484,1.8497896205387339,1661,-18,18.782596090388363,34.40235033192958
0.6196756474332477,1.8497711266037162,1661,-18,18.782596090388363,34.40235033192958
0.638168946939813,1.8497526328833878,1661,-18,18.782596090388363,34.40235033192958
0.6566620381250086,1.8497341393754538,1661,-18,18.782596090388363,34.40235033192958
0.6751549227938006,1.8497156460777968,1661,-18,18.782596090388363,34.40235033192958
0.6936476026124202,1.849697152988461,1661,-18,18.782596090388363,34.40235033192958
0.7121400791190384,1.8496786601056414,1661,-18,18.782596090388363,34.40235033192958
0.7306323537336189,1.849660167427672,1661,-18,18.782596090388363,34.40235033192958
0.7491244277670137,1.8496416749530147,1661,-18,18.782596090388363,34.40235033192958
0.7676163024293576,1.8496231826802494,1661,-18,18.782596090388363,34.40235033192958
0.7861079788378181,1.8496046906080654,1661,-18,18.782596090388363,34.40235033192958
0.8045994580237485,1.8495861987352522,1661,-18,18.782596090388363,34.40235033192958
0.8230907409392898,1.8495677070606928,1661,-18,18.782596090388363,34.40235033192958
0.8415818284634669,1.8495492155833562,1661,-18,18.782596090388363,34.40235033192958
0.8600727214078121,1.8495307243022898,1661,-18,18.782596090388363,34.40235033192958
0.8785634205215601,1.8495122332166147,1661,-18,18.782596090388363,34.40235033192958
0.8970539264964404,1.8494937423255196,1661,-18,18.782596090388363,34.40235033192958
0.9155442399711022,1.8494752516282549,1661,-18,18.782596090388363,34.40235033192958
0.9340343615351974,1.8494567611241293,1661,-18,18.782596090388363,34.40235033192958
0.9525242917331522,1.8494382708125037,1661,-18,18.782596090388363,34.40235033192958
0.9710140310676453,1.8494197806927886,1661,-18,18.782596090388363,34.40235033192958
0.9895035800028212,1.8494012907644397,1661,-18,18.782596090388363,34.40235033192958
1.0079929389672542,1.8493828010269542,1661,-18,18.782596090388363,34.40235033192958
1.0264821083566857,1.849364311479868,1661,-18,18.782596090388363,34.40235033192958
1.044971088536551,1.8493458221227526,1661,-18,18.782596090388363,34.40235033192958
1.063459879844309,1.849327332955212,1661,-18,18.782596090388363,34.40235033192958
1.0819484825915973,1.849308843976881,1661,-18,18.782596090388363,34.40235033192958
1.1004368970662175,1.8492903551874222,1661,-18,18.782596090388363,34.40235033192958
1.118925123533969,1.8492718665865238,1661,-18,18.782596090388363,34.40235033192958
1.1374131622403432,1.849253378173898,1661,-18,18.782596090388363,34.40235033192958
1.1559010134120846,1.8492348899492792,1661,-18,18.782596090388363,34.40235033192958
1.1743886772586336,1.8492164019124218,1661,-18,18.782596090388363,34.40235033192958
1.1928761539734585,1.8491979140630987,1661,-18,18.782596090388363,34.40235033192958
1.211363443735284,1.849179426401101,1661,-18,18.782596090388363,34.40235033192958
1.2298505467092253,1.849160938926235,1661,-18,18.782596090388363,34.40235033192958
1.248337463047836,1.849142451638322,1661,-18,18.782596090388363,34.40235033192958
1.2668241928920738,1.8491239645371966,1661,-18,18.782596090388363,34.40235033192958
1.2853107363721932,1.849105477622707,1661,-18,18.782596090388363,34.40235033192958
1.3037970936085683,1.8490869908947114,1661,-18,18.782596090388363,34.40235033192958
1.322283264712455,1.84906850435308,1661,-18,18.782596090388363,34.40235033192958
1.3407692497866892,1.849050017997692,1661,-18,18.782596090388363,34.40235033192958
1.3592550489263386,1.849031531828437,1661,-18,18.782596090388363,34.40235033192958
1.3777406622192967,1.8490130458452114,1661,-18,18.782596090388363,34.40235033192958
1.3962260897468375,1.8489945600479203,1661,-18,18.782596090388363,34.40235033192958
1.4147113315841233,1.848976074436476,1661,-18,18.782596090388363,34.40235033192958
1.4331963878006755,1.848957589010797,1661,-18,18.782596090388363,34.40235033192958
1.4516812584608092,1.8489391037708083,1661,-18,18.782596090388363,34.40235033192958
1.4701659436240324,1.8489206187164402,1661,-18,18.782596090388363,34.40235033192958
1.4886504433454169,1.8489021338476286,1661,-18,18.782596090388363,34.40235033192958
1.507134757675939,1.848883649164314,1661,-18,18.782596090388363,34.40235033192958
1.525618886662795,1.8488651646664411,1661,-18,18.782596090388363,34.40235033192958
1.5441028303496933,1.848846680353959,1661,-18,18.782596090388363,34.40235033192958
1.562586588777119,1.8488281962268205,1661,-18,18.782596090388363,34.40235033192958
1.5810701619825867,1.848809712284982,1661,-18,18.782596090388363,34.40235033192958
1.5995535500008653,1.8487912285284032,1661,-18,18.782596090388363,34.40235033192958
1.6180367528641908,1.848772744957046,1661,-18,18.782596090388363,34.40235033192958
1.6365197706024617,1.848754261570876,1661,-18,18.782596090388363,34.40235033192958
1.6550026032434173,1.8487357783698612,1661,-18,18.782596090388363,34.40235033192958
1.673485250812806,1.8487172953539712,1661,-18,18.782596090388363,34.40235033192958
1.691967713334535,1.8486988125231785,1661,-18,18.782596090388363,34.40235033192958
1.7104499908308168,1.8486803298774575,1661,-18,18.782596090388363,34.40235033192958
1.7289320833222956,1.848661847416784,1661,-18,18.782596090388363,34.40235033192958
1.7474139908281687,1.848643365141136,1661,-18,18.782596090388363,34.40235033192958
1.7658957133662998,1.8486248830504928,1661,-18,18.782596090388363,34.40235033192958
1.7843772509533198,1.848606401144835,1661,-18,18.782596090388363,34.40235033192958
1.8028586036047212,1.8485879194241452,1661,-18,18.782596090388363,34.40235033192958
1.821339771334948,1.8485694378884063,1661,-18,18.782596090388363,34.40235033192958
1.8398207541574743,1.8485509565376033,1661,-18,18.782596090388363,34.40235033192958
1.8583015520848796,1.8485324753717212,1661,-18,18.782596090388363,34.40235033192958
1.876782165128917,1.8485139943907467,1661,-18,18.782596090388363,34.40235033192958
1.895262593300579,1.8484955135946675,1661,-18,18.782596090388363,34.40235033192958
1.9137428366101528,1.8484770329834714,1661,-18,18.782596090388363,34.40235033192958
1.9322228950672775,1.848458552557148,1661,-18,18.782596090388363,34.40235033192958
1.9507027686809917,1.8484400723156864,1661,-18,18.782596090388363,34.40235033192958
1.9691824574597812,1.8484215922590772,1661,-18,18.782596090388363,34.40235033192958
1.9876619614116202,1.8484031123873117,1661,-18,18.782596090388363,34.40235033192958
2.006141280544013,1.8483846327003808,1661,-18,18.782596090388363,34.40235033192958
2.0246204148640263,1.848366153198277,1661,-18,18.782596090388363,34.40235033192958
2.0430993643783277,1.8483476738809925,1661,-18,18.782596090388363,34.40235033192958
2.0615781290932125,1.8483291947485205,1661,-18,18.782596090388363,34.40235033192958
2.0800567090146336,1.848310715800854,1661,-18,18.782596090388363,34.40235033192958
2.0985351041482287,1.848292237037987,1661,-18,18.782596090388363,34.40235033192958
2.117013314499343,1.8482737584599136,1661,-18,18.782596090388363,34.40235033192958
2.1354913400730533,1.8482552800666279,1661,-18,18.782596090388363,34.40235033192958
2.153969180874187,1.8482368018581246,1661,-18,18.782596090388363,34.40235033192958
2.1724468369073433,1.8482183238343988,1661,-18,18.782596090388363,34.40235033192958
2.1909243081769088,1.8481998459954454,1661,-18,18.782596090388363,34.40235033192958
2.209401594687075,1.84818136834126,1661,-18,18.782596090388363,34.40235033192958
2.2278786964418527,1.8481628908718384,1661,-18,18.782596090388363,34.40235033192958
2.2463556134450866,1.8481444135871758,1661,-18,18.782596090388363,34.40235033192958
2.2648323457004667,1.8481259364872689,1661,-18,18.782596090388363,34.40235033192958
2.2833088932115424,1.8481074595721134,1661,-18,18.782596090388363,34.40235033192958
2.3017852559817316,1.8480889828417058,1661,-18,18.782596090388363,34.40235033192958
2.3202614340143315,1.8480705062960423,1661,-18,18.782596090388363,34.40235033192958
2.338737427312527,1.8480520299351197,1661,-18,18.782596090388363,34.40235033192958
2.3572132358794007,1.848033553758935,1661,-18,18.782596090388363,34.40235033192958
2.3756888597179393,1.8480150777674844,1661,-18,18.782596090388363,34.40235033192958
2.394164298831043,1.847996601960765,1661,-18,18.782596090388363,34.40235033192958
2.41263955322153,1.847978126338774,1661,-18,18.782596090388363,34.40235033192958
2.431114622892144,1.8479596509015086,1661,-18,18.782596090388363,34.40235033192958
2.4495895078455594,1.8479411756489657,1661,-18,18.782596090388363,34.40235033192958
2.468064208084388,1.8479227005811425,1661,-18,18.782596090388363,34.40235033192958
2.486538723611181,1.8479042256980367,1661,-18,18.782596090388363,34.40235033192958
2.505013054428437,1.8478857509996454,1661,-18,18.782596090388363,34.40235033192958
2.523487200538602,1.847867276485966,1661,-18,18.782596090388363,34.40235033192958
2.54196116194408,1.8478488021569963,1661,-18,18.782596090388363,34.40235033192958
2.560434938647228,1.8478303280127335,1661,-18,18.782596090388363,34.40235033192958
2.5789085306503647,1.8478118540531756,1661,-18,18.782596090388363,34.40235033192958
2.5973819379557743,1.8477933802783197,1661,-18,18.782596090388363,34.40235033192958
2.6158551605657063,1.8477749066881641,1661,-18,18.782596090388363,34.40235033192958
2.634328198482377,1.8477564332827061,1661,-18,18.782596090388363,34.40235033192958
2.6528010517079776,1.8477379600619435,1661,-18,18.782596090388363,34.40235033192958
2.6712737202446717,1.8477194870258742,1661,-18,18.782596090388363,34.40235033192958
2.6897462040945976,1.8477010141744958,1661,-18,18.782596090388363,34.40235033192958
2.7082185032598707,1.8476825415078064,1661,-18,18.782596090388363,34.40235033192958
2.7266906177425887,1.8476640690258037,1661,-18,18.782596090388363,34.40235033192958
2.7451625475448256,1.8476455967284857,1661,-18,18.782596090388363,34.40235033192958
2.7636342926686415,1.8476271246158504,1661,-18,18.782596090388363,34.40235033192958
2.7821058531160787,1.8476086526878954,1661,-18,18.782596090388363,34.40235033192958
2.8005772288891633,1.8475901809446187,1661,-18,18.782596090388363,34.40235033192958
2.819048419989909,1.8475717093860184,1661,-18,18.782596090388363,34.40235033192958
2.8375194264203167,1.8475532380120925,1661,-18,18.782596090388363,34.40235033192958
2.855990248182375,1.847534766822839,1661,-18,18.782596090388363,34.40235033192958
2.8744608852780607,1.8475162958182556,1661,-18,18.782596090388363,34.40235033192958
2.8929313377093417,1.8474978249983407,1661,-18,18.782596090388363,34.40235033192958
2.9114016054781753,1.8474793543630923,1661,-18,18.782596090388363,34.40235033192958
2.9298716885865117,1.847460883912508,1661,-18,18.782596090388363,34.40235033192958
2.9483415870362926,1.8474424136465861,1661,-18,18.782596090388363,34.40235033192958
2.9668113008294514,1.847423943565325,1661,-18,18.782596090388363,34.40235033192958
2.985280829967916,1.8474054736687222,1661,-18,18.782596090388363,34.40235033192958
3.0037501744536073,1.8473870039567761,1661,-18,18.782596090388363,34.40235033192958
3.022219334288441,1.8473685344294846,1661,-18,18.782596090388363,34.40235033192958
3.040688309474326,1.8473500650868457,1661,-18,18.782596090388363,34.40235033192958
3.0591571000131683,1.8473315959288579,1661,-18,18.782596090388363,34.40235033192958
3.0776257059068675,1.847313126955519,1661,-18,18.782596090388363,34.40235033192958
3.09609412715732,1.847294658166827,1661,-18,18.782596090388363,34.40235033192958
3.114562363766419,1.8472761895627803,1661,-18,18.782596090388363,34.40235033192958
3.1330304157360525,1.8472577211433767,1661,-18,18.782596090388363,34.40235033192958
3.151498283068107,1.8472392529086143,1661,-18,18.782596090388363,34.40235033192958
3.169965965764464,1.8472207848584916,1661,-18,18.782596090388363,34.40235033192958
3.1884334638270024,1.8472023169930065,1661,-18,18.782596090388363,34.40235033192958
3.206900777257601,1.8471838493121568,1661,-18,18.782596090388363,34.40235033192958
3.2253679060581324,1.847165381815941,1661,-18,18.782596090388363,34.40235033192958
3.2438348502304715,1.8471469145043573,1661,-18,18.782596090388363,34.40235033192958
3.262301609776486,1.8471284473774034,1661,-18,18.782596090388363,34.40235033192958
3.2807681846980454,1.847109980435078,1661,-18,18.782596090388363,34.40235033192958
3.299234574997016,1.8470915136773787,1661,-18,18.782596090388363,34.40235033192958
3.3177007806752634,1.8470730471043038,1661,-18,18.782596090388363,34.40235033192958
3.3361668017346506,1.8470545807158514,1661,-18,18.782596090388363,34.40235033192958
3.35463263817704,1.8470361145120198,1661,-18,18.782596090388363,34.40235033192958
3.3730982900042923,1.8470176484928071,1661,-18,18.782596090388363,34.40235033192958
3.391563757218267,1.8469991826582113,1661,-18,18.782596090388363,34.40235033192958
3.410029039820824,1.8469807170082306,1661,-18,18.782596090388363,34.40235033192958
3.4284941378138187,1.8469622515428632,1661,-18,18.782596090388363,34.40235033192958
3.4469590511991095,1.8469437862621072,1661,-18,18.782596090388363,34.40235033192958
3.465423779978551,1.8469253211659609,1661,-18,18.782596090388363,34.40235033192958
3.4838883241539986,1.8469068562544222,1661,-18,18.782596090388363,34.40235033192958
3.5023526837273065,1.8468883915274892,1661,-18,18.782596090388363,34.40235033192958
3.5208168587003286,1.8468699269851603,1661,-18,18.782596090388363,34.40235033192958
3.539280849074918,1.8468514626274333,1661,-18,18.782596090388363,34.40235033192958
3.5577446548529266,1.8468329984543068,1661,-18,18.782596090388363,34.40235033192958
3.5762082760362053,1.8468145344657787,1661,-18,18.782596090388363,34.40235033192958
3.594671712626607,1.8467960706618471,1661,-18,18.782596090388363,34.40235033192958
3.6131349646259814,1.8467776070425101,1661,-18,18.782596090388363,34.40235033192958
3.631598032036179,1.8467591436077662,1661,-18,18.782596090388363,34.40235033192958
3.6500609148590506,1.8467406803576132,1661,-18,18.782596090388363,34.40235033192958
3.668523613096445,1.8467222172920492,1661,-18,18.782596090388363,34.40235033192958
3.6869861267502118,1.8467037544110727,1661,-18,18.782596090388363,34.40235033192958
3.7054484558222,1.8466852917146817,1661,-18,18.782596090388363,34.40235033192958
3.723910600314259,1.8466668292028743,1661,-18,18.782596090388363,34.40235033192958
3.7423725602282367,1.8466483668756484,1661,-18,18.782596090388363,34.40235033192958
3.7608343355659803,1.8466299047330026,1661,-18,18.782596090388363,34.40235033192958
3.779295926329339,1.846611442774935,1661,-18,18.782596090388363,34.40235033192958
3.79775733252016,1.8465929810014434,1661,-18,18.782596090388363,34.40235033192958
3.816218554140291,1.8465745194125263,1661,-18,18.782596090388363,34.40235033192958
3.8346795911915783,1.8465560580081817,1661,-18,18.782596090388363,34.40235033192958
3.8531404436758705,1.8465375967884077,1661,-18,18.782596090388363,34.40235033192958
3.8716011115950146,1.8465191357532025,1661,-18,18.782596090388363,34.40235033192958
3.890061594950856,1.8465006749025643,1661,-18,18.782596090388363,34.40235033192958
3.908521893745243,1.8464822142364912,1661,-18,18.782596090388363,34.40235033192958
3.9269820079800213,1.8464637537549815,1661,-18,18.782596090388363,34.40235033192958
3.9454419376570367,1.846445293458033,1661,-18,18.782596090388363,34.40235033192958
3.9639016827781366,1.8464268333456444,1661,-18,18.782596090388363,34.40235033192958
3.982361243345166,1.8464083734178134,1661,-18,18.782596090388363,34.40235033192958
4.000820619359971,1.8463899136745383,1661,-18,18.782596090388363,34.40235033192958
4.019279810824401,1.8463714541158174,1661,-18,18.782596090388363,34.40235033192958
4.037738817740297,1.8463529947416486,1661,-18,18.782596090388363,34.40235033192958
4.056197640109509,1.84633453555203,1661,-18,18.782596090388363,34.40235033192958
4.074656277933878,1.8463160765469602,1661,-18,18.782596090388363,34.40235033192958
4.093114731215255,1.8462976177264367,1661,-18,18.782596090388363,34.40235033192958
4.111572999955483,1.8462791590904584,1661,-18,18.782596090388363,34.40235033192958
4.130031084156408,1.8462607006390228,1661,-18,18.782596090388363,34.40235033192958
4.148488983819874,1.8462422423721285,1661,-18,18.782596090388363,34.40235033192958
4.166946698947728,1.8462237842897733,1661,-18,18.782596090388363,34.40235033192958
4.185404229541816,1.8462053263919558,1661,-18,18.782596090388363,34.40235033192958
4.20386157560398,1.8461868686786738,1661,-18,18.782596090388363,34.40235033192958
4.222318737136071,1.8461684111499255,1661,-18,18.782596090388363,34.40235033192958
4.240775714139928,1.846149953805709,1661,-18,18.782596090388363,34.40235033192958
4.259232506617399,1.8461314966460227,1661,-18,18.782596090388363,34.40235033192958
4.277689114570331,1.8461130396708645,1661,-18,18.782596090388363,34.40235033192958
4.296145538000565,1.8460945828802329,1661,-18,18.782596090388363,34.40235033192958
4.314601776909949,1.8460761262741254,1661,-18,18.782596090388363,34.40235033192958
4.333057831300327,1.846057669852541,1661,-18,18.782596090388363,34.40235033192958
4.351513701173546,1.8460392136154773,1661,-18,18.782596090388363,34.40235033192958
