Vout,Iout,Irradiance,Temperature,MaxVoltage,MaxPower
0.008097702137479446,1.6195559999999998,1401,3,20.313769201359655,32.48728391447433
0.024292956678261646,1.6195559999999998,1401,3,20.313769201359655,32.48728391447433
0.04048788197358118,1.6195477403422622,1401,3,20.313769201359655,32.48728391447433
0.056682419203845175,1.6195315450877215,1401,3,20.313769201359655,32.48728391447433
0.07287654914579021,1.6195153501632522,1401,3,20.313769201359655,32.48728391447433
0.08907029068277139,1.6194991556276415,1401,3,20.313769201359655,32.48728391447433
0.10526366124589144,1.619482961499319,1401,3,20.313769201359655,32.48728391447433
0.1214566769253806,1.6194667677594015,1401,3,20.313769201359655,32.48728391447433
0.13764935257358613,1.6194505743904577,1401,3,20.313769201359655,32.48728391447433
0.1538417019002168,1.6194343813763976,1401,3,20.313769201359655,32.48728391447433
0.17003373756025933,1.6194181887023686,1401,3,20.313769201359655,32.48728391447433
0.1862254712351305,1.6194019963546613,1401,3,20.313769201359655,32.48728391447433
0.20241691370758486,1.6193858043206206,1401,3,20.313769201359655,32.48728391447433
0.2186080749308595,1.619369612588565,1401,3,20.313769201359655,32.48728391447433
0.23479896409249826,1.6193534211477119,1401,3,20.313769201359655,32.48728391447433
0.2509895896732655,1.6193372299881077,1401,3,20.313769201359655,32.48728391447433
0.2671799595015267,1.6193210391005652,1401,3,20.313769201359655,32.48728391447433
0.2833700808034451,1.6193048484766035,1401,3,20.313769201359655,32.48728391447433
0.29955996024931597,1.6192886581083943,1401,3,20.313769201359655,32.48728391447433
0.3157496039963362,1.6192724679887114,1401,3,20.313769201359655,32.48728391447433
0.33193901772808293,1.6192562781108846,1401,3,20.313769201359655,32.48728391447433
0.34812820669095396,1.6192400884687566,1401,3,20.313769201359655,32.48728391447433
0.3643171757278059,1.6192238990566439,1401,3,20.313769201359655,32.48728391447433
0.38050592930900273,1.6192077098693,1401,3,20.313769201359655,32.48728391447433
0.39669447156107596,1.6191915209018821,1401,3,20.313769201359655,32.48728391447433
0.41288280629318,1.6191753321499198,1401,3,20.313769201359655,32.48728391447433
0.4290709370215113,1.6191591436092867,1401,3,20.313769201359655,32.48728391447433
0.44525886699184897,1.6191429552761734,1401,3,20.313769201359655,32.48728391447433
0.4614465992003615,1.619126767147064,1401,3,20.313769201359655,32.48728391447433
0.4776341364128117,1.6191105792187124,1401,3,20.313769201359655,32.48728391447433
0.4938214811822851,1.6190943914881226,1401,3,20.313769201359655,32.48728391447433
0.5100086358655528,1.619078203952529,1401,3,20.313769201359655,32.48728391447433
0.5261956026381771,1.6190620166093783,1401,3,20.313769201359655,32.48728391447433
0.5423823835084534,1.619045829456314,1401,3,20.313769201359655,32.48728391447433
0.5585689803302802,1.6190296424911599,1401,3,20.313769201359655,32.48728391447433
0.5747553948150386,1.6190134557119085,1401,3,20.313769201359655,32.48728391447433
0.5909416285425579,1.6189972691167052,1401,3,20.313769201359655,32.48728391447433
0.6071276829712371,1.6189810827038391,1401,3,20.313769201359655,32.48728391447433
0.6233135594473884,1.6189648964717303,1401,3,20.313769201359655,32.48728391447433
0.639499259213861,1.6189487104189202,1401,3,20.313769201359655,32.48728391447433
0.6556847834180017,1.6189325245440627,1401,3,20.313769201359655,32.48728391447433
0.6718701331190032,1.618916338845915,1401,3,20.313769201359655,32.48728391447433
0.6880553092946867,1.6189001533233294,1401,3,20.313769201359655,32.48728391447433
0.7042403128477628,1.618883967975247,1401,3,20.313769201359655,32.48728391447433
0.7204251446116104,1.6188677828006897,1401,3,20.313769201359655,32.48728391447433
0.7366098053556118,1.6188515977987552,1401,3,20.313769201359655,32.48728391447433
0.7527942957900758,1.6188354129686098,1401,3,20.313769201359655,32.48728391447433
0.7689786165707834,1.6188192283094844,1401,3,20.313769201359655,32.48728391447433
0.7851627683031837,1.6188030438206684,1401,3,20.313769201359655,32.48728391447433
0.8013467515462652,1.6187868595015062,1401,3,20.313769201359655,32.48728391447433
0.8175305668161325,1.6187706753513922,1401,3,20.313769201359655,32.48728391447433
0.8337142145893037,1.6187544913697676,1401,3,20.313769201359655,32.48728391447433
0.849897695305758,1.6187383075561161,1401,3,20.313769201359655,32.48728391447433
0.8660810093717463,1.6187221239099614,1401,3,20.313769201359655,32.48728391447433
0.8822641571623858,1.6187059404308632,1401,3,20.313769201359655,32.48728391447433
0.8984471390240569,1.6186897571184156,1401,3,20.313769201359655,32.48728391447433
0.9146299552766125,1.6186735739722433,1401,3,20.313769201359655,32.48728391447433
0.9308126062154208,1.618657390992,1401,3,20.313769201359655,32.48728391447433
0.9469950921132476,1.6186412081773658,1401,3,20.313769201359655,32.48728391447433
0.9631774132219962,1.6186250255280452,1401,3,20.313769201359655,32.48728391447433
0.9793595697743134,1.6186088430437657,1401,3,20.313769201359655,32.48728391447433
0.9955415619850689,1.6185926607242753,1401,3,20.313769201359655,32.48728391447433
1.0117233900527254,1.618576478569341,1401,3,20.313769201359655,32.48728391447433
1.0279050541605999,1.6185602965787487,1401,3,20.313769201359655,32.48728391447433
1.0440865544780282,1.6185441147522992,1401,3,20.313769201359655,32.48728391447433
1.0602678911614432,1.6185279330898095,1401,3,20.313769201359655,32.48728391447433
1.0764490643553644,1.6185117515911103,1401,3,20.313769201359655,32.48728391447433
1.092630074193317,1.618495570256045,1401,3,20.313769201359655,32.48728391447433
1.108810920798677,1.6184793890844693,1401,3,20.313769201359655,32.48728391447433
1.1249916042854522,1.6184632080762493,1401,3,20.313769201359655,32.48728391447433
1.1411721247590023,1.618447027231262,1401,3,20.313769201359655,32.48728391447433
1.1573524823167052,1.6184308465493935,1401,3,20.313769201359655,32.48728391447433
1.173532677048571,1.618414666030538,1401,3,20.313769201359655,32.48728391447433
1.1897127090378086,1.6183984856745983,1401,3,20.313769201359655,32.48728391447433
1.205892578361349,1.6183823054814845,1401,3,20.313769201359655,32.48728391447433
1.222072285090328,1.6183661254511135,1401,3,20.313769201359655,32.48728391447433
1.2382518292905336,1.6183499455834078,1401,3,20.313769201359655,32.48728391447433
1.2544312110228155,1.6183337658782968,1401,3,20.313769201359655,32.48728391447433
1.2706104303434664,1.6183175863357147,1401,3,20.313769201359655,32.48728391447433
1.2867894873045715,1.6183014069556003,1401,3,20.313769201359655,32.48728391447433
1.302968381954334,1.6182852277378976,1401,3,20.313769201359655,32.48728391447433
1.3191471143373719,1.6182690486825546,1401,3,20.313769201359655,32.48728391447433
1.335325684494994,1.6182528697895227,1401,3,20.313769201359655,32.48728391447433
1.3515040924654569,1.6182366910587576,1401,3,20.313769201359655,32.48728391447433
1.3676823382841965,1.6182205124902178,1401,3,20.313769201359655,32.48728391447433
1.3838604219840476,1.6182043340838652,1401,3,20.313769201359655,32.48728391447433
1.4000383435954424,1.6181881558396642,1401,3,20.313769201359655,32.48728391447433
1.4162161031465963,1.6181719777575823,1401,3,20.313769201359655,32.48728391447433
1.4323937006636782,1.6181557998375888,1401,3,20.313769201359655,32.48728391447433
1.448571136170968,1.6181396220796553,1401,3,20.313769201359655,32.48728391447433
1.464748409691002,1.618123444483756,1401,3,20.313769201359655,32.48728391447433
1.4809255212447054,1.6181072670498666,1401,3,20.313769201359655,32.48728391447433
1.4971024708515206,1.6180910897779643,1401,3,20.313769201359655,32.48728391447433
1.5132792585295156,1.6180749126680283,1401,3,20.313769201359655,32.48728391447433
1.5294558842954944,1.6180587357200393,1401,3,20.313769201359655,32.48728391447433
1.545632348165092,1.618042558933979,1401,3,20.313769201359655,32.48728391447433
1.5618086501528645,1.6180263823098306,1401,3,20.313769201359655,32.48728391447433
1.5779847902723732,1.6180102058475787,1401,3,20.313769201359655,32.48728391447433
1.5941607685362595,1.6179940295472086,1401,3,20.313769201359655,32.48728391447433
1.6103365849563172,1.6179778534087068,1401,3,20.313769201359655,32.48728391447433
1.626512239543556,1.6179616774320607,1401,3,20.313769201359655,32.48728391447433
1.642687732308265,1.6179455016172581,1401,3,20.313769201359655,32.48728391447433
1.6588630632600634,1.6179293259642884,1401,3,20.313769201359655,32.48728391447433
1.675038232407956,1.6179131504731414,1401,3,20.313769201359655,32.48728391447433
1.69121323976038,1.617896975143807,1401,3,20.313769201359655,32.48728391447433
1.7073880853252463,1.6178807999762768,1401,3,20.313769201359655,32.48728391447433
1.7235627691099817,1.617864624970542,1401,3,20.313769201359655,32.48728391447433
1.7397372911215672,1.6178484501265946,1401,3,20.313769201359655,32.48728391447433
1.7559116513665693,1.6178322754444272,1401,3,20.313769201359655,32.48728391447433
1.772085849851175,1.6178161009240333,1401,3,20.313769201359655,32.48728391447433
1.788259886581219,1.6177999265654057,1401,3,20.313769201359655,32.48728391447433
1.804433761562212,1.6177837523685386,1401,3,20.313769201359655,32.48728391447433
1.820607474799364,1.617767578333426,1401,3,20.313769201359655,32.48728391447433
1.8367810262976088,1.6177514044600623,1401,3,20.313769201359655,32.48728391447433
1.8529544160616267,1.6177352307484425,1401,3,20.313769201359655,32.48728391447433
1.8691276440958602,1.6177190571985618,1401,3,20.313769201359655,32.48728391447433
1.8853007104045347,1.617702883810415,1401,3,20.313769201359655,32.48728391447433
1.9014736149916756,1.6176867105839983,1401,3,20.313769201359655,32.48728391447433
1.9176463578611223,1.6176705375193068,1401,3,20.313769201359655,32.48728391447433
1.9338189390165437,1.617654364616337,1401,3,20.313769201359655,32.48728391447433
1.94999135846145,1.6176381918750848,1401,3,20.313769201359655,32.48728391447433
1.9661636161992069,1.6176220192955468,1401,3,20.313769201359655,32.48728391447433
1.982335712233044,1.6176058468777192,1401,3,20.313769201359655,32.48728391447433
1.998507646566068,1.6175896746215985,1401,3,20.313769201359655,32.48728391447433
2.0146794192012702,1.617573502527182,1401,3,20.313769201359655,32.48728391447433
2.030851030141536,1.6175573305944662,1401,3,20.313769201359655,32.48728391447433
2.0470224793896548,1.6175411588234483,1401,3,20.313769201359655,32.48728391447433
2.0631937669483222,1.617524987214125,1401,3,20.313769201359655,32.48728391447433
2.0793648928201547,1.6175088157664943,1401,3,20.313769201359655,32.48728391447433
2.0955358570076896,1.6174926444805526,1401,3,20.313769201359655,32.48728391447433
2.111706659513394,1.617476473356298,1401,3,20.313769201359655,32.48728391447433
2.127877300339669,1.6174603023937277,1401,3,20.313769201359655,32.48728391447433
2.1440477794888553,1.617444131592839,1401,3,20.313769201359655,32.48728391447433
2.160218096963239,1.61742796095363,1401,3,20.313769201359655,32.48728391447433
2.1763882527650544,1.6174117904760978,1401,3,20.313769201359655,32.48728391447433
2.192558246896486,1.6173956201602404,1401,3,20.313769201359655,32.48728391447433
2.2087280793596773,1.6173794500060557,1401,3,20.313769201359655,32.48728391447433
2.2248977501567295,1.6173632800135413,1401,3,20.313769201359655,32.48728391447433
2.241067259289708,1.617347110182695,1401,3,20.313769201359655,32.48728391447433
2.257236606760642,1.617330940513515,1401,3,20.313769201359655,32.48728391447433
2.27340579257153,1.617314771005999,1401,3,20.313769201359655,32.48728391447433
2.289574816724341,1.6172986016601452,1401,3,20.313769201359655,32.48728391447433
2.3057436792210164,1.6172824324759512,1401,3,20.313769201359655,32.48728391447433
2.3219123800634724,1.6172662634534152,1401,3,20.313769201359655,32.48728391447433
2.3380809192536023,1.6172500945925354,1401,3,20.313769201359655,32.48728391447433
2.3542492967932787,1.61723392589331,1401,3,20.313769201359655,32.48728391447433
2.3704175126843534,1.6172177573557367,1401,3,20.313769201359655,32.48728391447433
2.386585566928661,1.617201588979814,1401,3,20.313769201359655,32.48728391447433
2.4027534595280193,1.6171854207655396,1401,3,20.313769201359655,32.48728391447433
2.4189211904842294,1.6171692527129122,1401,3,20.313769201359655,32.48728391447433
2.4350887597990787,1.6171530848219298,1401,3,20.313769201359655,32.48728391447433
2.451256167474342,1.6171369170925902,1401,3,20.313769201359655,32.48728391447433
2.4674234135117814,1.6171207495248923,1401,3,20.313769201359655,32.48728391447433
2.483590497913147,1.6171045821188337,1401,3,20.313769201359655,32.48728391447433
2.499757420680181,1.6170884148744131,1401,3,20.313769201359655,32.48728391447433
2.5159241818146123,1.6170722477916284,1401,3,20.313769201359655,32.48728391447433
2.532090781318164,1.6170560808704781,1401,3,20.313769201359655,32.48728391447433
2.5482572191925503,1.6170399141109604,1401,3,20.313769201359655,32.48728391447433
2.5644234954394767,1.6170237475130735,1401,3,20.313769201359655,32.48728391447433
2.5805896100606422,1.6170075810768159,1401,3,20.313769201359655,32.48728391447433
2.596755563057741,1.6169914148021856,1401,3,20.313769201359655,32.48728391447433
2.612921354432459,1.616975248689181,1401,3,20.313769201359655,32.48728391447433
2.629086984186478,1.6169590827378006,1401,3,20.313769201359655,32.48728391447433
2.645252452321475,1.6169429169480425,1401,3,20.313769201359655,32.48728391447433
2.66141775883912,1.616926751319905,1401,3,20.313769201359655,32.48728391447433
2.6775829037410825,1.6169105858533865,1401,3,20.313769201359655,32.48728391447433
2.6937478870290246,1.6168944205484854,1401,3,20.313769201359655,32.48728391447433
2.7099127087046058,1.6168782554052001,1401,3,20.313769201359655,32.48728391447433
2.7260773687694835,1.6168620904235287,1401,3,20.313769201359655,32.48728391447433
2.7422418672253097,1.6168459256034697,1401,3,20.313769201359655,32.48728391447433
2.7584062040737356,1.6168297609450213,1401,3,20.313769201359655,32.48728391447433
2.7745703793164087,1.616813596448182,1401,3,20.313769201359655,32.48728391447433
2.790734392954974,1.61679743211295,1401,3,20.313769201359655,32.48728391447433
2.8068982449910744,1.6167812679393236,1401,3,20.313769201359655,32.48728391447433
2.82306193542635,1.6167651039273017,1401,3,20.313769201359655,32.48728391447433
2.8392254642624404,1.616748940076882,1401,3,20.313769201359655,32.48728391447433
2.8553888315009823,1.616732776388063,1401,3,20.313769201359655,32.48728391447433
2.8715520371436116,1.6167166128608432,1401,3,20.313769201359655,32.48728391447433
2.8877150811919607,1.616700449495221,1401,3,20.313769201359655,32.48728391447433
2.9038779636476635,1.616684286291195,1401,3,20.313769201359655,32.48728391447433
2.92004068451235,1.616668123248763,1401,3,20.313769201359655,32.48728391447433
2.9362032437876517,1.6166519603679235,1401,3,20.313769201359655,32.48728391447433
2.952365641475196,1.6166357976486752,1401,3,20.313769201359655,32.48728391447433
2.96852787757661,1.616619635091016,1401,3,20.313769201359655,32.48728391447433
2.9846899520935217,1.6166034726949448,1401,3,20.313769201359655,32.48728391447433
3.0008518650275566,1.6165873104604596,1401,3,20.313769201359655,32.48728391447433
3.0170136163803396,1.6165711483875589,1401,3,20.313769201359655,32.48728391447433
3.0331752061534947,1.6165549864762412,1401,3,20.313769201359655,32.48728391447433
3.049336634348646,1.6165388247265047,1401,3,20.313769201359655,32.48728391447433
3.0654979009674164,1.6165226631383476,1401,3,20.313769201359655,32.48728391447433
3.0816590060114284,1.6165065017117686,1401,3,20.313769201359655,32.48728391447433
3.0978199494823033,1.616490340446766,1401,3,20.313769201359655,32.48728391447433
3.1139807313816625,1.6164741793433381,1401,3,20.313769201359655,32.48728391447433
3.130141351711128,1.6164580184014834,1401,3,20.313769201359655,32.48728391447433
3.1463018104723193,1.6164418576212,1401,3,20.313769201359655,32.48728391447433
3.162462107666855,1.6164256970024868,1401,3,20.313769201359655,32.48728391447433
3.178622243296357,1.6164095365453417,1401,3,20.313769201359655,32.48728391447433
3.194782217362442,1.6163933762497633,1401,3,20.313769201359655,32.48728391447433
3.210942029866732,1.6163772161157497,1401,3,20.313769201359655,32.48728391447433
3.227101680810844,1.6163610561432997,1401,3,20.313769201359655,32.48728391447433
3.2432611701963965,1.6163448963324114,1401,3,20.313769201359655,32.48728391447433
3.259420498025007,1.6163287366830834,1401,3,20.313769201359655,32.48728391447433
3.2755796642982937,1.6163125771953137,1401,3,20.313769201359655,32.48728391447433
3.291738669017874,1.616296417869101,1401,3,20.313769201359655,32.48728391447433
3.307897512185367,1.6162802587044438,1401,3,20.313769201359655,32.48728391447433
3.324056193802387,1.6162640997013402,1401,3,20.313769201359655,32.48728391447433
3.3402147138705547,1.6162479408597885,1401,3,20.313769201359655,32.48728391447433
3.356373072391484,1.6162317821797874,1401,3,20.313769201359655,32.48728391447433
3.372531269366793,1.6162156236613352,1401,3,20.313769201359655,32.48728391447433
3.3886893047980973,1.61619946530443,1401,3,20.313769201359655,32.48728391447433
3.4048471786870143,1.6161833071090705,1401,3,20.313769201359655,32.48728391447433
3.4210048910351603,1.6161671490752552,1401,3,20.313769201359655,32.48728391447433
3.4371624418441513,1.6161509912029821,1401,3,20.313769201359655,32.48728391447433
3.4533198311156035,1.6161348334922496,1401,3,20.313769201359655,32.48728391447433
3.4694770588511332,1.6161186759430566,1401,3,20.313769201359655,32.48728391447433
3.4856341250523557,1.6161025185554008,1401,3,20.313769201359655,32.48728391447433
3.5017910297208865,1.616086361329281,1401,3,20.313769201359655,32.48728391447433
3.517947772858343,1.6160702042646955,1401,3,20.313769201359655,32.48728391447433
3.5341043544663386,1.6160540473616427,1401,3,20.313769201359655,32.48728391447433
3.5502607745464916,1.616037890620121,1401,3,20.313769201359655,32.48728391447433
3.5664170331004152,1.6160217340401286,1401,3,20.313769201359655,32.48728391447433
3.5825731301297257,1.6160055776216642,1401,3,20.313769201359655,32.48728391447433
3.5987290656360384,1.615989421364726,1401,3,20.313769201359655,32.48728391447433
3.6148848396209687,1.6159732652693122,1401,3,20.313769201359655,32.48728391447433
3.631040452086133,1.6159571093354217,1401,3,20.313769201359655,32.48728391447433
3.647195903033145,1.6159409535630522,1401,3,20.313769201359655,32.48728391447433
3.66335119246362,1.6159247979522027,1401,3,20.313769201359655,32.48728391447433
3.679506320379174,1.6159086425028713,1401,3,20.313769201359655,32.48728391447433
3.6956612867814216,1.6158924872150564,1401,3,20.313769201359655,32.48728391447433
3.711816091671978,1.6158763320887564,1401,3,20.313769201359655,32.48728391447433
3.727970735052457,1.6158601771239696,1401,3,20.313769201359655,32.48728391447433
3.7441252169244748,1.6158440223206947,1401,3,20.313769201359655,32.48728391447433
3.7602795372896467,1.6158278676789295,1401,3,20.313769201359655,32.48728391447433
3.7764336961495877,1.6158117131986731,1401,3,20.313769201359655,32.48728391447433
3.7925876935059115,1.6157955588799233,1401,3,20.313769201359655,32.48728391447433
3.8087415293602342,1.6157794047226788,1401,3,20.313769201359655,32.48728391447433
3.8248952037141697,1.615763250726938,1401,3,20.313769201359655,32.48728391447433
3.8410487165693334,1.615747096892699,1401,3,20.313769201359655,32.48728391447433
3.85720206792734,1.6157309432199605,1401,3,20.313769201359655,32.48728391447433
3.873355257789804,1.6157147897087207,1401,3,20.313769201359655,32.48728391447433
3.8895082861583394,1.615698636358978,1401,3,20.313769201359655,32.48728391447433
