Vout,Iout,Irradiance,Temperature,MaxVoltage,MaxPower
0.0028723223815155623,0.5744699999999999,491,10,20.81522709524302,11.52467911615674
0.008616914032587308,0.5744699999999999,491,10,20.81522709524302,11.52467911615674
0.01436138889755166,0.5744670702306184,491,10,20.81522709524302,11.52467911615674
0.020105726112609218,0.5744613256389673,491,10,20.81522709524302,11.52467911615674
0.025849918859108364,0.5744555811643953,491,10,20.81522709524302,11.52467911615674
0.0315939738351324,0.5744498368277547,491,10,20.81522709524302,11.52467911615674
0.03733789722363861,0.5744440926355827,491,10,20.81522709524302,11.52467911615674
0.04308169473196567,0.5744383485811811,491,10,20.81522709524302,11.52467911615674
0.048825371628364825,0.574432604658367,491,10,20.81522709524302,11.52467911615674
0.054568932775783945,0.5744268608614331,491,10,20.81522709524302,11.52467911615674
0.06031238266305221,0.5744211171851111,491,10,20.81522709524302,11.52467911615674
0.0660557254336654,0.5744153736245381,491,10,20.81522709524302,11.52467911615674
0.07179896491235638,0.5744096301752252,491,10,20.81522709524302,11.52467911615674
0.07754210462962123,0.5744038868330289,491,10,20.81522709524302,11.52467911615674
0.08328514784435825,0.5743981435941246,491,10,20.81522709524302,11.52467911615674
0.08902809756476521,0.5743924004549816,491,10,20.81522709524302,11.52467911615674
0.09477095656762848,0.5743866574123412,491,10,20.81522709524302,11.52467911615674
0.10051372741612832,0.5743809144631952,491,10,20.81522709524302,11.52467911615674
0.1062564124762741,0.5743751716047666,491,10,20.81522709524302,11.52467911615674
0.11199901393207479,0.5743694288344924,491,10,20.81522709524302,11.52467911615674
0.11774153379954246,0.5743636861500064,491,10,20.81522709524302,11.52467911615674
0.12348397393961821,0.574357943549125,491,10,20.81522709524302,11.52467911615674
0.12922633607010356,0.5743522010298318,491,10,20.81522709524302,11.52467911615674
0.13496862177667382,0.574346458590266,491,10,20.81522709524302,11.52467911615674
0.14071083252304414,0.5743407162287097,491,10,20.81522709524302,11.52467911615674
0.14645296966035326,0.5743349739435774,491,10,20.81522709524302,11.52467911615674
0.15219503443582533,0.5743292317334052,491,10,20.81522709524302,11.52467911615674
0.15793702800076526,0.5743234895968422,491,10,20.81522709524302,11.52467911615674
0.16367895141793898,0.574317747532641,491,10,20.81522709524302,11.52467911615674
0.16942080566838558,0.5743120055396502,491,10,20.81522709524302,11.52467911615674
0.17516259165770573,0.5743062636168073,491,10,20.81522709524302,11.52467911615674
0.18090431022186576,0.574300521763131,491,10,20.81522709524302,11.52467911615674
0.1866459621325558,0.5742947799777158,491,10,20.81522709524302,11.52467911615674
0.19238754810213488,0.5742890382597259,491,10,20.81522709524302,11.52467911615674
0.19812906878819628,0.5742832966083894,491,10,20.81522709524302,11.52467911615674
0.2038705247977811,0.5742775550229939,491,10,20.81522709524302,11.52467911615674
0.2096119166912679,0.574271813502882,491,10,20.81522709524302,11.52467911615674
0.21535324498596306,0.5742660720474466,491,10,20.81522709524302,11.52467911615674
0.2210945101594147,0.5742603306561274,491,10,20.81522709524302,11.52467911615674
0.2268357126524717,0.5742545893284068,491,10,20.81522709524302,11.52467911615674
0.2325768528721077,0.5742488480638075,491,10,20.81522709524302,11.52467911615674
0.238317931194027,0.5742431068618885,491,10,20.81522709524302,11.52467911615674
0.244058947965071,0.574237365722243,491,10,20.81522709524302,11.52467911615674
0.24979990350543863,0.5742316246444952,491,10,20.81522709524302,11.52467911615674
0.2555407981107363,0.5742258836282983,491,10,20.81522709524302,11.52467911615674
0.2612816320538704,0.574220142673332,491,10,20.81522709524302,11.52467911615674
0.2670224055867932,0.5742144017793008,491,10,20.81522709524302,11.52467911615674
0.27276311894211597,0.5742086609459318,491,10,20.81522709524302,11.52467911615674
0.27850377233459633,0.5742029201729729,491,10,20.81522709524302,11.52467911615674
0.2842443659625123,0.5741971794601917,491,10,20.81522709524302,11.52467911615674
0.28998490000893035,0.5741914388073733,491,10,20.81522709524302,11.52467911615674
0.29572537464287546,0.5741856982143194,491,10,20.81522709524302,11.52467911615674
0.30146579002041207,0.5741799576808471,491,10,20.81522709524302,11.52467911615674
0.30720614628564047,0.5741742172067872,491,10,20.81522709524302,11.52467911615674
0.3129464435716181,0.5741684767919838,491,10,20.81522709524302,11.52467911615674
0.3186866820012088,0.5741627364362926,491,10,20.81522709524302,11.52467911615674
0.32442686168786716,0.5741569961395806,491,10,20.81522709524302,11.52467911615674
0.33016698273636264,0.5741512559017251,491,10,20.81522709524302,11.52467911615674
0.3359070452434476,0.5741455157226124,491,10,20.81522709524302,11.52467911615674
0.34164704929847434,0.574139775602138,491,10,20.81522709524302,11.52467911615674
0.34738699498396447,0.5741340355402049,491,10,20.81522709524302,11.52467911615674
0.3531268823761342,0.5741282955367238,491,10,20.81522709524302,11.52467911615674
0.3588667115453797,0.5741225555916124,491,10,20.81522709524302,11.52467911615674
0.36460648255672523,0.5741168157047942,491,10,20.81522709524302,11.52467911615674
0.37034619547023556,0.574111075876199,491,10,20.81522709524302,11.52467911615674
0.37608585034139846,0.5741053361057616,491,10,20.81522709524302,11.52467911615674
0.38182544722147665,0.5740995963934221,491,10,20.81522709524302,11.52467911615674
0.38756498615783247,0.5740938567391249,491,10,20.81522709524302,11.52467911615674
0.3933044671942284,0.5740881171428188,491,10,20.81522709524302,11.52467911615674
0.39904389037110394,0.5740823776044565,491,10,20.81522709524302,11.52467911615674
0.404783255725831,0.574076638123994,491,10,20.81522709524302,11.52467911615674
0.41052256329295045,0.574070898701391,491,10,20.81522709524302,11.52467911615674
0.4162618131043895,0.5740651593366103,491,10,20.81522709524302,11.52467911615674
0.42200100518966294,0.5740594200296171,491,10,20.81522709524302,11.52467911615674
0.427740139576059,0.5740536807803795,491,10,20.81522709524302,11.52467911615674
0.4334792162888103,0.5740479415888683,491,10,20.81522709524302,11.52467911615674
0.43921823535125226,0.5740422024550558,491,10,20.81522709524302,11.52467911615674
0.4449571967849686,0.574036463378917,491,10,20.81522709524302,11.52467911615674
0.450696100609927,0.5740307243604285,491,10,20.81522709524302,11.52467911615674
0.4564349468446025,0.5740249853995686,491,10,20.81522709524302,11.52467911615674
0.46217373550609303,0.5740192464963175,491,10,20.81522709524302,11.52467911615674
0.46791246661022495,0.5740135076506567,491,10,20.81522709524302,11.52467911615674
0.47365114017165133,0.5740077688625692,491,10,20.81522709524302,11.52467911615674
0.4793897562039415,0.574002030132039,491,10,20.81522709524302,11.52467911615674
0.4851283147196652,0.5739962914590514,491,10,20.81522709524302,11.52467911615674
0.4908668157304691,0.573990552843593,491,10,20.81522709524302,11.52467911615674
0.49660525924714777,0.5739848142856511,491,10,20.81522709524302,11.52467911615674
0.5023436452797094,0.5739790757852141,491,10,20.81522709524302,11.52467911615674
0.5080819738374364,0.5739733373422713,491,10,20.81522709524302,11.52467911615674
0.513820244928941,0.5739675989568126,491,10,20.81522709524302,11.52467911615674
0.5195584585622167,0.5739618606288287,491,10,20.81522709524302,11.52467911615674
0.5252966147446866,0.5739561223583111,491,10,20.81522709524302,11.52467911615674
0.5310347134832463,0.5739503841452517,491,10,20.81522709524302,11.52467911615674
0.5367727547843053,0.573944645989643,491,10,20.81522709524302,11.52467911615674
0.5425107386538238,0.5739389078914783,491,10,20.81522709524302,11.52467911615674
0.5482486650973477,0.573933169850751,491,10,20.81522709524302,11.52467911615674
0.5539865341200403,0.5739274318674553,491,10,20.81522709524302,11.52467911615674
0.5597243457267115,0.5739216939415855,491,10,20.81522709524302,11.52467911615674
0.5654620999218457,0.5739159560731367,491,10,20.81522709524302,11.52467911615674
0.5711997967096261,0.5739102182621039,491,10,20.81522709524302,11.52467911615674
0.5769374360939581,0.5739044805084824,491,10,20.81522709524302,11.52467911615674
0.582675018078491,0.5738987428122685,491,10,20.81522709524302,11.52467911615674
0.5884125426666371,0.5738930051734579,491,10,20.81522709524302,11.52467911615674
0.5941500098615906,0.5738872675920471,491,10,20.81522709524302,11.52467911615674
0.5998874196663437,0.5738815300680328,491,10,20.81522709524302,11.52467911615674
0.6056247720837029,0.5738757926014115,491,10,20.81522709524302,11.52467911615674
0.6113620671163026,0.5738700551921806,491,10,20.81522709524302,11.52467911615674
0.6170993047666188,0.573864317840337,491,10,20.81522709524302,11.52467911615674
0.6228364850369807,0.5738585805458781,491,10,20.81522709524302,11.52467911615674
0.6285736079295831,0.5738528433088015,491,10,20.81522709524302,11.52467911615674
0.6343106734464954,0.573847106129105,491,10,20.81522709524302,11.52467911615674
0.6400476815896721,0.5738413690067861,491,10,20.81522709524302,11.52467911615674
0.6457846323609617,0.5738356319418428,491,10,20.81522709524302,11.52467911615674
0.6515215257621141,0.5738298949342734,491,10,20.81522709524302,11.52467911615674
0.6572583617947894,0.5738241579840758,491,10,20.81522709524302,11.52467911615674
0.6629951404605632,0.5738184210912484,491,10,20.81522709524302,11.52467911615674
0.6687318617609346,0.5738126842557894,491,10,20.81522709524302,11.52467911615674
0.6744685256973313,0.5738069474776972,491,10,20.81522709524302,11.52467911615674
0.6802051322711151,0.5738012107569705,491,10,20.81522709524302,11.52467911615674
0.6859416814835873,0.5737954740936079,491,10,20.81522709524302,11.52467911615674
0.6916781733359935,0.5737897374876078,491,10,20.81522709524302,11.52467911615674
0.6974146078295269,0.573784000938969,491,10,20.81522709524302,11.52467911615674
0.7031509849653335,0.5737782644476902,491,10,20.81522709524302,11.52467911615674
0.7088873047445149,0.5737725280137703,491,10,20.81522709524302,11.52467911615674
0.7146235671681326,0.5737667916372081,491,10,20.81522709524302,11.52467911615674
0.7203597722372098,0.5737610553180026,491,10,20.81522709524302,11.52467911615674
0.7260959199527358,0.5737553190561526,491,10,20.81522709524302,11.52467911615674
0.7318320103156675,0.5737495828516572,491,10,20.81522709524302,11.52467911615674
0.737568043326932,0.5737438467045153,491,10,20.81522709524302,11.52467911615674
0.7433040189874297,0.573738110614726,491,10,20.81522709524302,11.52467911615674
0.7490399372980358,0.5737323745822883,491,10,20.81522709524302,11.52467911615674
0.7547757982596021,0.5737266386072014,491,10,20.81522709524302,11.52467911615674
0.7605116018729585,0.5737209026894644,491,10,20.81522709524302,11.52467911615674
0.7662473481389162,0.5737151668290764,491,10,20.81522709524302,11.52467911615674
0.7719830370582671,0.5737094310260367,491,10,20.81522709524302,11.52467911615674
0.7777186686317871,0.5737036952803444,491,10,20.81522709524302,11.52467911615674
0.7834542428602358,0.5736979595919985,491,10,20.81522709524302,11.52467911615674
0.7891897597443587,0.5736922239609986,491,10,20.81522709524302,11.52467911615674
0.7949252192848884,0.5736864883873437,491,10,20.81522709524302,11.52467911615674
0.8006606214825448,0.5736807528710332,491,10,20.81522709524302,11.52467911615674
0.8063959663380365,0.5736750174120662,491,10,20.81522709524302,11.52467911615674
0.812131253852062,0.5736692820104421,491,10,20.81522709524302,11.52467911615674
0.8178664840253099,0.5736635466661602,491,10,20.81522709524302,11.52467911615674
0.8236016568584603,0.5736578113792197,491,10,20.81522709524302,11.52467911615674
0.8293367723521844,0.57365207614962,491,10,20.81522709524302,11.52467911615674
0.8350718305071467,0.5736463409773603,491,10,20.81522709524302,11.52467911615674
0.8408068313240037,0.5736406058624401,491,10,20.81522709524302,11.52467911615674
0.8465417748034065,0.5736348708048586,491,10,20.81522709524302,11.52467911615674
0.8522766609459994,0.5736291358046154,491,10,20.81522709524302,11.52467911615674
0.8580114897524216,0.5736234008617095,491,10,20.81522709524302,11.52467911615674
0.8637462612233072,0.5736176659761404,491,10,20.81522709524302,11.52467911615674
0.8694809753592858,0.5736119311479074,491,10,20.81522709524302,11.52467911615674
0.8752156321609817,0.57360619637701,491,10,20.81522709524302,11.52467911615674
0.8809502316290168,0.5736004616634475,491,10,20.81522709524302,11.52467911615674
0.886684773764008,0.5735947270072193,491,10,20.81522709524302,11.52467911615674
0.8924192585665695,0.5735889924083247,491,10,20.81522709524302,11.52467911615674
0.8981536860373116,0.5735832578667632,491,10,20.81522709524302,11.52467911615674
0.9038880561768428,0.5735775233825341,491,10,20.81522709524302,11.52467911615674
0.9096223689857681,0.5735717889556369,491,10,20.81522709524302,11.52467911615674
0.9153566244646902,0.5735660545860708,491,10,20.81522709524302,11.52467911615674
0.9210908226142098,0.5735603202738353,491,10,20.81522709524302,11.52467911615674
0.926824963434925,0.5735545860189297,491,10,20.81522709524302,11.52467911615674
0.9325590469274326,0.5735488518213537,491,10,20.81522709524302,11.52467911615674
0.9382930730923267,0.5735431176811064,491,10,20.81522709524302,11.52467911615674
0.9440270419302008,0.5735373835981873,491,10,20.81522709524302,11.52467911615674
0.949760953441646,0.5735316495725958,491,10,20.81522709524302,11.52467911615674
0.9554948076272524,0.5735259156043314,491,10,20.81522709524302,11.52467911615674
0.9612286044876088,0.5735201816933934,491,10,20.81522709524302,11.52467911615674
0.9669623440233026,0.5735144478397811,491,10,20.81522709524302,11.52467911615674
0.9726960262349204,0.5735087140434941,491,10,20.81522709524302,11.52467911615674
0.9784296511230475,0.5735029803045318,491,10,20.81522709524302,11.52467911615674
0.9841632186882681,0.5734972466228936,491,10,20.81522709524302,11.52467911615674
0.9898967289311659,0.5734915129985788,491,10,20.81522709524302,11.52467911615674
0.9956301818523237,0.573485779431587,491,10,20.81522709524302,11.52467911615674
1.001363577452323,0.5734800459219175,491,10,20.81522709524302,11.52467911615674
1.0070969157317462,0.5734743124695697,491,10,20.81522709524302,11.52467911615674
1.0128301966911726,0.573468579074543,491,10,20.81522709524302,11.52467911615674
1.0185634203311833,0.5734628457368369,491,10,20.81522709524302,11.52467911615674
1.0242965866523575,0.5734571124564508,491,10,20.81522709524302,11.52467911615674
1.030029695655274,0.5734513792333842,491,10,20.81522709524302,11.52467911615674
1.0357627473405118,0.5734456460676364,491,10,20.81522709524302,11.52467911615674
1.0414957417086488,0.5734399129592067,491,10,20.81522709524302,11.52467911615674
1.0472286787602623,0.5734341799080948,491,10,20.81522709524302,11.52467911615674
1.0529615584959302,0.5734284469143,491,10,20.81522709524302,11.52467911615674
1.0586943809162295,0.5734227139778216,491,10,20.81522709524302,11.52467911615674
1.0644271460217367,0.5734169810986594,491,10,20.81522709524302,11.52467911615674
1.0701598538130284,0.5734112482768123,491,10,20.81522709524302,11.52467911615674
1.0758925042906806,0.57340551551228,491,10,20.81522709524302,11.52467911615674
1.0816250974552692,0.5733997828050621,491,10,20.81522709524302,11.52467911615674
1.08735763330737,0.5733940501551577,491,10,20.81522709524302,11.52467911615674
1.0930901118475589,0.5733883175625664,491,10,20.81522709524302,11.52467911615674
1.0988225330764103,0.5733825850272876,491,10,20.81522709524302,11.52467911615674
1.1045548969944996,0.5733768525493206,491,10,20.81522709524302,11.52467911615674
1.1102872036024016,0.573371120128665,491,10,20.81522709524302,11.52467911615674
1.1160194529006917,0.5733653877653202,491,10,20.81522709524302,11.52467911615674
1.1217516448899438,0.5733596554592855,491,10,20.81522709524302,11.52467911615674
1.1274837795707329,0.5733539232105604,491,10,20.81522709524302,11.52467911615674
1.1332158569436328,0.5733481910191445,491,10,20.81522709524302,11.52467911615674
1.1389478770092183,0.5733424588850369,491,10,20.81522709524302,11.52467911615674
1.144679839768063,0.5733367268082372,491,10,20.81522709524302,11.52467911615674
1.1504117452207414,0.5733309947887448,491,10,20.81522709524302,11.52467911615674
1.1561435933678272,0.5733252628265592,491,10,20.81522709524302,11.52467911615674
1.1618753842098948,0.5733195309216798,491,10,20.81522709524302,11.52467911615674
1.1676071177475174,0.5733137990741058,491,10,20.81522709524302,11.52467911615674
1.1733387939812685,0.573308067283837,491,10,20.81522709524302,11.52467911615674
1.1790704129117224,0.5733023355508725,491,10,20.81522709524302,11.52467911615674
1.184801974539452,0.573296603875212,491,10,20.81522709524302,11.52467911615674
1.1905334788650317,0.5732908722568546,491,10,20.81522709524302,11.52467911615674
1.1962649258890339,0.5732851406958,491,10,20.81522709524302,11.52467911615674
1.2019963156120335,0.5732794091920477,491,10,20.81522709524302,11.52467911615674
1.2077276480346026,0.5732736777455968,491,10,20.81522709524302,11.52467911615674
1.2134589231573147,0.573267946356447,491,10,20.81522709524302,11.52467911615674
1.2191901409807435,0.5732622150245975,491,10,20.81522709524302,11.52467911615674
1.2249213015054619,0.573256483750048,491,10,20.81522709524302,11.52467911615674
1.2306524047320437,0.5732507525327977,491,10,20.81522709524302,11.52467911615674
1.2363834506610614,0.573245021372846,491,10,20.81522709524302,11.52467911615674
1.2421144392930885,0.5732392902701926,491,10,20.81522709524302,11.52467911615674
1.247845370628698,0.5732335592248368,491,10,20.81522709524302,11.52467911615674
1.253576244668463,0.5732278282367778,491,10,20.81522709524302,11.52467911615674
1.2593070614129567,0.5732220973060153,491,10,20.81522709524302,11.52467911615674
1.265037820862752,0.5732163664325486,491,10,20.81522709524302,11.52467911615674
1.2707685230184218,0.5732106356163772,491,10,20.81522709524302,11.52467911615674
1.276499167880539,0.5732049048575005,491,10,20.81522709524302,11.52467911615674
1.2822297554496775,0.5731991741559179,491,10,20.81522709524302,11.52467911615674
1.2879602857264092,0.5731934435116289,491,10,20.81522709524302,11.52467911615674
1.2936907587113076,0.5731877129246329,491,10,20.81522709524302,11.52467911615674
1.299421174404945,0.5731819823949291,491,10,20.81522709524302,11.52467911615674
1.3051515328078955,0.5731762519225173,491,10,20.81522709524302,11.52467911615674
1.3108818339207304,0.5731705215073968,491,10,20.81522709524302,11.52467911615674
1.316612077744024,0.5731647911495669,491,10,20.81522709524302,11.52467911615674
1.3223422642783487,0.573159060849027,491,10,20.81522709524302,11.52467911615674
1.3280723935242766,0.5731533306057768,491,10,20.81522709524302,11.52467911615674
1.3338024654823815,0.5731476004198155,491,10,20.81522709524302,11.52467911615674
1.3395324801532358,0.5731418702911426,491,10,20.81522709524302,11.52467911615674
1.3452624375374123,0.5731361402197575,491,10,20.81522709524302,11.52467911615674
1.3509923376354838,0.5731304102056597,491,10,20.81522709524302,11.52467911615674
1.3567221804480236,0.5731246802488484,491,10,20.81522709524302,11.52467911615674
1.362451965975604,0.5731189503493235,491,10,20.81522709524302,11.52467911615674
1.3681816942187977,0.5731132205070839,491,10,20.81522709524302,11.52467911615674
1.3739113651781776,0.5731074907221293,491,10,20.81522709524302,11.52467911615674
1.3796409788543167,0.5731017609944591,491,10,20.81522709524302,11.52467911615674
1.3853705352477874,0.5730960313240727,491,10,20.81522709524302,11.52467911615674
1.3911000343591624,0.5730903017109695,491,10,20.81522709524302,11.52467911615674
