Vout,Iout,Irradiance,Temperature,MaxVoltage,MaxPower
0.005701985173219488,1.1404079999999999,1011,-11,19.280375883418944,21.616192064684718
0.017105850084555896,1.1404079999999999,1011,-11,19.280375883418944,21.616192064684718
0.02850948315817901,1.1404021839740266,1011,-11,19.280375883418944,21.616192064684718
0.03991284297635813,1.1403907801091153,1011,-11,19.280375883418944,21.616192064684718
0.051315916003060305,1.1403793764766232,1011,-11,19.280375883418944,21.616192064684718
0.06271871553497253,1.1403679731179455,1011,-11,19.280375883418944,21.616192064684718
0.07412125384618042,1.1403565700460592,1011,-11,19.280375883418944,21.616192064684718
0.0855235422665962,1.1403451672476677,1011,-11,19.280375883418944,21.616192064684718
0.09692559125447853,1.1403337647104967,1011,-11,19.280375883418944,21.616192064684718
0.1083274104634989,1.1403223624232166,1011,-11,19.280375883418944,21.616192064684718
0.11972900880464783,1.140310960375369,1011,-11,19.280375883418944,21.616192064684718
0.13113039450337788,1.1402995585573001,1011,-11,19.280375883418944,21.616192064684718
0.14253157515235,1.140288156960099,1011,-11,19.280375883418944,21.616192064684718
0.15393255776012166,1.1402767555755406,1011,-11,19.280375883418944,21.616192064684718
0.1653333487960884,1.1402653543960317,1011,-11,19.280375883418944,21.616192064684718
0.17673395423196814,1.1402539534145641,1011,-11,19.280375883418944,21.616192064684718
0.18813437958009302,1.1402425526246684,1011,-11,19.280375883418944,21.616192064684718
0.1995346299287553,1.1402311520203725,1011,-11,19.280375883418944,21.616192064684718
0.21093470997483382,1.1402197515961645,1011,-11,19.280375883418944,21.616192064684718
0.22233462405390972,1.1402083513469559,1011,-11,19.280375883418944,21.616192064684718
0.23373437616806556,1.1401969512680499,1011,-11,19.280375883418944,21.616192064684718
0.2451339700115448,1.140185551355111,1011,-11,19.280375883418944,21.616192064684718
0.25653340899443783,1.1401741516041366,1011,-11,19.280375883418944,21.616192064684718
0.2679326962645448,1.1401627520114332,1011,-11,19.280375883418944,21.616192064684718
0.2793318347275571,1.1401513525735902,1011,-11,19.280375883418944,21.616192064684718
0.29073082706568515,1.14013995328746,1011,-11,19.280375883418944,21.616192064684718
0.3021296757548536,1.1401285541501371,1011,-11,19.280375883418944,21.616192064684718
0.31352838308057307,1.1401171551589389,1011,-11,19.280375883418944,21.616192064684718
0.3249269511525911,1.1401057563113897,1011,-11,19.280375883418944,21.616192064684718
0.33632538191841593,1.1400943576052038,1011,-11,19.280375883418944,21.616192064684718
0.34772367717579855,1.1400829590382717,1011,-11,19.280375883418944,21.616192064684718
0.35912183858425617,1.1400715606086458,1011,-11,19.280375883418944,21.616192064684718
0.37051986767570777,1.1400601623145281,1011,-11,19.280375883418944,21.616192064684718
0.38191776586429166,1.1400487641542596,1011,-11,19.280375883418944,21.616192064684718
0.3933155344554276,1.140037366126308,1011,-11,19.280375883418944,21.616192064684718
0.4047131746541823,1.140025968229259,1011,-11,19.280375883418944,21.616192064684718
0.4161106875729902,1.1400145704618079,1011,-11,19.280375883418944,21.616192064684718
0.42750807423878084,1.1400031728227489,1011,-11,19.280375883418944,21.616192064684718
0.43890533559955797,1.1399917753109698,1011,-11,19.280375883418944,21.616192064684718
0.450302472530472,1.1399803779254438,1011,-11,19.280375883418944,21.616192064684718
0.4616994858394257,1.1399689806652227,1011,-11,19.280375883418944,21.616192064684718
0.4730963762722479,1.1399575835294316,1011,-11,19.280375883418944,21.616192064684718
0.48449314451746994,1.1399461865172624,1011,-11,19.280375883418944,21.616192064684718
0.4958897912107343,1.1399347896279692,1011,-11,19.280375883418944,21.616192064684718
0.5072863169388635,1.1399233928608636,1011,-11,19.280375883418944,21.616192064684718
0.5186827222436167,1.1399119962153101,1011,-11,19.280375883418944,21.616192064684718
0.5300790076251571,1.1399005996907217,1011,-11,19.280375883418944,21.616192064684718
0.5414751735452519,1.1398892032865566,1011,-11,19.280375883418944,21.616192064684718
0.5528712204302271,1.1398778070023148,1011,-11,19.280375883418944,21.616192064684718
0.5642671486736941,1.1398664108375343,1011,-11,19.280375883418944,21.616192064684718
0.5756629586390664,1.139855014791789,1011,-11,19.280375883418944,21.616192064684718
0.5870586506618841,1.139843618864685,1011,-11,19.280375883418944,21.616192064684718
0.598454225051958,1.1398322230558593,1011,-11,19.280375883418944,21.616192064684718
0.6098496820953487,1.1398208273649761,1011,-11,19.280375883418944,21.616192064684718
0.6212450220561947,1.1398094317917256,1011,-11,19.280375883418944,21.616192064684718
0.6326402451783989,1.1397980363358218,1011,-11,19.280375883418944,21.616192064684718
0.6440353516871856,1.1397866409970006,1011,-11,19.280375883418944,21.616192064684718
0.6554303417905375,1.1397752457750179,1011,-11,19.280375883418944,21.616192064684718
0.6668252156805227,1.1397638506696486,1011,-11,19.280375883418944,21.616192064684718
0.6782199735345185,1.1397524556806848,1011,-11,19.280375883418944,21.616192064684718
0.6896146155163423,1.1397410608079344,1011,-11,19.280375883418944,21.616192064684718
0.701009141777295,1.1397296660512197,1011,-11,19.280375883418944,21.616192064684718
0.7124035524571234,1.1397182714103775,1011,-11,19.280375883418944,21.616192064684718
0.7237978476849097,1.139706876885256,1011,-11,19.280375883418944,21.616192064684718
0.7351920275798923,1.1396954824757155,1011,-11,19.280375883418944,21.616192064684718
0.746586092252222,1.1396840881816273,1011,-11,19.280375883418944,21.616192064684718
0.7579800418036627,1.1396726940028716,1011,-11,19.280375883418944,21.616192064684718
0.769373876328236,1.1396612999393387,1011,-11,19.280375883418944,21.616192064684718
0.7807675959128167,1.1396499059909269,1011,-11,19.280375883418944,21.616192064684718
0.7921612006376835,1.1396385121575416,1011,-11,19.280375883418944,21.616192064684718
0.8035546905770248,1.1396271184390965,1011,-11,19.280375883418944,21.616192064684718
0.8149480657994097,1.139615724835511,1011,-11,19.280375883418944,21.616192064684718
0.8263413263682183,1.139604331346711,1011,-11,19.280375883418944,21.616192064684718
0.8377344723420422,1.139592937972628,1011,-11,19.280375883418944,21.616192064684718
0.8491275037750522,1.1395815447131985,1011,-11,19.280375883418944,21.616192064684718
0.8605204207173387,1.139570151568364,1011,-11,19.280375883418944,21.616192064684718
0.8719132232152259,1.1395587585380704,1011,-11,19.280375883418944,21.616192064684718
0.8833059113115609,1.1395473656222674,1011,-11,19.280375883418944,21.616192064684718
0.8946984850459825,1.1395359728209087,1011,-11,19.280375883418944,21.616192064684718
0.9060909444551665,1.1395245801339517,1011,-11,19.280375883418944,21.616192064684718
0.9174832895730544,1.1395131875613567,1011,-11,19.280375883418944,21.616192064684718
0.9288755204310644,1.1395017951030866,1011,-11,19.280375883418944,21.616192064684718
0.9402676370582843,1.139490402759108,1011,-11,19.280375883418944,21.616192064684718
0.9516596394816519,1.1394790105293893,1011,-11,19.280375883418944,21.616192064684718
0.9630515277261198,1.1394676184139012,1011,-11,19.280375883418944,21.616192064684718
0.974443301814808,1.1394562264126171,1011,-11,19.280375883418944,21.616192064684718
0.9858349617691456,1.139444834525512,1011,-11,19.280375883418944,21.616192064684718
0.9972265076090008,1.1394334427525623,1011,-11,19.280375883418944,21.616192064684718
1.0086179393528,1.1394220510937472,1011,-11,19.280375883418944,21.616192064684718
1.0200092570176398,1.1394106595490465,1011,-11,19.280375883418944,21.616192064684718
1.0314004606193892,1.139399268118442,1011,-11,19.280375883418944,21.616192064684718
1.0427915501727831,1.1393878768019163,1011,-11,19.280375883418944,21.616192064684718
1.0541825256915107,1.1393764855994537,1011,-11,19.280375883418944,21.616192064684718
1.0655733871882958,1.1393650945110394,1011,-11,19.280375883418944,21.616192064684718
1.07696413467497,1.1393537035366599,1011,-11,19.280375883418944,21.616192064684718
1.0883547681625432,1.139342312676302,1011,-11,19.280375883418944,21.616192064684718
1.0997452876612652,1.1393309219299546,1011,-11,19.280375883418944,21.616192064684718
1.1111356931806846,1.139319531297606,1011,-11,19.280375883418944,21.616192064684718
1.122525984729703,1.1393081407792465,1011,-11,19.280375883418944,21.616192064684718
1.1339161623166254,1.139296750374866,1011,-11,19.280375883418944,21.616192064684718
1.1453062259492037,1.1392853600844561,1011,-11,19.280375883418944,21.616192064684718
1.1566961756346827,1.139273969908008,1011,-11,19.280375883418944,21.616192064684718
1.1680860113798368,1.1392625798455147,1011,-11,19.280375883418944,21.616192064684718
1.1794757331910062,1.1392511898969682,1011,-11,19.280375883418944,21.616192064684718
1.1908653410741314,1.139239800062362,1011,-11,19.280375883418944,21.616192064684718
1.2022548350347837,1.1392284103416899,1011,-11,19.280375883418944,21.616192064684718
1.213644215078192,1.1392170207349457,1011,-11,19.280375883418944,21.616192064684718
1.2250334812092727,1.1392056312421242,1011,-11,19.280375883418944,21.616192064684718
1.236422633432649,1.1391942418632195,1011,-11,19.280375883418944,21.616192064684718
1.2478116717526773,1.1391828525982275,1011,-11,19.280375883418944,21.616192064684718
1.259200596173467,1.139171463447143,1011,-11,19.280375883418944,21.616192064684718
1.2705894066988974,1.139160074409962,1011,-11,19.280375883418944,21.616192064684718
1.2819781033326376,1.1391486854866801,1011,-11,19.280375883418944,21.616192064684718
1.2933666860781623,1.1391372966772935,1011,-11,19.280375883418944,21.616192064684718
1.304755154938766,1.1391259079817986,1011,-11,19.280375883418944,21.616192064684718
1.3161435099175773,1.139114519400192,1011,-11,19.280375883418944,21.616192064684718
1.3275317510175721,1.1391031309324704,1011,-11,19.280375883418944,21.616192064684718
1.3389198782415843,1.1390917425786304,1011,-11,19.280375883418944,21.616192064684718
1.3503078915923175,1.1390803543386692,1011,-11,19.280375883418944,21.616192064684718
1.3616957910723555,1.1390689662125841,1011,-11,19.280375883418944,21.616192064684718
1.3730835766841691,1.139057578200372,1011,-11,19.280375883418944,21.616192064684718
1.3844712484301294,1.1390461903020308,1011,-11,19.280375883418944,21.616192064684718
1.395858806312509,1.1390348025175578,1011,-11,19.280375883418944,21.616192064684718
1.407246250333497,1.1390234148469507,1011,-11,19.280375883418944,21.616192064684718
1.418633580495199,1.1390120272902071,1011,-11,19.280375883418944,21.616192064684718
1.4300207967996472,1.139000639847325,1011,-11,19.280375883418944,21.616192064684718
1.4414078992488049,1.1389892525183019,1011,-11,19.280375883418944,21.616192064684718
1.4527948878445713,1.1389778653031362,1011,-11,19.280375883418944,21.616192064684718
1.4641817625887878,1.1389664782018258,1011,-11,19.280375883418944,21.616192064684718
1.475568523483242,1.1389550912143687,1011,-11,19.280375883418944,21.616192064684718
1.4869551705296702,1.1389437043407633,1011,-11,19.280375883418944,21.616192064684718
1.4983417037297637,1.1389323175810075,1011,-11,19.280375883418944,21.616192064684718
1.5097281230851711,1.1389209309350998,1011,-11,19.280375883418944,21.616192064684718
1.521114428597501,1.1389095444030384,1011,-11,19.280375883418944,21.616192064684718
1.5325006202683267,1.1388981579848216,1011,-11,19.280375883418944,21.616192064684718
1.5438866980991877,1.1388867716804478,1011,-11,19.280375883418944,21.616192064684718
1.5552726620915922,1.1388753854899158,1011,-11,19.280375883418944,21.616192064684718
1.566658512247021,1.1388639994132235,1011,-11,19.280375883418944,21.616192064684718
1.5780442485669268,1.1388526134503698,1011,-11,19.280375883418944,21.616192064684718
1.5894298710527397,1.1388412276013529,1011,-11,19.280375883418944,21.616192064684718
1.6008153797058664,1.1388298418661715,1011,-11,19.280375883418944,21.616192064684718
1.6122007745276934,1.1388184562448245,1011,-11,19.280375883418944,21.616192064684718
1.6235860555195878,1.13880707073731,1011,-11,19.280375883418944,21.616192064684718
1.634971222682899,1.1387956853436265,1011,-11,19.280375883418944,21.616192064684718
1.6463562760189598,1.1387843000637732,1011,-11,19.280375883418944,21.616192064684718
1.6577412155290892,1.1387729148977483,1011,-11,19.280375883418944,21.616192064684718
1.6691260412145914,1.138761529845551,1011,-11,19.280375883418944,21.616192064684718
1.6805107530767576,1.1387501449071793,1011,-11,19.280375883418944,21.616192064684718
1.6918953511168675,1.1387387600826322,1011,-11,19.280375883418944,21.616192064684718
1.7032798353361902,1.1387273753719087,1011,-11,19.280375883418944,21.616192064684718
1.7146642057359842,1.138715990775007,1011,-11,19.280375883418944,21.616192064684718
1.7260484623174992,1.1387046062919262,1011,-11,19.280375883418944,21.616192064684718
1.7374326050819755,1.1386932219226649,1011,-11,19.280375883418944,21.616192064684718
1.748816634030646,1.1386818376672216,1011,-11,19.280375883418944,21.616192064684718
1.7602005491647363,1.1386704535255956,1011,-11,19.280375883418944,21.616192064684718
1.7715843504854656,1.1386590694977854,1011,-11,19.280375883418944,21.616192064684718
1.7829680379940465,1.1386476855837897,1011,-11,19.280375883418944,21.616192064684718
1.7943516116916853,1.1386363017836074,1011,-11,19.280375883418944,21.616192064684718
1.8057350715795835,1.1386249180972372,1011,-11,19.280375883418944,21.616192064684718
1.817118417658938,1.138613534524678,1011,-11,19.280375883418944,21.616192064684718
1.82850164993094,1.1386021510659285,1011,-11,19.280375883418944,21.616192064684718
1.8398847683967787,1.1385907677209874,1011,-11,19.280375883418944,21.616192064684718
1.8512677730576372,1.1385793844898537,1011,-11,19.280375883418944,21.616192064684718
1.8626506639146965,1.1385680013725263,1011,-11,19.280375883418944,21.616192064684718
1.8740334409691333,1.1385566183690037,1011,-11,19.280375883418944,21.616192064684718
1.8854161042221214,1.138545235479285,1011,-11,19.280375883418944,21.616192064684718
1.8967986536748325,1.1385338527033688,1011,-11,19.280375883418944,21.616192064684718
1.9081810893284354,1.1385224700412542,1011,-11,19.280375883418944,21.616192064684718
1.9195634111840962,1.1385110874929398,1011,-11,19.280375883418944,21.616192064684718
1.9309456192429792,1.1384997050584245,1011,-11,19.280375883418944,21.616192064684718
1.9423277135062464,1.138488322737707,1011,-11,19.280375883418944,21.616192064684718
1.9537096939750578,1.1384769405307864,1011,-11,19.280375883418944,21.616192064684718
1.9650915606505714,1.1384655584376613,1011,-11,19.280375883418944,21.616192064684718
1.976473313533945,1.1384541764583307,1011,-11,19.280375883418944,21.616192064684718
1.9878549526263334,1.1384427945927935,1011,-11,19.280375883418944,21.616192064684718
1.999236477928891,1.1384314128410482,1011,-11,19.280375883418944,21.616192064684718
2.0106178894427695,1.138420031203094,1011,-11,19.280375883418944,21.616192064684718
2.021999187169121,1.1384086496789296,1011,-11,19.280375883418944,21.616192064684718
2.0333803711090965,1.138397268268554,1011,-11,19.280375883418944,21.616192064684718
2.044761441263845,1.1383858869719659,1011,-11,19.280375883418944,21.616192064684718
2.0561423976345146,1.1383745057891639,1011,-11,19.280375883418944,21.616192064684718
2.067523240222253,1.1383631247201473,1011,-11,19.280375883418944,21.616192064684718
2.078903969028208,1.1383517437649149,1011,-11,19.280375883418944,21.616192064684718
2.0902845840535242,1.1383403629234652,1011,-11,19.280375883418944,21.616192064684718
2.1016650852993477,1.1383289821957974,1011,-11,19.280375883418944,21.616192064684718
2.113045472766825,1.13831760158191,1011,-11,19.280375883418944,21.616192064684718
2.124425746457098,1.1383062210818022,1011,-11,19.280375883418944,21.616192064684718
2.1358059063713113,1.138294840695473,1011,-11,19.280375883418944,21.616192064684718
2.1471859525106094,1.1382834604229206,1011,-11,19.280375883418944,21.616192064684718
2.1585658848761335,1.1382720802641444,1011,-11,19.280375883418944,21.616192064684718
2.169945703469027,1.1382607002191432,1011,-11,19.280375883418944,21.616192064684718
2.1813254082904305,1.1382493202879158,1011,-11,19.280375883418944,21.616192064684718
2.1927049993414873,1.1382379404704608,1011,-11,19.280375883418944,21.616192064684718
2.2040844766233376,1.1382265607667774,1011,-11,19.280375883418944,21.616192064684718
2.2154638401371227,1.1382151811768644,1011,-11,19.280375883418944,21.616192064684718
2.226843089883983,1.1382038017007206,1011,-11,19.280375883418944,21.616192064684718
2.23822222586506,1.1381924223383446,1011,-11,19.280375883418944,21.616192064684718
2.249601248081493,1.1381810430897357,1011,-11,19.280375883418944,21.616192064684718
2.2609801565344214,1.1381696639548926,1011,-11,19.280375883418944,21.616192064684718
2.2723589512249864,1.138158284933814,1011,-11,19.280375883418944,21.616192064684718
2.2837376321543266,1.138146906026499,1011,-11,19.280375883418944,21.616192064684718
2.295116199323582,1.1381355272329463,1011,-11,19.280375883418944,21.616192064684718
2.3064946527338908,1.138124148553155,1011,-11,19.280375883418944,21.616192064684718
2.317872992386393,1.1381127699871236,1011,-11,19.280375883418944,21.616192064684718
2.3292512182822267,1.138101391534851,1011,-11,19.280375883418944,21.616192064684718
2.340629330422532,1.1380900131963365,1011,-11,19.280375883418944,21.616192064684718
2.352007328808446,1.1380786349715786,1011,-11,19.280375883418944,21.616192064684718
2.363385213441109,1.138067256860576,1011,-11,19.280375883418944,21.616192064684718
2.3747629843216567,1.138055878863328,1011,-11,19.280375883418944,21.616192064684718
2.3861406414512305,1.138044500979833,1011,-11,19.280375883418944,21.616192064684718
2.3975181848309663,1.1380331232100904,1011,-11,19.280375883418944,21.616192064684718
2.408895614462004,1.1380217455540986,1011,-11,19.280375883418944,21.616192064684718
2.420272930345481,1.1380103680118565,1011,-11,19.280375883418944,21.616192064684718
2.4316501324825346,1.1379989905833634,1011,-11,19.280375883418944,21.616192064684718
2.443027220874303,1.1379876132686175,1011,-11,19.280375883418944,21.616192064684718
2.454404195521925,1.1379762360676182,1011,-11,19.280375883418944,21.616192064684718
2.465781056426538,1.1379648589803641,1011,-11,19.280375883418944,21.616192064684718
2.4771578035892783,1.1379534820068544,1011,-11,19.280375883418944,21.616192064684718
2.488534437011285,1.1379421051470875,1011,-11,19.280375883418944,21.616192064684718
2.4999109566936952,1.1379307284010625,1011,-11,19.280375883418944,21.616192064684718
2.5112873626376477,1.137919351768778,1011,-11,19.280375883418944,21.616192064684718
2.5226636548442785,1.1379079752502332,1011,-11,19.280375883418944,21.616192064684718
2.5340398333147256,1.137896598845427,1011,-11,19.280375883418944,21.616192064684718
2.545415898050126,1.137885222554358,1011,-11,19.280375883418944,21.616192064684718
2.556791849051618,1.1378738463770253,1011,-11,19.280375883418944,21.616192064684718
2.568167686320338,1.1378624703134275,1011,-11,19.280375883418944,21.616192064684718
2.5795434098574246,1.1378510943635636,1011,-11,19.280375883418944,21.616192064684718
2.590919019664014,1.1378397185274325,1011,-11,19.280375883418944,21.616192064684718
2.602294515741244,1.137828342805033,1011,-11,19.280375883418944,21.616192064684718
2.613669898090252,1.137816967196364,1011,-11,19.280375883418944,21.616192064684718
2.625045166712174,1.1378055917014243,1011,-11,19.280375883418944,21.616192064684718
2.6364203216081488,1.1377942163202128,1011,-11,19.280375883418944,21.616192064684718
