Vout,Iout,Irradiance,Temperature,MaxVoltage,MaxPower
0.010853355640811146,2.170692,1791,31,22.377965639837807,48.07585412315537
0.03255986623361534,2.170692,1791,31,22.377965639837807,48.07585412315537
0.05426593553850369,2.170680929575159,1791,31,22.377965639837807,48.07585412315537
0.07597148471953614,2.170659223064566,1791,31,22.377965639837807,48.07585412315537
0.09767648801175981,2.1706375169963685,1791,31,22.377965639837807,48.07585412315537
0.11938097072454823,2.170615811449358,1791,31,22.377965639837807,48.07585412315537
0.14108495622082018,2.1705941064482364,1791,31,22.377965639837807,48.07585412315537
0.1627884660663221,2.170572401967694,1791,31,22.377965639837807,48.07585412315537
0.18449152016766504,2.1705506979843685,1791,31,22.377965639837807,48.07585412315537
0.2061941368999809,2.1705289944766935,1791,31,22.377965639837807,48.07585412315537
0.227896333224757,2.1705072914247623,1791,31,22.377965639837807,48.07585412315537
0.24959812479860402,2.1704855888102004,1791,31,22.377965639837807,48.07585412315537
0.2712995260736553,2.1704638866160457,1791,31,22.377965639837807,48.07585412315537
0.29300055039024103,2.1704421848266424,1791,31,22.377965639837807,48.07585412315537
0.31470121006243285,2.1704204834275376,1791,31,22.377965639837807,48.07585412315537
0.33640151645700445,2.170398782405391,1791,31,22.377965639837807,48.07585412315537
0.3581014800663196,2.170377081747889,1791,31,22.377965639837807,48.07585412315537
0.3798011105756096,2.1703553814436645,1791,31,22.377965639837807,48.07585412315537
0.4015004169250761,2.170333681482225,1791,31,22.377965639837807,48.07585412315537
0.42319940736721384,2.170311981853886,1791,31,22.377965639837807,48.07585412315537
0.44489808951972515,2.170290282549707,1791,31,22.377965639837807,48.07585412315537
0.4665964704143608,2.1702685835614344,1791,31,22.377965639837807,48.07585412315537
0.48829455654200454,2.170246884881452,1791,31,22.377965639837807,48.07585412315537
0.5099923538942882,2.1702251865027273,1791,31,22.377965639837807,48.07585412315537
0.531689868002005,2.1702034884187693,1791,31,22.377965639837807,48.07585412315537
0.5533871039705669,2.170181790623587,1791,31,22.377965639837807,48.07585412315537
0.5750840665127346,2.170160093111649,1791,31,22.377965639837807,48.07585412315537
0.596780759978828,2.17013839587785,1791,31,22.377965639837807,48.07585412315537
0.6184771883846135,2.170116698917478,1791,31,22.377965639837807,48.07585412315537
0.6401733554370452,2.1700950022261813,1791,31,22.377965639837807,48.07585412315537
0.6618692645580252,2.1700733057999453,1791,31,22.377965639837807,48.07585412315537
0.6835649189063355,2.1700516096350624,1791,31,22.377965639837807,48.07585412315537
0.7052603213978834,2.1700299137281114,1791,31,22.377965639837807,48.07585412315537
0.7269554747243888,2.1700082180759326,1791,31,22.377965639837807,48.07585412315537
0.7486503813706332,2.1699865226756105,1791,31,22.377965639837807,48.07585412315537
0.7703450436303817,2.1699648275244536,1791,31,22.377965639837807,48.07585412315537
0.7920394636210805,2.1699431326199767,1791,31,22.377965639837807,48.07585412315537
0.8137336432974229,2.1699214379598866,1791,31,22.377965639837807,48.07585412315537
0.835427584463872,2.1698997435420657,1791,31,22.377965639837807,48.07585412315537
0.8571212887862196,2.1698780493645584,1791,31,22.377965639837807,48.07585412315537
0.8788147578022553,2.1698563554255617,1791,31,22.377965639837807,48.07585412315537
0.9005079929316155,2.1698346617234088,1791,31,22.377965639837807,48.07585412315537
0.9222009954848751,2.169812968256562,1791,31,22.377965639837807,48.07585412315537
0.9438937666719374,2.169791275023602,1791,31,22.377965639837807,48.07585412315537
0.9655863076097809,2.169769582023218,1791,31,22.377965639837807,48.07585412315537
0.9872786193296089,2.1697478892542006,1791,31,22.377965639837807,48.07585412315537
1.008970702783449,2.1697261967154318,1791,31,22.377965639837807,48.07585412315537
1.030662558850245,2.1697045044058814,1791,31,22.377965639837807,48.07585412315537
1.05235418834148,2.169682812324597,1791,31,22.377965639837807,48.07585412315537
1.074045592006368,2.1696611204706993,1791,31,22.377965639837807,48.07585412315537
1.0957367705366434,2.1696394288433773,1791,31,22.377965639837807,48.07585412315537
1.117427724570984,2.1696177374418815,1791,31,22.377965639837807,48.07585412315537
1.1391184546990942,2.16959604626552,1791,31,22.377965639837807,48.07585412315537
1.1608089614654726,2.1695743553136553,1791,31,22.377965639837807,48.07585412315537
1.1824992453728886,2.169552664585696,1791,31,22.377965639837807,48.07585412315537
1.204189306885596,2.169530974081099,1791,31,22.377965639837807,48.07585412315537
1.2258791464322942,2.1695092837993606,1791,31,22.377965639837807,48.07585412315537
1.2475687644088653,2.169487593740017,1791,31,22.377965639837807,48.07585412315537
1.2692581611808973,2.169465903902639,1791,31,22.377965639837807,48.07585412315537
1.2909473370860172,2.1694442142868318,1791,31,22.377965639837807,48.07585412315537
1.3126362924360404,2.1694225248922288,1791,31,22.377965639837807,48.07585412315537
1.334325027518958,2.169400835718492,1791,31,22.377965639837807,48.07585412315537
1.356013542600769,2.169379146765311,1791,31,22.377965639837807,48.07585412315537
1.3777018379271733,2.169357458032397,1791,31,22.377965639837807,48.07585412315537
1.3993899137251322,2.1693357695194844,1791,31,22.377965639837807,48.07585412315537
1.4210777702043123,2.169314081226327,1791,31,22.377965639837807,48.07585412315537
1.4427654075584138,2.169292393152698,1791,31,22.377965639837807,48.07585412315537
1.4644528259664003,2.1692707052983873,1791,31,22.377965639837807,48.07585412315537
1.486140025593633,2.169249017663202,1791,31,22.377965639837807,48.07585412315537
1.5078270065929162,2.169227330246963,1791,31,22.377965639837807,48.07585412315537
1.5295137691054632,2.1692056430495046,1791,31,22.377965639837807,48.07585412315537
1.551200313261791,2.169183956070674,1791,31,22.377965639837807,48.07585412315537
1.5728866391825391,2.16916226931033,1791,31,22.377965639837807,48.07585412315537
1.594572746979233,2.1691405827683425,1791,31,22.377965639837807,48.07585412315537
1.6162586367549827,2.16911889644459,1791,31,22.377965639837807,48.07585412315537
1.6379443086051324,2.1690972103389625,1791,31,22.377965639837807,48.07585412315537
1.6596297626178573,2.169075524451355,1791,31,22.377965639837807,48.07585412315537
1.681314998874714,2.169053838781674,1791,31,22.377965639837807,48.07585412315537
1.7030000174511526,2.1690321533298293,1791,31,22.377965639837807,48.07585412315537
1.724684818416983,2.1690104680957414,1791,31,22.377965639837807,48.07585412315537
1.7463694018368103,2.1689887830793335,1791,31,22.377965639837807,48.07585412315537
1.768053767770437,2.168967098280536,1791,31,22.377965639837807,48.07585412315537
1.7897379162732303,2.1689454136992845,1791,31,22.377965639837807,48.07585412315537
1.811421847396464,2.1689237293355195,1791,31,22.377965639837807,48.07585412315537
1.8331055611876337,2.1689020451891854,1791,31,22.377965639837807,48.07585412315537
1.8547890576907482,2.1688803612602303,1791,31,22.377965639837807,48.07585412315537
1.8764723369465945,2.1688586775486076,1791,31,22.377965639837807,48.07585412315537
1.898155398992991,2.168836994054273,1791,31,22.377965639837807,48.07585412315537
1.919838243865011,2.1688153107771857,1791,31,22.377965639837807,48.07585412315537
1.9415208715951975,2.1687936277173074,1791,31,22.377965639837807,48.07585412315537
1.963203282213755,2.168771944874604,1791,31,22.377965639837807,48.07585412315537
1.9848854757487318,2.1687502622490418,1791,31,22.377965639837807,48.07585412315537
2.0065674522261836,2.1687285798405918,1791,31,22.377965639837807,48.07585412315537
2.0282492116703286,2.168706897649225,1791,31,22.377965639837807,48.07585412315537
2.049930754103689,2.1686852156749157,1791,31,22.377965639837807,48.07585412315537
2.0716120795472213,2.16866353391764,1791,31,22.377965639837807,48.07585412315537
2.093293188020434,2.1686418523773745,1791,31,22.377965639837807,48.07585412315537
2.1149740795415033,2.168620171054099,1791,31,22.377965639837807,48.07585412315537
2.136654754127372,2.168598489947794,1791,31,22.377965639837807,48.07585412315537
2.1583352117938484,2.1685768090584414,1791,31,22.377965639837807,48.07585412315537
2.1800154525556894,2.1685551283860236,1791,31,22.377965639837807,48.07585412315537
2.201695476426683,2.168533447930525,1791,31,22.377965639837807,48.07585412315537
2.223375283419724,2.1685117676919314,1791,31,22.377965639837807,48.07585412315537
2.2450548735468807,2.168490087670228,1791,31,22.377965639837807,48.07585412315537
2.2667342468194613,2.1684684078654035,1791,31,22.377965639837807,48.07585412315537
2.2884134032480694,2.168446728277444,1791,31,22.377965639837807,48.07585412315537
2.310092342842659,2.1684250489063395,1791,31,22.377965639837807,48.07585412315537
2.331771065612586,2.168403369752079,1791,31,22.377965639837807,48.07585412315537
2.3534495715666526,2.1683816908146523,1791,31,22.377965639837807,48.07585412315537
2.3751278607131505,2.1683600120940505,1791,31,22.377965639837807,48.07585412315537
2.3968059330599,2.168338333590264,1791,31,22.377965639837807,48.07585412315537
2.4184837886142874,2.1683166553032853,1791,31,22.377965639837807,48.07585412315537
2.4401614273832952,2.1682949772331064,1791,31,22.377965639837807,48.07585412315537
2.461838849373538,2.1682732993797202,1791,31,22.377965639837807,48.07585412315537
2.483516054591286,2.168251621743119,1791,31,22.377965639837807,48.07585412315537
2.5051930430424947,2.168229944323296,1791,31,22.377965639837807,48.07585412315537
2.526869814732829,2.1682082671202463,1791,31,22.377965639837807,48.07585412315537
2.5485463696676813,2.168186590133963,1791,31,22.377965639837807,48.07585412315537
2.570222707852199,2.1681649133644405,1791,31,22.377965639837807,48.07585412315537
2.5918988292913,2.168143236811673,1791,31,22.377965639837807,48.07585412315537
2.613574733989688,2.1681215604756563,1791,31,22.377965639837807,48.07585412315537
2.635250421951874,2.168099884356385,1791,31,22.377965639837807,48.07585412315537
2.6569258931821884,2.168078208453854,1791,31,22.377965639837807,48.07585412315537
2.678601147684793,2.1680565327680594,1791,31,22.377965639837807,48.07585412315537
2.700276185463698,2.1680348572989967,1791,31,22.377965639837807,48.07585412315537
2.721951006522771,2.168013182046662,1791,31,22.377965639837807,48.07585412315537
2.7436256108657484,2.1679915070110503,1791,31,22.377965639837807,48.07585412315537
2.7652999984962463,2.167969832192159,1791,31,22.377965639837807,48.07585412315537
2.78697416941777,2.1679481575899833,1791,31,22.377965639837807,48.07585412315537
2.808648123633721,2.1679264832045204,1791,31,22.377965639837807,48.07585412315537
2.830321861147405,2.1679048090357664,1791,31,22.377965639837807,48.07585412315537
2.8519953819620407,2.1678831350837178,1791,31,22.377965639837807,48.07585412315537
2.873668686080766,2.1678614613483713,1791,31,22.377965639837807,48.07585412315537
2.895341773506644,2.1678397878297244,1791,31,22.377965639837807,48.07585412315537
2.917014644242668,2.167818114527773,1791,31,22.377965639837807,48.07585412315537
2.9386872982917693,2.1677964414425146,1791,31,22.377965639837807,48.07585412315537
2.9603597356568176,2.167774768573946,1791,31,22.377965639837807,48.07585412315537
2.9820319563406326,2.167753095922064,1791,31,22.377965639837807,48.07585412315537
3.003703960345979,2.1677314234868663,1791,31,22.377965639837807,48.07585412315537
3.0253757476755783,2.1677097512683496,1791,31,22.377965639837807,48.07585412315537
3.047047318332109,2.1676880792665116,1791,31,22.377965639837807,48.07585412315537
3.0687186723182105,2.167666407481349,1791,31,22.377965639837807,48.07585412315537
3.090389809636483,2.1676447359128597,1791,31,22.377965639837807,48.07585412315537
3.112060730289498,2.167623064561041,1791,31,22.377965639837807,48.07585412315537
3.13373143427979,2.16760139342589,1791,31,22.377965639837807,48.07585412315537
3.15540192160987,2.167579722507404,1791,31,22.377965639837807,48.07585412315537
3.1770721922822207,2.167558051805581,1791,31,22.377965639837807,48.07585412315537
3.1987422462992994,2.1675363813204176,1791,31,22.377965639837807,48.07585412315537
3.2204120836635433,2.1675147110519126,1791,31,22.377965639837807,48.07585412315537
3.242081704377367,2.1674930410000623,1791,31,22.377965639837807,48.07585412315537
3.263751108443165,2.167471371164865,1791,31,22.377965639837807,48.07585412315537
3.2854202958633185,2.1674497015463183,1791,31,22.377965639837807,48.07585412315537
3.3070892666401868,2.1674280321444197,1791,31,22.377965639837807,48.07585412315537
3.328758020776117,2.1674063629591664,1791,31,22.377965639837807,48.07585412315537
3.350426558273442,2.1673846939905563,1791,31,22.377965639837807,48.07585412315537
3.372094879134482,2.1673630252385876,1791,31,22.377965639837807,48.07585412315537
3.3937629833615435,2.167341356703257,1791,31,22.377965639837807,48.07585412315537
3.4154308709569245,2.1673196883845627,1791,31,22.377965639837807,48.07585412315537
3.437098541922914,2.1672980202825025,1791,31,22.377965639837807,48.07585412315537
3.458765996261787,2.167276352397074,1791,31,22.377965639837807,48.07585412315537
3.480433233975814,2.1672546847282748,1791,31,22.377965639837807,48.07585412315537
3.5021002550672553,2.1672330172761027,1791,31,22.377965639837807,48.07585412315537
3.5237670595383643,2.1672113500405557,1791,31,22.377965639837807,48.07585412315537
3.545433647391388,2.167189683021631,1791,31,22.377965639837807,48.07585412315537
3.5671000186285675,2.1671680162193265,1791,31,22.377965639837807,48.07585412315537
3.5887661732521363,2.16714634963364,1791,31,22.377965639837807,48.07585412315537
3.610432111264326,2.1671246832645696,1791,31,22.377965639837807,48.07585412315537
3.63209783266736,2.1671030171121126,1791,31,22.377965639837807,48.07585412315537
3.6537633374634573,2.167081351176267,1791,31,22.377965639837807,48.07585412315537
3.6754286256548356,2.1670596854570308,1791,31,22.377965639837807,48.07585412315537
3.6970936972437056,2.1670380199544015,1791,31,22.377965639837807,48.07585412315537
3.7187585522322752,2.1670163546683763,1791,31,22.377965639837807,48.07585412315537
3.7404231906227507,2.1669946895989542,1791,31,22.377965639837807,48.07585412315537
3.762087612417332,2.1669730247461323,1791,31,22.377965639837807,48.07585412315537
3.7837518176182208,2.166951360109908,1791,31,22.377965639837807,48.07585412315537
3.8054158062276113,2.16692969569028,1791,31,22.377965639837807,48.07585412315537
3.8270795782476985,2.1669080314872455,1791,31,22.377965639837807,48.07585412315537
3.8487431336806748,2.1668863675008025,1791,31,22.377965639837807,48.07585412315537
3.870406472528731,2.166864703730949,1791,31,22.377965639837807,48.07585412315537
3.892069594794052,2.1668430401776826,1791,31,22.377965639837807,48.07585412315537
3.9137325004788264,2.1668213768410007,1791,31,22.377965639837807,48.07585412315537
3.9353951895852366,2.1667997137209016,1791,31,22.377965639837807,48.07585412315537
3.957057662115468,2.1667780508173835,1791,31,22.377965639837807,48.07585412315537
3.9787199180717,2.1667563881304432,1791,31,22.377965639837807,48.07585412315537
4.000381957456114,2.166734725660079,1791,31,22.377965639837807,48.07585412315537
4.022043780270889,2.166713063406289,1791,31,22.377965639837807,48.07585412315537
4.043705386518203,2.166691401369071,1791,31,22.377965639837807,48.07585412315537
4.065366776200235,2.1666697395484227,1791,31,22.377965639837807,48.07585412315537
4.087027949319156,2.1666480779443416,1791,31,22.377965639837807,48.07585412315537
4.1086889058771465,2.166626416556826,1791,31,22.377965639837807,48.07585412315537
4.130349645876378,2.166604755385873,1791,31,22.377965639837807,48.07585412315537
4.152010169319026,2.166583094431481,1791,31,22.377965639837807,48.07585412315537
4.1736704762072625,2.166561433693648,1791,31,22.377965639837807,48.07585412315537
4.1953305665432605,2.1665397731723712,1791,31,22.377965639837807,48.07585412315537
4.216990440329191,2.1665181128676494,1791,31,22.377965639837807,48.07585412315537
4.238650097567226,2.166496452779479,1791,31,22.377965639837807,48.07585412315537
4.260309538259535,2.1664747929078594,1791,31,22.377965639837807,48.07585412315537
4.281968762408289,2.166453133252787,1791,31,22.377965639837807,48.07585412315537
4.30362777001566,2.166431473814261,1791,31,22.377965639837807,48.07585412315537
4.325286561083814,2.1664098145922783,1791,31,22.377965639837807,48.07585412315537
4.346945135614921,2.1663881555868367,1791,31,22.377965639837807,48.07585412315537
4.368603493611151,2.1663664967979344,1791,31,22.377965639837807,48.07585412315537
4.390261635074673,2.1663448382255694,1791,31,22.377965639837807,48.07585412315537
4.411919560007652,2.166323179869739,1791,31,22.377965639837807,48.07585412315537
4.433577268412258,2.1663015217304413,1791,31,22.377965639837807,48.07585412315537
4.455234760290658,2.166279863807674,1791,31,22.377965639837807,48.07585412315537
4.476892035645021,2.1662582061014355,1791,31,22.377965639837807,48.07585412315537
4.498549094477513,2.1662365486117228,1791,31,22.377965639837807,48.07585412315537
4.520205936790297,2.166214891338534,1791,31,22.377965639837807,48.07585412315537
4.541862562585546,2.1661932342818675,1791,31,22.377965639837807,48.07585412315537
4.563518971865424,2.1661715774417205,1791,31,22.377965639837807,48.07585412315537
4.585175164632097,2.166149920818091,1791,31,22.377965639837807,48.07585412315537
4.6068311408877305,2.1661282644109767,1791,31,22.377965639837807,48.07585412315537
4.628486900634493,2.1661066082203755,1791,31,22.377965639837807,48.07585412315537
4.650142443874549,2.1660849522462855,1791,31,22.377965639837807,48.07585412315537
4.6717977706100635,2.1660632964887045,1791,31,22.377965639837807,48.07585412315537
4.693452880843203,2.16604164094763,1791,31,22.377965639837807,48.07585412315537
4.715107774576134,2.16601998562306,1791,31,22.377965639837807,48.07585412315537
4.736762451811021,2.1659983305149924,1791,31,22.377965639837807,48.07585412315537
4.758416912550031,2.1659766756234253,1791,31,22.377965639837807,48.07585412315537
4.780071156795326,2.165955020948356,1791,31,22.377965639837807,48.07585412315537
4.801725184549072,2.1659333664897824,1791,31,22.377965639837807,48.07585412315537
4.823378995813439,2.1659117122477025,1791,31,22.377965639837807,48.07585412315537
4.845032590590585,2.1658900582221143,1791,31,22.377965639837807,48.07585412315537
4.86668596888268,2.165868404413015,1791,31,22.377965639837807,48.07585412315537
4.888339130691886,2.1658467508204033,1791,31,22.377965639837807,48.07585412315537
4.90999207602037,2.1658250974442765,1791,31,22.377965639837807,48.07585412315537
4.931644804870294,2.165803444284633,1791,31,22.377965639837807,48.07585412315537
4.953297317243826,2.1657817913414696,1791,31,22.377965639837807,48.07585412315537
4.974949613143129,2.165760138614785,1791,31,22.377965639837807,48.07585412315537
4.9966016925703665,2.1657384861045768,1791,31,22.377965639837807,48.07585412315537
5.018253555527706,2.165716833810843,1791,31,22.377965639837807,48.07585412315537
5.0399052020173105,2.165695181733581,1791,31,22.377965639837807,48.07585412315537
5.061556632041342,2.1656735298727887,1791,31,22.377965639837807,48.07585412315537
5.08320784560197,2.165651878228464,1791,31,22.377965639837807,48.07585412315537
5.104858842701353,2.1656302268006056,1791,31,22.377965639837807,48.07585412315537
5.126509623341661,2.1656085755892103,1791,31,22.377965639837807,48.07585412315537
5.148160187525055,2.1655869245942756,1791,31,22.377965639837807,48.07585412315537
5.169810535253699,2.1655652738158007,1791,31,22.377965639837807,48.07585412315537
5.19146066652976,2.1655436232537824,1791,31,22.377965639837807,48.07585412315537
