Vout,Iout,Irradiance,Temperature,MaxVoltage,MaxPower
0.0011959385005913404,0.23918999999999999,201,20,21.547260404873715,4.689698087760812
0.0035877933877392345,0.23918999999999999,201,20,21.547260404873715,4.689698087760812
0.0059795996490772056,0.2391887801424994,201,20,21.547260404873715,4.689698087760812
0.008371348597620414,0.23918638828761224,201,20,21.547260404873715,4.689698087760812
0.010763037394311507,0.2391839964814729,201,20,21.547260404873715,4.689698087760812
0.013154668828007242,0.23918160473276354,201,20,21.547260404873715,4.689698087760812
0.015546245473083227,0.23917921304420603,201,20,21.547260404873715,4.689698087760812
0.017937769705883462,0.2391768214130115,201,20,21.547260404873715,4.689698087760812
0.020329243719930695,0.2391744298366056,201,20,21.547260404873715,4.689698087760812
0.022720669539992973,0.23917203831261197,201,20,21.547260404873715,4.689698087760812
0.025112049035067904,0.23916964683883707,201,20,21.547260404873715,4.689698087760812
0.027503383930367865,0.23916725541325617,201,20,21.547260404873715,4.689698087760812
0.029894675818383072,0.23916486403400022,201,20,21.547260404873715,4.689698087760812
0.032285926169093426,0.23916247269934407,201,20,21.547260404873715,4.689698087760812
0.03467713633939466,0.2391600814076952,201,20,21.547260404873715,4.689698087760812
0.0370683075817992,0.23915769015758362,201,20,21.547260404873715,4.689698087760812
0.039459441052467584,0.23915529894765244,201,20,21.547260404873715,4.689698087760812
0.04185053781862193,0.23915290777664916,201,20,21.547260404873715,4.689698087760812
0.04424159886538898,0.23915051664341763,201,20,21.547260404873715,4.689698087760812
0.04663262510211669,0.23914812554689058,201,20,21.547260404873715,4.689698087760812
0.04902361736820473,0.23914573448608292,201,20,21.547260404873715,4.689698087760812
0.05141457643848642,0.2391433434600853,201,20,21.547260404873715,4.689698087760812
0.05380550302819656,0.23914095246805833,201,20,21.547260404873715,4.689698087760812
0.0561963977975571,0.23913856150922716,201,20,21.547260404873715,4.689698087760812
0.05858726135600979,0.23913617058287653,201,20,21.547260404873715,4.689698087760812
0.060978094266123405,0.2391337796883463,201,20,21.547260404873715,4.689698087760812
0.06336889704720015,0.2391313888250269,201,20,21.547260404873715,4.689698087760812
0.06575967017860473,0.2391289979923559,201,20,21.547260404873715,4.689698087760812
0.06815041410283713,0.2391266071898139,201,20,21.547260404873715,4.689698087760812
0.07054112922836904,0.23912421641692158,201,20,21.547260404873715,4.689698087760812
0.07293181593226215,0.23912182567323642,201,20,21.547260404873715,4.689698087760812
0.0753224745625848,0.23911943495834997,201,20,21.547260404873715,4.689698087760812
0.07771310544064275,0.23911704427188515,201,20,21.547260404873715,4.689698087760812
0.08010370886303839,0.2391146536134939,201,20,21.547260404873715,4.689698087760812
0.08249428510357144,0.23911226298285493,201,20,21.547260404873715,4.689698087760812
0.08488483441499343,0.23910987237967157,201,20,21.547260404873715,4.689698087760812
0.08727535703062715,0.2391074818036701,201,20,21.547260404873715,4.689698087760812
0.08966585316586162,0.23910509125459775,201,20,21.547260404873715,4.689698087760812
0.09205632301953177,0.23910270073222117,201,20,21.547260404873715,4.689698087760812
0.09444676677519233,0.239100310236325,201,20,21.547260404873715,4.689698087760812
0.09683718460229335,0.23909791976671038,201,20,21.547260404873715,4.689698087760812
0.09922757665726552,0.23909552932319378,201,20,21.547260404873715,4.689698087760812
0.10161794308452197,0.2390931389056057,201,20,21.547260404873715,4.689698087760812
0.10400828401738274,0.23909074851378978,201,20,21.547260404873715,4.689698087760812
0.10639859957892847,0.23908835814760157,201,20,21.547260404873715,4.689698087760812
0.10878888988278809,0.23908596780690775,201,20,21.547260404873715,4.689698087760812
0.11117915503386616,0.23908357749158524,201,20,21.547260404873715,4.689698087760812
0.11356939512901412,0.2390811872015204,201,20,21.547260404873715,4.689698087760812
0.11595961025764985,0.23907879693660838,201,20,21.547260404873715,4.689698087760812
0.11834980050232968,0.23907640669675226,201,20,21.547260404873715,4.689698087760812
0.12073996593927631,0.23907401648186263,201,20,21.547260404873715,4.689698087760812
0.12313010663886609,0.239071626291857,201,20,21.547260404873715,4.689698087760812
0.12552022266607893,0.23906923612665906,201,20,21.547260404873715,4.689698087760812
0.12791031408091347,0.23906684598619848,201,20,21.547260404873715,4.689698087760812
0.13030038093877025,0.23906445587041028,201,20,21.547260404873715,4.689698087760812
0.13269042329080566,0.23906206577923447,201,20,21.547260404873715,4.689698087760812
0.1350804411842585,0.23905967571261563,201,20,21.547260404873715,4.689698087760812
0.13747043466275102,0.2390572856705026,201,20,21.547260404873715,4.689698087760812
0.1398604037665679,0.23905489565284815,201,20,21.547260404873715,4.689698087760812
0.14225034853291224,0.23905250565960867,201,20,21.547260404873715,4.689698087760812
0.14464026899614335,0.23905011569074386,201,20,21.547260404873715,4.689698087760812
0.14703016518799505,0.2390477257462165,201,20,21.547260404873715,4.689698087760812
0.14942003713777807,0.23904533582599227,201,20,21.547260404873715,4.689698087760812
0.15180988487256616,0.2390429459300394,201,20,21.547260404873715,4.689698087760812
0.15419970841736838,0.23904055605832863,201,20,21.547260404873715,4.689698087760812
0.156589507795288,0.23903816621083282,201,20,21.547260404873715,4.689698087760812
0.15897928302766895,0.23903577638752702,201,20,21.547260404873715,4.689698087760812
0.16136903413423143,0.23903338658838807,201,20,21.547260404873715,4.689698087760812
0.16375876113319662,0.23903099681339468,201,20,21.547260404873715,4.689698087760812
0.16614846404140218,0.2390286070625271,201,20,21.547260404873715,4.689698087760812
0.16853814287440852,0.23902621733576712,201,20,21.547260404873715,4.689698087760812
0.17092779764659727,0.23902382763309787,201,20,21.547260404873715,4.689698087760812
0.1733174283712619,0.23902143795450384,201,20,21.547260404873715,4.689698087760812
0.17570703506069144,0.23901904829997062,201,20,21.547260404873715,4.689698087760812
0.17809661772624769,0.23901665866948493,201,20,21.547260404873715,4.689698087760812
0.1804861763784366,0.23901426906303447,201,20,21.547260404873715,4.689698087760812
0.18287571102697436,0.23901187948060787,201,20,21.547260404873715,4.689698087760812
0.18526522168084777,0.23900948992219465,201,20,21.547260404873715,4.689698087760812
0.18765470834837053,0.23900710038778505,201,20,21.547260404873715,4.689698087760812
0.1900441710372351,0.23900471087737016,201,20,21.547260404873715,4.689698087760812
0.19243360975456053,0.23900232139094157,201,20,21.547260404873715,4.689698087760812
0.19482302450693634,0.23899993192849167,201,20,21.547260404873715,4.689698087760812
0.1972124153004635,0.2389975424900133,201,20,21.547260404873715,4.689698087760812
0.19960178214079197,0.23899515307549984,201,20,21.547260404873715,4.689698087760812
0.20199112503315525,0.23899276368494526,201,20,21.547260404873715,4.689698087760812
0.20438044398240274,0.23899037431834388,201,20,21.547260404873715,4.689698087760812
0.2067697389930288,0.23898798497569046,201,20,21.547260404873715,4.689698087760812
0.20915901006920062,0.23898559565698016,201,20,21.547260404873715,4.689698087760812
0.211548257214783,0.23898320636220846,201,20,21.547260404873715,4.689698087760812
0.2139374804333618,0.23898081709137123,201,20,21.547260404873715,4.689698087760812
0.2163266797282653,0.23897842784446457,201,20,21.547260404873715,4.689698087760812
0.2187158551025842,0.23897603862148492,201,20,21.547260404873715,4.689698087760812
0.22110500655918963,0.23897364942242894,201,20,21.547260404873715,4.689698087760812
0.22349413410075017,0.23897126024729354,201,20,21.547260404873715,4.689698087760812
0.2258832377297475,0.23896887109607584,201,20,21.547260404873715,4.689698087760812
0.22827231744849083,0.2389664819687732,201,20,21.547260404873715,4.689698087760812
0.23066137325912983,0.23896409286538312,201,20,21.547260404873715,4.689698087760812
0.23305040516366743,0.23896170378590328,201,20,21.547260404873715,4.689698087760812
0.23543941316397057,0.23895931473033158,201,20,21.547260404873715,4.689698087760812
0.2378283972617811,0.23895692569866595,201,20,21.547260404873715,4.689698087760812
0.24021735745872502,0.23895453669090455,201,20,21.547260404873715,4.689698087760812
0.24260629375632178,0.23895214770704565,201,20,21.547260404873715,4.689698087760812
0.2449952061559922,0.2389497587470876,201,20,21.547260404873715,4.689698087760812
0.24738409465906627,0.2389473698110289,201,20,21.547260404873715,4.689698087760812
0.24977295926678975,0.23894498089886812,201,20,21.547260404873715,4.689698087760812
0.25216179998033117,0.23894259201060394,201,20,21.547260404873715,4.689698087760812
0.2545506168007874,0.2389402031462351,201,20,21.547260404873715,4.689698087760812
0.25693940972918955,0.23893781430576044,201,20,21.547260404873715,4.689698087760812
0.25932817876650716,0.23893542548917887,201,20,21.547260404873715,4.689698087760812
0.2617169239136542,0.23893303669648935,201,20,21.547260404873715,4.689698087760812
0.26410564517149226,0.23893064792769092,201,20,21.547260404873715,4.689698087760812
0.26649434254083515,0.23892825918278265,201,20,21.547260404873715,4.689698087760812
0.2688830160224526,0.2389258704617637,201,20,21.547260404873715,4.689698087760812
0.2712716656170732,0.23892348176463324,201,20,21.547260404873715,4.689698087760812
0.273660291325388,0.23892109309139048,201,20,21.547260404873715,4.689698087760812
0.2760488931480532,0.23891870444203472,201,20,21.547260404873715,4.689698087760812
0.2784374710856928,0.23891631581656528,201,20,21.547260404873715,4.689698087760812
0.28082602513890137,0.23891392721498148,201,20,21.547260404873715,4.689698087760812
0.2832145553082459,0.2389115386372827,201,20,21.547260404873715,4.689698087760812
0.28560306159426824,0.23890915008346836,201,20,21.547260404873715,4.689698087760812
0.2879915439974869,0.23890676155353788,201,20,21.547260404873715,4.689698087760812
0.2903800025183988,0.2389043730474907,201,20,21.547260404873715,4.689698087760812
0.292768437157481,0.23890198456532635,201,20,21.547260404873715,4.689698087760812
0.2951568479151924,0.23889959610704428,201,20,21.547260404873715,4.689698087760812
0.2975452347919747,0.23889720767264405,201,20,21.547260404873715,4.689698087760812
0.29993359778825407,0.2388948192621252,201,20,21.547260404873715,4.689698087760812
0.30232193690444226,0.23889243087548725,201,20,21.547260404873715,4.689698087760812
0.30471025214093783,0.2388900425127298,201,20,21.547260404873715,4.689698087760812
0.3070985434981269,0.23888765417385247,201,20,21.547260404873715,4.689698087760812
0.3094868109763841,0.2388852658588548,201,20,21.547260404873715,4.689698087760812
0.311875054576074,0.23888287756773643,201,20,21.547260404873715,4.689698087760812
0.3142632742975512,0.23888048930049702,201,20,21.547260404873715,4.689698087760812
0.3166514701411614,0.23887810105713617,201,20,21.547260404873715,4.689698087760812
0.31903964210724217,0.2388757128376535,201,20,21.547260404873715,4.689698087760812
0.32142779019612333,0.23887332464204872,201,20,21.547260404873715,4.689698087760812
0.32381591440812785,0.23887093647032145,201,20,21.547260404873715,4.689698087760812
0.326204014743572,0.2388685483224714,201,20,21.547260404873715,4.689698087760812
0.32859209120276645,0.2388661601984982,201,20,21.547260404873715,4.689698087760812
0.3309801437860158,0.2388637720984016,201,20,21.547260404873715,4.689698087760812
0.33336817249362016,0.2388613840221812,201,20,21.547260404873715,4.689698087760812
0.3357561773258743,0.23885899596983676,201,20,21.547260404873715,4.689698087760812
0.33814415828306926,0.23885660794136795,201,20,21.547260404873715,4.689698087760812
0.3405321153654917,0.23885421993677453,201,20,21.547260404873715,4.689698087760812
0.3429200485734247,0.2388518319560561,201,20,21.547260404873715,4.689698087760812
0.3453079579071478,0.2388494439992125,201,20,21.547260404873715,4.689698087760812
0.34769584336693743,0.23884705606624337,201,20,21.547260404873715,4.689698087760812
0.35008370495306734,0.23884466815714844,201,20,21.547260404873715,4.689698087760812
0.3524715426658083,0.23884228027192744,201,20,21.547260404873715,4.689698087760812
0.3548593565054289,0.2388398924105801,201,20,21.547260404873715,4.689698087760812
0.35724714647219497,0.23883750457310615,201,20,21.547260404873715,4.689698087760812
0.3596349125663708,0.2388351167595053,201,20,21.547260404873715,4.689698087760812
0.3620226547882181,0.23883272896977734,201,20,21.547260404873715,4.689698087760812
0.3644103731379974,0.23883034120392194,201,20,21.547260404873715,4.689698087760812
0.36679806761596717,0.23882795346193886,201,20,21.547260404873715,4.689698087760812
0.36918573822238443,0.23882556574382788,201,20,21.547260404873715,4.689698087760812
0.37157338495750486,0.23882317804958866,201,20,21.547260404873715,4.689698087760812
0.37396100782158276,0.23882079037922102,201,20,21.547260404873715,4.689698087760812
0.37634860681487137,0.23881840273272467,201,20,21.547260404873715,4.689698087760812
0.3787361819376225,0.23881601511009937,201,20,21.547260404873715,4.689698087760812
0.3811237331900872,0.23881362751134483,201,20,21.547260404873715,4.689698087760812
0.3835112605725155,0.23881123993646086,201,20,21.547260404873715,4.689698087760812
0.38589876408515644,0.23880885238544713,201,20,21.547260404873715,4.689698087760812
0.38828624372825854,0.23880646485830348,201,20,21.547260404873715,4.689698087760812
0.3906736995020693,0.2388040773550296,201,20,21.547260404873715,4.689698087760812
0.3930611314068355,0.23880168987562525,201,20,21.547260404873715,4.689698087760812
0.3954485394428036,0.23879930242009018,201,20,21.547260404873715,4.689698087760812
0.39783592361021913,0.23879691498842417,201,20,21.547260404873715,4.689698087760812
0.40022328390932727,0.23879452758062694,201,20,21.547260404873715,4.689698087760812
0.4026106203403726,0.23879214019669825,201,20,21.547260404873715,4.689698087760812
0.4049979329035993,0.2387897528366379,201,20,21.547260404873715,4.689698087760812
0.40738522159925117,0.2387873655004456,201,20,21.547260404873715,4.689698087760812
0.40977248642757136,0.2387849781881211,201,20,21.547260404873715,4.689698087760812
0.412159727388803,0.2387825908996642,201,20,21.547260404873715,4.689698087760812
0.4145469444831886,0.2387802036350746,201,20,21.547260404873715,4.689698087760812
0.4169341377109705,0.23877781639435208,201,20,21.547260404873715,4.689698087760812
0.4193213070723909,0.23877542917749645,201,20,21.547260404873715,4.689698087760812
0.4217084525676913,0.23877304198450738,201,20,21.547260404873715,4.689698087760812
0.4240955741971134,0.23877065481538468,201,20,21.547260404873715,4.689698087760812
0.4264826719608987,0.2387682676701281,201,20,21.547260404873715,4.689698087760812
0.42886974585928783,0.2387658805487374,201,20,21.547260404873715,4.689698087760812
0.4312567958925219,0.2387634934512123,201,20,21.547260404873715,4.689698087760812
0.4336438220608417,0.23876110637755266,201,20,21.547260404873715,4.689698087760812
0.4360308243644876,0.2387587193277581,201,20,21.547260404873715,4.689698087760812
0.43841780280370013,0.2387563323018285,201,20,21.547260404873715,4.689698087760812
0.44080475737871955,0.23875394529976357,201,20,21.547260404873715,4.689698087760812
0.4431916880897859,0.23875155832156306,201,20,21.547260404873715,4.689698087760812
0.4455785949371392,0.23874917136722673,201,20,21.547260404873715,4.689698087760812
0.4479654779210193,0.23874678443675437,201,20,21.547260404873715,4.689698087760812
0.4503523370416662,0.2387443975301457,201,20,21.547260404873715,4.689698087760812
0.4527391722993194,0.23874201064740053,201,20,21.547260404873715,4.689698087760812
0.4551259836942185,0.23873962378851857,201,20,21.547260404873715,4.689698087760812
0.4575127712266031,0.2387372369534996,201,20,21.547260404873715,4.689698087760812
0.45989953489671265,0.23873485014234339,201,20,21.547260404873715,4.689698087760812
0.46228627470478645,0.2387324633550497,201,20,21.547260404873715,4.689698087760812
0.4646729906510638,0.23873007659161827,201,20,21.547260404873715,4.689698087760812
0.4670596827357841,0.23872768985204887,201,20,21.547260404873715,4.689698087760812
0.46944635095918646,0.23872530313634127,201,20,21.547260404873715,4.689698087760812
0.4718329953215099,0.23872291644449523,201,20,21.547260404873715,4.689698087760812
0.4742196158229936,0.23872052977651048,201,20,21.547260404873715,4.689698087760812
0.4766062124638768,0.23871814313238685,201,20,21.547260404873715,4.689698087760812
0.47899278524439814,0.238715756512124,201,20,21.547260404873715,4.689698087760812
0.48137933416479695,0.23871336991572178,201,20,21.547260404873715,4.689698087760812
0.48376585922531196,0.23871098334317994,201,20,21.547260404873715,4.689698087760812
0.48615236042618215,0.23870859679449818,201,20,21.547260404873715,4.689698087760812
0.48853883776764645,0.23870621026967634,201,20,21.547260404873715,4.689698087760812
0.49092529124994366,0.23870382376871413,201,20,21.547260404873715,4.689698087760812
0.49331172087331254,0.2387014372916113,201,20,21.547260404873715,4.689698087760812
0.49569812663799195,0.23869905083836768,201,20,21.547260404873715,4.689698087760812
0.4980845085442207,0.23869666440898293,201,20,21.547260404873715,4.689698087760812
0.5004708665922374,0.2386942780034569,201,20,21.547260404873715,4.689698087760812
0.5028572007822808,0.23869189162178933,201,20,21.547260404873715,4.689698087760812
0.5052435111145899,0.23868950526397995,201,20,21.547260404873715,4.689698087760812
0.5076297975894031,0.23868711893002853,201,20,21.547260404873715,4.689698087760812
0.5100160602069592,0.23868473261993486,201,20,21.547260404873715,4.689698087760812
0.5124022989674967,0.2386823463336987,201,20,21.547260404873715,4.689698087760812
0.5147885138712545,0.23867996007131975,201,20,21.547260404873715,4.689698087760812
0.5171747049184713,0.23867757383279786,201,20,21.547260404873715,4.689698087760812
0.5195608721093853,0.23867518761813272,201,20,21.547260404873715,4.689698087760812
0.5219470154442355,0.23867280142732414,201,20,21.547260404873715,4.689698087760812
0.5243331349232605,0.23867041526037183,201,20,21.547260404873715,4.689698087760812
0.5267192305466986,0.2386680291172756,201,20,21.547260404873715,4.689698087760812
0.5291053023147886,0.2386656429980352,201,20,21.547260404873715,4.689698087760812
0.5314913502277693,0.2386632569026504,201,20,21.547260404873715,4.689698087760812
0.5338773742858786,0.2386608708311209,201,20,21.547260404873715,4.689698087760812
0.5362633744893557,0.23865848478344653,201,20,21.547260404873715,4.689698087760812
0.5386493508384388,0.238656098759627,201,20,21.547260404873715,4.689698087760812
0.5410353033333667,0.23865371275966216,201,20,21.547260404873715,4.689698087760812
0.5434212319743777,0.23865132678355166,201,20,21.547260404873715,4.689698087760812
0.5458071367617104,0.23864894083129534,201,20,21.547260404873715,4.689698087760812
0.5481930176956035,0.23864655490289294,201,20,21.547260404873715,4.689698087760812
0.5505788747762954,0.2386441689983442,201,20,21.547260404873715,4.689698087760812
0.5529647080040244,0.2386417831176489,201,20,21.547260404873715,4.689698087760812
0.5553505173790294,0.2386393972608068,201,20,21.547260404873715,4.689698087760812
0.5577363029015487,0.23863701142781765,201,20,21.547260404873715,4.689698087760812
0.5601220645718209,0.23863462561868123,201,20,21.547260404873715,4.689698087760812
0.5625078023900844,0.2386322398333973,201,20,21.547260404873715,4.689698087760812
