Vout,Iout,Irradiance,Temperature,MaxVoltage,MaxPower
0.0033655676387727043,0.6731199999999999,601,-15,18.984070917626315,12.41840993419824
0.010096640683787086,0.6731199999999999,601,-15,18.984070917626315,12.41840993419824
0.016827576887774774,0.6731165671203612,601,-15,18.984070917626315,12.41840993419824
0.02355835180413167,0.6731098360473161,601,-15,18.984070917626315,12.41840993419824
0.030288957443283415,0.6731031051114554,601,-15,18.984070917626315,12.41840993419824
0.037019401653531646,0.6730963743372123,601,-15,18.984070917626315,12.41840993419824
0.043749691679592716,0.6730896437322461,601,-15,18.984070917626315,12.41840993419824
0.050479834208889476,0.673082913288709,601,-15,18.984070917626315,12.41840993419824
0.057209835414355745,0.673076182999356,601,-15,18.984070917626315,12.41840993419824
0.0639397009940218,0.6730694528574998,601,-15,18.984070917626315,12.41840993419824
0.07066943620755428,0.6730627228569673,601,-15,18.984070917626315,12.41840993419824
0.07739904590998462,0.6730559929920606,601,-15,18.984070917626315,12.41840993419824
0.08412853458284217,0.6730492632575201,601,-15,18.984070917626315,12.41840993419824
0.09085790636289216,0.6730425336484906,601,-15,18.984070917626315,12.41840993419824
0.09758716506866233,0.6730358041604908,601,-15,18.984070917626315,12.41840993419824
0.10431631422492867,0.6730290747893837,601,-15,18.984070917626315,12.41840993419824
0.11104535708531708,0.6730223455313509,601,-15,18.984070917626315,12.41840993419824
0.11777429665316609,0.6730156163828676,601,-15,18.984070917626315,12.41840993419824
0.12450313570078446,0.6730088873406801,601,-15,18.984070917626315,12.41840993419824
0.13123187678722686,0.6730021584017851,601,-15,18.984070917626315,12.41840993419824
0.13796052227470199,0.6729954295634104,601,-15,18.984070917626315,12.41840993419824
0.14468907434371833,0.6729887008229969,601,-15,18.984070917626315,12.41840993419824
0.15141753500706417,0.6729819721781822,601,-15,18.984070917626315,12.41840993419824
0.15814590612271265,0.6729752436267862,601,-15,18.984070917626315,12.41840993419824
0.16487418940573315,0.6729685151667957,601,-15,18.984070917626315,12.41840993419824
0.1716023864392867,0.6729617867963529,601,-15,18.984070917626315,12.41840993419824
0.17833049868477516,0.6729550585137427,601,-15,18.984070917626315,12.41840993419824
0.1850585274912096,0.672948330317382,601,-15,18.984070917626315,12.41840993419824
0.19178647410385774,0.6729416022058093,601,-15,18.984070917626315,12.41840993419824
0.19851433967222618,0.6729348741776757,601,-15,18.984070917626315,12.41840993419824
0.20524212525742852,0.6729281462317359,601,-15,18.984070917626315,12.41840993419824
0.21196983183898618,0.6729214183668403,601,-15,18.984070917626315,12.41840993419824
0.21869746032110654,0.6729146905819279,601,-15,18.984070917626315,12.41840993419824
0.22542501153847747,0.6729079628760192,601,-15,18.984070917626315,12.41840993419824
0.23215248626161641,0.6729012352482098,601,-15,18.984070917626315,12.41840993419824
0.23887988520180778,0.6728945076976651,601,-15,18.984070917626315,12.41840993419824
0.24560720901566035,0.6728877802236148,601,-15,18.984070917626315,12.41840993419824
0.25233445830931406,0.6728810528253474,601,-15,18.984070917626315,12.41840993419824
0.2590616336423232,0.6728743255022063,601,-15,18.984070917626315,12.41840993419824
0.265788735531241,0.6728675982535853,601,-15,18.984070917626315,12.41840993419824
0.27251576445292763,0.6728608710789251,601,-15,18.984070917626315,12.41840993419824
0.27924272084760504,0.6728541439777089,601,-15,18.984070917626315,12.41840993419824
0.28596960512167535,0.6728474169494599,601,-15,18.984070917626315,12.41840993419824
0.29269641765032306,0.6728406899937379,601,-15,18.984070917626315,12.41840993419824
0.2994231587799173,0.6728339631101365,601,-15,18.984070917626315,12.41840993419824
0.30614982883022873,0.6728272362982807,601,-15,18.984070917626315,12.41840993419824
0.312876428096476,0.6728205095578237,601,-15,18.984070917626315,12.41840993419824
0.31960295685121487,0.6728137828884461,601,-15,18.984070917626315,12.41840993419824
0.32632941534608206,0.6728070562898525,601,-15,18.984070917626315,12.41840993419824
0.33305580381340466,0.6728003297617704,601,-15,18.984070917626315,12.41840993419824
0.33978212246768574,0.6727936033039482,601,-15,18.984070917626315,12.41840993419824
0.3465083715069763,0.6727868769161536,601,-15,18.984070917626315,12.41840993419824
0.35323455111414,0.672780150598172,601,-15,18.984070917626315,12.41840993419824
0.35996066145802313,0.6727734243498052,601,-15,18.984070917626315,12.41840993419824
0.366686702694532,0.6727666981708708,601,-15,18.984070917626315,12.41840993419824
0.3734126749676291,0.6727599720611995,601,-15,18.984070917626315,12.41840993419824
0.38013857841025184,0.6727532460206356,601,-15,18.984070917626315,12.41840993419824
0.386864413145161,0.6727465200490351,601,-15,18.984070917626315,12.41840993419824
0.3935901792857237,0.6727397941462651,601,-15,18.984070917626315,12.41840993419824
0.4003158769366361,0.6727330683122028,601,-15,18.984070917626315,12.41840993419824
0.40704150619459045,0.6727263425467348,601,-15,18.984070917626315,12.41840993419824
0.41376706714889144,0.6727196168497565,601,-15,18.984070917626315,12.41840993419824
0.42049255988202383,0.6727128912211711,601,-15,18.984070917626315,12.41840993419824
0.4272179844701778,0.6727061656608894,601,-15,18.984070917626315,12.41840993419824
0.4339433409837331,0.6726994401688288,601,-15,18.984070917626315,12.41840993419824
0.4406686294877059,0.6726927147449132,601,-15,18.984070917626315,12.41840993419824
0.44739385004216176,0.6726859893890722,601,-15,18.984070917626315,12.41840993419824
0.4541190027025963,0.6726792641012408,601,-15,18.984070917626315,12.41840993419824
0.4608440875202871,0.6726725388813588,601,-15,18.984070917626315,12.41840993419824
0.46756910454261796,0.672665813729371,601,-15,18.984070917626315,12.41840993419824
0.4742940538133786,0.6726590886452257,601,-15,18.984070917626315,12.41840993419824
0.48101893537304125,0.6726523636288759,601,-15,18.984070917626315,12.41840993419824
0.4877437492590158,0.6726456386802777,601,-15,18.984070917626315,12.41840993419824
0.4944684955058857,0.6726389137993906,601,-15,18.984070917626315,12.41840993419824
0.5011931741456248,0.672632188986177,601,-15,18.984070917626315,12.41840993419824
0.5079177852077988,0.6726254642406027,601,-15,18.984070917626315,12.41840993419824
0.5146423287197507,0.6726187395626354,601,-15,18.984070917626315,12.41840993419824
0.5213668047067703,0.6726120149522458,601,-15,18.984070917626315,12.41840993419824
0.5280912131922543,0.6726052904094062,601,-15,18.984070917626315,12.41840993419824
0.5348155541978504,0.6725985659340917,601,-15,18.984070917626315,12.41840993419824
0.5415398277435927,0.6725918415262786,601,-15,18.984070917626315,12.41840993419824
0.5482640338480251,0.6725851171859455,601,-15,18.984070917626315,12.41840993419824
0.554988172528317,0.6725783929130722,601,-15,18.984070917626315,12.41840993419824
0.5617122438003681,0.6725716687076402,601,-15,18.984070917626315,12.41840993419824
0.5684362476789063,0.6725649445696323,601,-15,18.984070917626315,12.41840993419824
0.5751601841775787,0.6725582204990327,601,-15,18.984070917626315,12.41840993419824
0.5818840533090335,0.6725514964958266,601,-15,18.984070917626315,12.41840993419824
0.5886078550849974,0.6725447725600003,601,-15,18.984070917626315,12.41840993419824
0.5953315895163466,0.6725380486915412,601,-15,18.984070917626315,12.41840993419824
0.6020552566131725,0.6725313248904377,601,-15,18.984070917626315,12.41840993419824
0.6087788563848413,0.6725246011566787,601,-15,18.984070917626315,12.41840993419824
0.6155023888400506,0.6725178774902543,601,-15,18.984070917626315,12.41840993419824
0.6222258539868805,0.672511153891155,601,-15,18.984070917626315,12.41840993419824
0.6289492518328408,0.6725044303593721,601,-15,18.984070917626315,12.41840993419824
0.6356725823849154,0.6724977068948976,601,-15,18.984070917626315,12.41840993419824
0.6423958456496025,0.6724909834977241,601,-15,18.984070917626315,12.41840993419824
0.649119041632952,0.6724842601678443,601,-15,18.984070917626315,12.41840993419824
0.6558421703406001,0.672477536905252,601,-15,18.984070917626315,12.41840993419824
0.6625652317778009,0.672470813709941,601,-15,18.984070917626315,12.41840993419824
0.6692882259494561,0.6724640905819057,601,-15,18.984070917626315,12.41840993419824
0.676011152860142,0.6724573675211407,601,-15,18.984070917626315,12.41840993419824
0.6827340125141338,0.6724506445276415,601,-15,18.984070917626315,12.41840993419824
0.6894568049154305,0.6724439216014031,601,-15,18.984070917626315,12.41840993419824
0.6961795300677746,0.6724371987424214,601,-15,18.984070917626315,12.41840993419824
0.7029021879746722,0.6724304759506924,601,-15,18.984070917626315,12.41840993419824
0.7096247786394115,0.6724237532262123,601,-15,18.984070917626315,12.41840993419824
0.7163473020650797,0.6724170305689777,601,-15,18.984070917626315,12.41840993419824
0.7230697582545772,0.6724103079789852,601,-15,18.984070917626315,12.41840993419824
0.7297921472106342,0.6724035854562318,601,-15,18.984070917626315,12.41840993419824
0.7365144689358218,0.6723968630007146,601,-15,18.984070917626315,12.41840993419824
0.7432367234325649,0.6723901406124307,601,-15,18.984070917626315,12.41840993419824
0.7499589107031538,0.6723834182913778,601,-15,18.984070917626315,12.41840993419824
0.756681030749754,0.6723766960375533,601,-15,18.984070917626315,12.41840993419824
0.7634030835744163,0.672369973850955,601,-15,18.984070917626315,12.41840993419824
0.7701250691790856,0.6723632517315806,601,-15,18.984070917626315,12.41840993419824
0.7768469875656083,0.6723565296794282,601,-15,18.984070917626315,12.41840993419824
0.7835688387357408,0.6723498076944957,601,-15,18.984070917626315,12.41840993419824
0.790290622691156,0.6723430857767814,601,-15,18.984070917626315,12.41840993419824
0.7970123394334494,0.6723363639262834,601,-15,18.984070917626315,12.41840993419824
0.8037339889641462,0.6723296421430002,601,-15,18.984070917626315,12.41840993419824
0.8104555712847052,0.6723229204269301,601,-15,18.984070917626315,12.41840993419824
0.8171770863965252,0.6723161987780716,601,-15,18.984070917626315,12.41840993419824
0.8238985343009486,0.6723094771964232,601,-15,18.984070917626315,12.41840993419824
0.8306199149992665,0.6723027556819835,601,-15,18.984070917626315,12.41840993419824
0.8373412284927221,0.6722960342347513,601,-15,18.984070917626315,12.41840993419824
0.8440624747825152,0.6722893128547252,601,-15,18.984070917626315,12.41840993419824
0.8507836538698038,0.6722825915419038,601,-15,18.984070917626315,12.41840993419824
0.85750476575571,0.6722758702962861,601,-15,18.984070917626315,12.41840993419824
0.86422581044132,0.672269149117871,601,-15,18.984070917626315,12.41840993419824
0.8709467879276888,0.6722624280066573,601,-15,18.984070917626315,12.41840993419824
0.8776676982158417,0.6722557069626437,601,-15,18.984070917626315,12.41840993419824
0.8843885413067766,0.6722489859858295,601,-15,18.984070917626315,12.41840993419824
0.8911093172014665,0.6722422650762134,601,-15,18.984070917626315,12.41840993419824
0.8978300259008613,0.6722355442337946,601,-15,18.984070917626315,12.41840993419824
0.9045506674058896,0.6722288234585719,601,-15,18.984070917626315,12.41840993419824
0.9112712417174598,0.6722221027505446,601,-15,18.984070917626315,12.41840993419824
0.9179917488364623,0.6722153821097117,601,-15,18.984070917626315,12.41840993419824
0.9247121887637707,0.6722086615360722,601,-15,18.984070917626315,12.41840993419824
0.9314325615002432,0.6722019410296253,601,-15,18.984070917626315,12.41840993419824
0.9381528670467234,0.6721952205903701,601,-15,18.984070917626315,12.41840993419824
0.9448731054040417,0.6721885002183056,601,-15,18.984070917626315,12.41840993419824
0.9515932765730164,0.6721817799134312,601,-15,18.984070917626315,12.41840993419824
0.9583133805544543,0.6721750596757459,601,-15,18.984070917626315,12.41840993419824
0.9650334173491524,0.6721683395052489,601,-15,18.984070917626315,12.41840993419824
0.9717533869578973,0.6721616194019395,601,-15,18.984070917626315,12.41840993419824
0.9784732893814672,0.6721548993658168,601,-15,18.984070917626315,12.41840993419824
0.9851931246206317,0.6721481793968801,601,-15,18.984070917626315,12.41840993419824
0.9919128926761532,0.6721414594951285,601,-15,18.984070917626315,12.41840993419824
0.9986325935487873,0.6721347396605614,601,-15,18.984070917626315,12.41840993419824
1.0053522272392827,0.6721280198931778,601,-15,18.984070917626315,12.41840993419824
1.0120717937483825,0.6721213001929772,601,-15,18.984070917626315,12.41840993419824
1.018791293076824,0.6721145805599587,601,-15,18.984070917626315,12.41840993419824
1.0255107252253393,0.6721078609941216,601,-15,18.984070917626315,12.41840993419824
1.0322300901946564,0.6721011414954651,601,-15,18.984070917626315,12.41840993419824
1.038949387985499,0.6720944220639885,601,-15,18.984070917626315,12.41840993419824
1.045668618598586,0.6720877026996911,601,-15,18.984070917626315,12.41840993419824
1.0523877820346332,0.6720809834025723,601,-15,18.984070917626315,12.41840993419824
1.059106878294353,0.672074264172631,601,-15,18.984070917626315,12.41840993419824
1.0658259073784546,0.672067545009867,601,-15,18.984070917626315,12.41840993419824
1.072544869287644,0.6720608259142792,601,-15,18.984070917626315,12.41840993419824
1.0792637640226252,0.672054106885867,601,-15,18.984070917626315,12.41840993419824
1.085982591584099,0.6720473879246297,601,-15,18.984070917626315,12.41840993419824
1.0927013519727644,0.6720406690305666,601,-15,18.984070917626315,12.41840993419824
1.0994200451893181,0.6720339502036771,601,-15,18.984070917626315,12.41840993419824
1.1061386712344548,0.6720272314439603,601,-15,18.984070917626315,12.41840993419824
1.1128572301088677,0.6720205127514156,601,-15,18.984070917626315,12.41840993419824
1.1195757218132478,0.6720137941260423,601,-15,18.984070917626315,12.41840993419824
1.1262941463482854,0.6720070755678398,601,-15,18.984070917626315,12.41840993419824
1.1330125037146688,0.6720003570768073,601,-15,18.984070917626315,12.41840993419824
1.139730793913085,0.6719936386529441,601,-15,18.984070917626315,12.41840993419824
1.1464490169442199,0.6719869202962495,601,-15,18.984070917626315,12.41840993419824
1.1531671728087582,0.671980202006723,601,-15,18.984070917626315,12.41840993419824
1.1598852615073836,0.6719734837843637,601,-15,18.984070917626315,12.41840993419824
1.166603283040779,0.671966765629171,601,-15,18.984070917626315,12.41840993419824
1.1733212374096262,0.6719600475411441,601,-15,18.984070917626315,12.41840993419824
1.180039124614607,0.6719533295202826,601,-15,18.984070917626315,12.41840993419824
1.1867569446564006,0.6719466115665855,601,-15,18.984070917626315,12.41840993419824
1.1934746975356874,0.6719398936800524,601,-15,18.984070917626315,12.41840993419824
1.2001923832531467,0.6719331758606824,601,-15,18.984070917626315,12.41840993419824
1.2069100018094565,0.6719264581084748,601,-15,18.984070917626315,12.41840993419824
1.2136275532052947,0.6719197404234292,601,-15,18.984070917626315,12.41840993419824
1.2203450374413387,0.6719130228055447,601,-15,18.984070917626315,12.41840993419824
1.2270624545182656,0.6719063052548206,601,-15,18.984070917626315,12.41840993419824
1.2337798044367518,0.6718995877712564,601,-15,18.984070917626315,12.41840993419824
1.2404970871974736,0.6718928703548511,601,-15,18.984070917626315,12.41840993419824
1.2472143028011067,0.6718861530056044,601,-15,18.984070917626315,12.41840993419824
1.2539314512483266,0.6718794357235154,601,-15,18.984070917626315,12.41840993419824
1.260648532539808,0.6718727185085835,601,-15,18.984070917626315,12.41840993419824
1.2673655466762255,0.6718660013608081,601,-15,18.984070917626315,12.41840993419824
1.2740824936582549,0.6718592842801883,601,-15,18.984070917626315,12.41840993419824
1.280799373486569,0.6718525672667236,601,-15,18.984070917626315,12.41840993419824
1.2875161861618427,0.6718458503204132,601,-15,18.984070917626315,12.41840993419824
1.2942329316847496,0.6718391334412567,601,-15,18.984070917626315,12.41840993419824
1.3009496100559632,0.6718324166292531,601,-15,18.984070917626315,12.41840993419824
1.3076662212761574,0.6718256998844019,601,-15,18.984070917626315,12.41840993419824
1.314382765346005,0.6718189832067023,601,-15,18.984070917626315,12.41840993419824
1.3210992422661796,0.6718122665961538,601,-15,18.984070917626315,12.41840993419824
1.327815652037354,0.6718055500527557,601,-15,18.984070917626315,12.41840993419824
1.3345319946602003,0.671798833576507,601,-15,18.984070917626315,12.41840993419824
1.341248270135393,0.6717921171674076,601,-15,18.984070917626315,12.41840993419824
1.3479644784636033,0.6717854008254563,601,-15,18.984070917626315,12.41840993419824
1.3546806196455037,0.6717786845506528,601,-15,18.984070917626315,12.41840993419824
1.3613966936817674,0.6717719683429962,601,-15,18.984070917626315,12.41840993419824
1.368112700573066,0.671765252202486,601,-15,18.984070917626315,12.41840993419824
1.374828640320072,0.6717585361291213,601,-15,18.984070917626315,12.41840993419824
1.381544512923458,0.6717518201229017,601,-15,18.984070917626315,12.41840993419824
1.3882603183838955,0.6717451041838263,601,-15,18.984070917626315,12.41840993419824
1.3949760567020568,0.6717383883118945,601,-15,18.984070917626315,12.41840993419824
1.4016917278786136,0.6717316725071056,601,-15,18.984070917626315,12.41840993419824
1.4084073319142385,0.6717249567694591,601,-15,18.984070917626315,12.41840993419824
1.4151228688096025,0.6717182410989541,601,-15,18.984070917626315,12.41840993419824
1.4218383385653774,0.67171152549559,601,-15,18.984070917626315,12.41840993419824
1.4285537411822353,0.6717048099593662,601,-15,18.984070917626315,12.41840993419824
1.4352690766608478,0.6716980944902821,601,-15,18.984070917626315,12.41840993419824
1.4419843450018865,0.6716913790883368,601,-15,18.984070917626315,12.41840993419824
1.448699546206023,0.6716846637535296,601,-15,18.984070917626315,12.41840993419824
1.4554146802739292,0.6716779484858602,601,-15,18.984070917626315,12.41840993419824
1.4621297472062764,0.6716712332853275,601,-15,18.984070917626315,12.41840993419824
1.4688447470037358,0.6716645181519312,601,-15,18.984070917626315,12.41840993419824
1.4755596796669794,0.6716578030856704,601,-15,18.984070917626315,12.41840993419824
1.4822745451966783,0.6716510880865444,601,-15,18.984070917626315,12.41840993419824
1.4889893435935042,0.6716443731545526,601,-15,18.984070917626315,12.41840993419824
1.495704074858128,0.6716376582896945,601,-15,18.984070917626315,12.41840993419824
1.5024187389912218,0.6716309434919692,601,-15,18.984070917626315,12.41840993419824
1.509133335993456,0.671624228761376,601,-15,18.984070917626315,12.41840993419824
1.5158478658655026,0.6716175140979144,601,-15,18.984070917626315,12.41840993419824
1.522562328608033,0.6716107995015836,601,-15,18.984070917626315,12.41840993419824
1.529276724221718,0.671604084972383,601,-15,18.984070917626315,12.41840993419824
1.5359910527072296,0.671597370510312,601,-15,18.984070917626315,12.41840993419824
1.5427053140652383,0.6715906561153697,601,-15,18.984070917626315,12.41840993419824
1.5494195082964153,0.6715839417875556,601,-15,18.984070917626315,12.41840993419824
1.5561336354014326,0.6715772275268691,601,-15,18.984070917626315,12.41840993419824
1.5628476953809611,0.6715705133333093,601,-15,18.984070917626315,12.41840993419824
1.569561688235671,0.6715637992068757,601,-15,18.984070917626315,12.41840993419824
1.5762756139662353,0.6715570851475676,601,-15,18.984070917626315,12.41840993419824
1.5829894725733238,0.6715503711553843,601,-15,18.984070917626315,12.41840993419824
1.5897032640576079,0.6715436572303252,601,-15,18.984070917626315,12.41840993419824
