Vout,Iout,Irradiance,Temperature,MaxVoltage,MaxPower
0.009525508408572995,1.90512,1701,-15,18.999122368485573,35.835354307364916
0.028576349090052973,1.90512,1701,-15,18.999122368485573,35.835354307364916
0.04762680247272028,1.9051102839795913,1701,-15,18.999122368485573,35.835354307364916
0.06667679936577033,1.9050912331389098,1701,-15,18.999122368485573,35.835354307364916
0.08572631715644774,1.905072182686499,1701,-15,18.999122368485573,35.835354307364916
0.1047753780576661,1.9050531326915108,1701,-15,18.999122368485573,35.835354307364916
0.12382400257402196,1.9050340831756252,1701,-15,18.999122368485573,35.835354307364916
0.14287220963281366,1.905015034116629,1701,-15,18.999122368485573,35.835354307364916
0.16192001670518985,1.9049959854940175,1701,-15,18.999122368485573,35.835354307364916
0.18096743991818812,1.9049769372888636,1701,-15,18.999122368485573,35.835354307364916
0.20001449415815284,1.9049578894836963,1701,-15,18.999122368485573,35.835354307364916
0.21906119316619604,1.904938842062388,1701,-15,18.999122368485573,35.835354307364916
0.23810754962631364,1.904919795010053,1701,-15,18.999122368485573,35.835354307364916
0.25715357524672133,1.9049007483129494,1701,-15,18.999122368485573,35.835354307364916
0.2761992808349327,1.9048817019583941,1701,-15,18.999122368485573,35.835354307364916
0.2952446763670609,1.9048626559346784,1701,-15,18.999122368485573,35.835354307364916
0.3142897710517875,1.9048436102309947,1701,-15,18.999122368485573,35.835354307364916
0.33333457338941014,1.9048245648373672,1701,-15,18.999122368485573,35.835354307364916
0.3523790912263466,1.904805519744587,1701,-15,18.999122368485573,35.835354307364916
0.3714233318054456,1.904786474944154,1701,-15,18.999122368485573,35.835354307364916
0.390467301812426,1.9047674304282216,1701,-15,18.999122368485573,35.835354307364916
0.4095110074187434,1.904748386189547,1701,-15,18.999122368485573,35.835354307364916
0.4285544543211582,1.9047293422214444,1701,-15,18.999122368485573,35.835354307364916
0.44759764777825983,1.9047102985177427,1701,-15,18.999122368485573,35.835354307364916
0.4666405926441797,1.9046912550727446,1701,-15,18.999122368485573,35.835354307364916
0.4856832933997115,1.9046722118811918,1701,-15,18.999122368485573,35.835354307364916
0.5047257541810357,1.9046531689382302,1701,-15,18.999122368485573,35.835354307364916
0.5237679788062354,1.904634126239379,1701,-15,18.999122368485573,35.835354307364916
0.5428099707997702,1.904615083780502,1701,-15,18.999122368485573,35.835354307364916
0.5618517334150692,1.9045960415577812,1701,-15,18.999122368485573,35.835354307364916
0.5808932696553839,1.9045769995676918,1701,-15,18.999122368485573,35.835354307364916
0.5999345822930372,1.9045579578069807,1701,-15,18.999122368485573,35.835354307364916
0.6189756738871914,1.9045389162726445,1701,-15,18.999122368485573,35.835354307364916
0.6380165468002496,1.904519874961911,1701,-15,18.999122368485573,35.835354307364916
0.657057203212994,1.9045008338722211,1701,-15,18.999122368485573,35.835354307364916
0.6760976451385606,1.9044817930012121,1701,-15,18.999122368485573,35.835354307364916
0.6951378744353379,1.9044627523467035,1701,-15,18.999122368485573,35.835354307364916
0.7141778928188734,1.9044437119066822,1701,-15,18.999122368485573,35.835354307364916
0.7332177018728645,1.9044246716792894,1701,-15,18.999122368485573,35.835354307364916
0.7522573030593023,1.90440563166281,1701,-15,18.999122368485573,35.835354307364916
0.7712966977278364,1.90438659185566,1701,-15,18.999122368485573,35.835354307364916
0.7903358871244192,1.9043675522563774,1701,-15,18.999122368485573,35.835354307364916
0.8093748723992837,1.9043485128636128,1701,-15,18.999122368485573,35.835354307364916
0.8284136546143083,1.9043294736761203,1701,-15,18.999122368485573,35.835354307364916
0.8474522347498155,1.9043104346927493,1701,-15,18.999122368485573,35.835354307364916
0.8664906137108467,1.9042913959124383,1701,-15,18.999122368485573,35.835354307364916
0.8855287923329541,1.9042723573342066,1701,-15,18.999122368485573,35.835354307364916
0.9045667713875479,1.9042533189571496,1701,-15,18.999122368485573,35.835354307364916
0.9236045515868309,1.9042342807804313,1701,-15,18.999122368485573,35.835354307364916
0.9426421335883547,1.9042152428032806,1701,-15,18.999122368485573,35.835354307364916
0.9616795179992236,1.904196205024985,1701,-15,18.999122368485573,35.835354307364916
0.9807167053799773,1.9041771674448873,1701,-15,18.999122368485573,35.835354307364916
0.9997536962481731,1.9041581300623802,1701,-15,18.999122368485573,35.835354307364916
1.0187904910816927,1.9041390928769033,1701,-15,18.999122368485573,35.835354307364916
1.0378270903217954,1.9041200558879388,1701,-15,18.999122368485573,35.835354307364916
1.0568634943759352,1.904101019095009,1701,-15,18.999122368485573,35.835354307364916
1.0758997036203632,1.9040819824976725,1701,-15,18.999122368485573,35.835354307364916
1.0949357184025272,1.904062946095522,1701,-15,18.999122368485573,35.835354307364916
1.1139715390432878,1.9040439098881814,1701,-15,18.999122368485573,35.835354307364916
1.133007165838965,1.9040248738753027,1701,-15,18.999122368485573,35.835354307364916
1.1520425990632255,1.9040058380565656,1701,-15,18.999122368485573,35.835354307364916
1.1710778389688257,1.9039868024316735,1701,-15,18.999122368485573,35.835354307364916
1.1901128857892223,1.903967767000353,1701,-15,18.999122368485573,35.835354307364916
1.2091477397400539,1.903948731762351,1701,-15,18.999122368485573,35.835354307364916
1.2281824010205156,1.903929696717434,1701,-15,18.999122368485573,35.835354307364916
1.2472168698146215,1.9039106618653867,1701,-15,18.999122368485573,35.835354307364916
1.2662511462923742,1.9038916272060098,1701,-15,18.999122368485573,35.835354307364916
1.285285230610842,1.9038725927391191,1701,-15,18.999122368485573,35.835354307364916
1.3043191229151547,1.9038535584645448,1701,-15,18.999122368485573,35.835354307364916
1.3233528233394223,1.9038345243821297,1701,-15,18.999122368485573,35.835354307364916
1.3423863320075817,1.9038154904917288,1701,-15,18.999122368485573,35.835354307364916
1.361419649034181,1.903796456793208,1701,-15,18.999122368485573,35.835354307364916
1.3804527745251007,1.9037774232864433,1701,-15,18.999122368485573,35.835354307364916
1.3994857085782217,1.90375838997132,1701,-15,18.999122368485573,35.835354307364916
1.4185184512840394,1.9037393568477325,1701,-15,18.999122368485573,35.835354307364916
1.4375510027262328,1.9037203239155827,1701,-15,18.999122368485573,35.835354307364916
1.4565833629821892,1.9037012911747802,1701,-15,18.999122368485573,35.835354307364916
1.4756155321234874,1.9036822586252413,1701,-15,18.999122368485573,35.835354307364916
1.4946475102163461,1.9036632262668887,1701,-15,18.999122368485573,35.835354307364916
1.5136792973220354,1.9036441940996505,1701,-15,18.999122368485573,35.835354307364916
1.5327108934972555,1.903625162123461,1701,-15,18.999122368485573,35.835354307364916
1.5517422987944929,1.9036061303382585,1701,-15,18.999122368485573,35.835354307364916
1.5707735132623406,1.9035870987439865,1701,-15,18.999122368485573,35.835354307364916
1.5898045369457998,1.9035680673405924,1701,-15,18.999122368485573,35.835354307364916
1.6088353698865545,1.9035490361280276,1701,-15,18.999122368485573,35.835354307364916
1.6278660121232293,1.9035300051062474,1701,-15,18.999122368485573,35.835354307364916
1.6468964636916226,1.9035109742752097,1701,-15,18.999122368485573,35.835354307364916
1.665926724624924,1.9034919436348763,1701,-15,18.999122368485573,35.835354307364916
1.6849567949539177,1.9034729131852108,1701,-15,18.999122368485573,35.835354307364916
1.7039866747071637,1.9034538829261807,1701,-15,18.999122368485573,35.835354307364916
1.723016363911171,1.9034348528577547,1701,-15,18.999122368485573,35.835354307364916
1.7420458625905575,1.9034158229799045,1701,-15,18.999122368485573,35.835354307364916
1.7610751707681906,1.9033967932926035,1701,-15,18.999122368485573,35.835354307364916
1.780104288465326,1.9033777637958271,1701,-15,18.999122368485573,35.835354307364916
1.7991332157017303,1.9033587344895524,1701,-15,18.999122368485573,35.835354307364916
1.8181619524957946,1.9033397053737582,1701,-15,18.999122368485573,35.835354307364916
1.8371904988646426,1.9033206764484247,1701,-15,18.999122368485573,35.835354307364916
1.8562188548242253,1.9033016477135336,1701,-15,18.999122368485573,35.835354307364916
1.8752470203894143,1.9032826191690677,1701,-15,18.999122368485573,35.835354307364916
1.894274995574082,1.9032635908150108,1701,-15,18.999122368485573,35.835354307364916
1.913302780391181,1.9032445626513486,1701,-15,18.999122368485573,35.835354307364916
1.9323303748528122,1.9032255346780667,1701,-15,18.999122368485573,35.835354307364916
1.951357778970293,1.9032065068951525,1701,-15,18.999122368485573,35.835354307364916
1.9703849927542152,1.9031874793025936,1701,-15,18.999122368485573,35.835354307364916
1.9894120162145026,1.9031684519003789,1701,-15,18.999122368485573,35.835354307364916
2.0084388493604624,1.9031494246884977,1701,-15,18.999122368485573,35.835354307364916
2.02746549220083,1.9031303976669403,1701,-15,18.999122368485573,35.835354307364916
2.046491944743818,1.903111370835697,1701,-15,18.999122368485573,35.835354307364916
2.065518206997151,1.9030923441947594,1701,-15,18.999122368485573,35.835354307364916
2.0845442789681057,1.903073317744119,1701,-15,18.999122368485573,35.835354307364916
2.103570160663547,1.9030542914837683,1701,-15,18.999122368485573,35.835354307364916
2.1225958520899555,1.9030352654137,1701,-15,18.999122368485573,35.835354307364916
2.1416213532534614,1.9030162395339072,1701,-15,18.999122368485573,35.835354307364916
2.1606466641598687,1.9029972138443834,1701,-15,18.999122368485573,35.835354307364916
2.179671784814681,1.9029781883451224,1701,-15,18.999122368485573,35.835354307364916
2.198696715223126,1.9029591630361187,1701,-15,18.999122368485573,35.835354307364916
2.2177214553901736,1.9029401379173665,1701,-15,18.999122368485573,35.835354307364916
2.236746005320558,1.9029211129888606,1701,-15,18.999122368485573,35.835354307364916
2.2557703650187957,1.902902088250596,1701,-15,18.999122368485573,35.835354307364916
2.2747945344892044,1.902883063702568,1701,-15,18.999122368485573,35.835354307364916
2.2938185137359115,1.9028640393447722,1701,-15,18.999122368485573,35.835354307364916
2.3128423027628764,1.9028450151772043,1701,-15,18.999122368485573,35.835354307364916
2.3318659015738983,1.9028259911998602,1701,-15,18.999122368485573,35.835354307364916
2.350889310172632,1.9028069674127355,1701,-15,18.999122368485573,35.835354307364916
2.3699125285625957,1.9027879438158268,1701,-15,18.999122368485573,35.835354307364916
2.3889355567471844,1.9027689204091305,1701,-15,18.999122368485573,35.835354307364916
2.4079583947296777,1.9027498971926429,1701,-15,18.999122368485573,35.835354307364916
2.426981042513249,1.9027308741663607,1701,-15,18.999122368485573,35.835354307364916
2.4460035001009732,1.9027118513302805,1701,-15,18.999122368485573,35.835354307364916
2.465025767495838,1.9026928286843992,1701,-15,18.999122368485573,35.835354307364916
2.4840478447007426,1.9026738062287138,1701,-15,18.999122368485573,35.835354307364916
2.5030697317185133,1.9026547839632213,1701,-15,18.999122368485573,35.835354307364916
2.522091428551904,1.9026357618879186,1701,-15,18.999122368485573,35.835354307364916
2.541112935203602,1.9026167400028031,1701,-15,18.999122368485573,35.835354307364916
2.5601342516762364,1.9025977183078717,1701,-15,18.999122368485573,35.835354307364916
2.579155377972377,1.9025786968031224,1701,-15,18.999122368485573,35.835354307364916
2.5981763140945455,1.9025596754885519,1701,-15,18.999122368485573,35.835354307364916
2.617197060045214,1.9025406543641579,1701,-15,18.999122368485573,35.835354307364916
2.6362176158268107,1.9025216334299377,1701,-15,18.999122368485573,35.835354307364916
2.655237981441723,1.9025026126858893,1701,-15,18.999122368485573,35.835354307364916
2.6742581568923027,1.9024835921320098,1701,-15,18.999122368485573,35.835354307364916
2.6932781421808647,1.9024645717682969,1701,-15,18.999122368485573,35.835354307364916
2.712297937309694,1.9024455515947485,1701,-15,18.999122368485573,35.835354307364916
2.7313175422810434,1.902426531611362,1701,-15,18.999122368485573,35.835354307364916
2.7503369570971414,1.9024075118181352,1701,-15,18.999122368485573,35.835354307364916
2.7693561817601897,1.9023884922150658,1701,-15,18.999122368485573,35.835354307364916
2.7883752162723683,1.9023694728021516,1701,-15,18.999122368485573,35.835354307364916
2.8073940606358323,1.9023504535793905,1701,-15,18.999122368485573,35.835354307364916
2.8264127148527214,1.9023314345467803,1701,-15,18.999122368485573,35.835354307364916
2.8454311789251556,1.9023124157043187,1701,-15,18.999122368485573,35.835354307364916
2.864449452855237,1.9022933970520037,1701,-15,18.999122368485573,35.835354307364916
2.8834675366450524,1.9022743785898333,1701,-15,18.999122368485573,35.835354307364916
2.9024854302966743,1.902255360317805,1701,-15,18.999122368485573,35.835354307364916
2.921503133812162,1.902236342235917,1701,-15,18.999122368485573,35.835354307364916
2.9405206471935648,1.9022173243441671,1701,-15,18.999122368485573,35.835354307364916
2.9595379704429177,1.9021983066425536,1701,-15,18.999122368485573,35.835354307364916
2.978555103562245,1.902179289131074,1701,-15,18.999122368485573,35.835354307364916
2.997572046553566,1.9021602718097264,1701,-15,18.999122368485573,35.835354307364916
3.016588799418885,1.9021412546785088,1701,-15,18.999122368485573,35.835354307364916
3.0356053621602017,1.9021222377374192,1701,-15,18.999122368485573,35.835354307364916
3.0546217347795075,1.9021032209864557,1701,-15,18.999122368485573,35.835354307364916
3.0736379172787873,1.9020842044256159,1701,-15,18.999122368485573,35.835354307364916
3.0926539096600183,1.9020651880548982,1701,-15,18.999122368485573,35.835354307364916
3.111669711925172,1.9020461718743007,1701,-15,18.999122368485573,35.835354307364916
3.1306853240762167,1.902027155883821,1701,-15,18.999122368485573,35.835354307364916
3.1497007461151125,1.9020081400834576,1701,-15,18.999122368485573,35.835354307364916
3.1687159780438168,1.9019891244732081,1701,-15,18.999122368485573,35.835354307364916
3.1877310198642808,1.9019701090530707,1701,-15,18.999122368485573,35.835354307364916
3.2067458715784545,1.9019510938230437,1701,-15,18.999122368485573,35.835354307364916
3.2257605331882813,1.9019320787831246,1701,-15,18.999122368485573,35.835354307364916
3.2447750046957027,1.9019130639333122,1701,-15,18.999122368485573,35.835354307364916
3.2637892861026567,1.9018940492736038,1701,-15,18.999122368485573,35.835354307364916
3.282803377411079,1.9018750348039979,1701,-15,18.999122368485573,35.835354307364916
3.3018172786229023,1.9018560205244923,1701,-15,18.999122368485573,35.835354307364916
3.320830989740056,1.9018370064350854,1701,-15,18.999122368485573,35.835354307364916
3.3398445107644688,1.901817992535775,1701,-15,18.999122368485573,35.835354307364916
3.358857841698065,1.9017989788265592,1701,-15,18.999122368485573,35.835354307364916
3.377870982542768,1.901779965307436,1701,-15,18.999122368485573,35.835354307364916
3.3968839333005025,1.901760951978404,1701,-15,18.999122368485573,35.835354307364916
3.415896693973186,1.9017419388394605,1701,-15,18.999122368485573,35.835354307364916
3.434909264562738,1.9017229258906043,1701,-15,18.999122368485573,35.835354307364916
3.4539216450710755,1.901703913131833,1701,-15,18.999122368485573,35.835354307364916
3.472933835500115,1.9016849005631447,1701,-15,18.999122368485573,35.835354307364916
3.491945835851771,1.9016658881845376,1701,-15,18.999122368485573,35.835354307364916
3.5109576461279577,1.9016468759960097,1701,-15,18.999122368485573,35.835354307364916
3.5299692663305864,1.9016278639975592,1701,-15,18.999122368485573,35.835354307364916
3.54898069646157,1.9016088521891843,1701,-15,18.999122368485573,35.835354307364916
3.567991936522817,1.9015898405708829,1701,-15,18.999122368485573,35.835354307364916
3.5870029865162394,1.9015708291426532,1701,-15,18.999122368485573,35.835354307364916
3.606013846443745,1.901551817904493,1701,-15,18.999122368485573,35.835354307364916
3.625024516307244,1.9015328068564008,1701,-15,18.999122368485573,35.835354307364916
3.6440349961086427,1.9015137959983743,1701,-15,18.999122368485573,35.835354307364916
3.663045285849848,1.901494785330412,1701,-15,18.999122368485573,35.835354307364916
3.682055385532767,1.9014757748525117,1701,-15,18.999122368485573,35.835354307364916
3.7010652951593066,1.9014567645646716,1701,-15,18.999122368485573,35.835354307364916
3.7200750147313717,1.9014377544668897,1701,-15,18.999122368485573,35.835354307364916
3.7390845442508662,1.9014187445591642,1701,-15,18.999122368485573,35.835354307364916
3.7580938837196975,1.901399734841493,1701,-15,18.999122368485573,35.835354307364916
3.777103033139768,1.9013807253138746,1701,-15,18.999122368485573,35.835354307364916
3.7961119925129823,1.9013617159763068,1701,-15,18.999122368485573,35.835354307364916
3.815120761841244,1.9013427068287876,1701,-15,18.999122368485573,35.835354307364916
3.8341293411264576,1.9013236978713153,1701,-15,18.999122368485573,35.835354307364916
3.8531377303705248,1.901304689103888,1701,-15,18.999122368485573,35.835354307364916
3.8721459295753493,1.9012856805265037,1701,-15,18.999122368485573,35.835354307364916
3.8911539387428324,1.9012666721391605,1701,-15,18.999122368485573,35.835354307364916
3.9101617578748775,1.9012476639418565,1701,-15,18.999122368485573,35.835354307364916
3.929169386973387,1.90122865593459,1701,-15,18.999122368485573,35.835354307364916
3.948176826040263,1.9012096481173586,1701,-15,18.999122368485573,35.835354307364916
3.9671840750774066,1.9011906404901608,1701,-15,18.999122368485573,35.835354307364916
3.9861911340867198,1.9011716330529949,1701,-15,18.999122368485573,35.835354307364916
4.005198003070105,1.9011526258058584,1701,-15,18.999122368485573,35.835354307364916
4.024204682029461,1.90113361874875,1701,-15,18.999122368485573,35.835354307364916
4.043211170966691,1.9011146118816673,1701,-15,18.999122368485573,35.835354307364916
4.062217469883696,1.9010956052046086,1701,-15,18.999122368485573,35.835354307364916
4.081223578782375,1.901076598717572,1701,-15,18.999122368485573,35.835354307364916
4.100229497664633,1.9010575924205557,1701,-15,18.999122368485573,35.835354307364916
4.119235226532368,1.9010385863135577,1701,-15,18.999122368485573,35.835354307364916
4.13824076538748,1.9010195803965761,1701,-15,18.999122368485573,35.835354307364916
4.157246114231871,1.901000574669609,1701,-15,18.999122368485573,35.835354307364916
4.17625127306744,1.9009815691326544,1701,-15,18.999122368485573,35.835354307364916
4.195256241896089,1.9009625637857106,1701,-15,18.999122368485573,35.835354307364916
4.214261020719716,1.9009435586287755,1701,-15,18.999122368485573,35.835354307364916
4.233265609540225,1.9009245536618475,1701,-15,18.999122368485573,35.835354307364916
4.252270008359513,1.9009055488849242,1701,-15,18.999122368485573,35.835354307364916
4.2712742171794815,1.9008865442980043,1701,-15,18.999122368485573,35.835354307364916
4.290278236002029,1.9008675399010855,1701,-15,18.999122368485573,35.835354307364916
4.309282064829057,1.900848535694166,1701,-15,18.999122368485573,35.835354307364916
4.328285703662466,1.9008295316772439,1701,-15,18.999122368485573,35.835354307364916
4.347289152504154,1.9008105278503173,1701,-15,18.999122368485573,35.835354307364916
4.3662924113560235,1.9007915242133844,1701,-15,18.999122368485573,35.835354307364916
4.3852954802199715,1.900772520766443,1701,-15,18.999122368485573,35.835354307364916
4.404298359097898,1.9007535175094914,1701,-15,18.999122368485573,35.835354307364916
4.423301047991703,1.9007345144425278,1701,-15,18.999122368485573,35.835354307364916
