Vout,Iout,Irradiance,Temperature,MaxVoltage,MaxPower
0.00308112037384256,0.61623,501,40,22.826857430901576,13.526604896504816
0.009243304148695801,0.61623,501,40,22.826857430901576,13.526604896504816
0.015405362647898518,0.6162268572566262,501,40,22.826857430901576,13.526604896504816
0.02156727349099723,0.6162206950728514,501,40,22.826857430901576,13.526604896504816
0.027729029363671474,0.6162145330146664,501,40,22.826857430901576,13.526604896504816
0.03389063745090891,0.6162083711044396,501,40,22.826857430901576,13.526604896504816
0.04005210438512513,0.6162022093491831,501,40,22.826857430901576,13.526604896504816
0.04621343628854287,0.616196047741712,501,40,22.826857430901576,13.526604896504816
0.052374638812378846,0.616189886275394,501,40,22.826857430901576,13.526604896504816
0.058535717173083625,0.6161837249441068,501,40,22.826857430901576,13.526604896504816
0.06469667618579329,0.616177563742199,501,40,22.826857430901576,13.526604896504816
0.07085752029520713,0.6161714026644545,501,40,22.826857430901576,13.526604896504816
0.07701825360408966,0.6161652417060579,501,40,22.826857430901576,13.526604896504816
0.08317887989957962,0.6161590808625645,501,40,22.826857430901576,13.526604896504816
0.08933940267747473,0.6161529201298718,501,40,22.826857430901576,13.526604896504816
0.09549982516464788,0.6161467595041924,501,40,22.826857430901576,13.526604896504816
0.10166015033973867,0.6161405989820306,501,40,22.826857430901576,13.526604896504816
0.10782038095225294,0.6161344385601595,501,40,22.826857430901576,13.526604896504816
0.11398051954019249,0.6161282782356005,501,40,22.826857430901576,13.526604896504816
0.12014056844632869,0.6161221180056039,501,40,22.826857430901576,13.526604896504816
0.12630052983322376,0.6161159578676321,501,40,22.826857430901576,13.526604896504816
0.13246040569709633,0.6161097978193419,501,40,22.826857430901576,13.526604896504816
0.13862019788062022,0.616103637858571,501,40,22.826857430901576,13.526604896504816
0.14477990808473845,0.6160974779833231,501,40,22.826857430901576,13.526604896504816
0.1509395378795681,0.6160913181917557,501,40,22.826857430901576,13.526604896504816
0.15709908871446635,0.6160851584821675,501,40,22.826857430901576,13.526604896504816
0.16325856192732194,0.6160789988529887,501,40,22.826857430901576,13.526604896504816
0.16941795875313168,0.6160728393027698,501,40,22.826857430901576,13.526604896504816
0.17557728033191727,0.6160666798301728,501,40,22.826857430901576,13.526604896504816
0.18173652771603258,0.616060520433963,501,40,22.826857430901576,13.526604896504816
0.1878957018769091,0.6160543611130002,501,40,22.826857430901576,13.526604896504816
0.19405480371128225,0.616048201866232,501,40,22.826857430901576,13.526604896504816
0.20021383404693865,0.616042042692687,501,40,22.826857430901576,13.526604896504816
0.20637279364802094,0.6160358835914685,501,40,22.826857430901576,13.526604896504816
0.2125316832199248,0.6160297245617489,501,40,22.826857430901576,13.526604896504816
0.21869050341381913,0.6160235656027637,501,40,22.826857430901576,13.526604896504816
0.22484925483081813,0.6160174067138077,501,40,22.826857430901576,13.526604896504816
0.23100793802583267,0.6160112478942297,501,40,22.826857430901576,13.526604896504816
0.23716655351112542,0.6160050891434286,501,40,22.826857430901576,13.526604896504816
0.2433251017595919,0.6159989304608494,501,40,22.826857430901576,13.526604896504816
0.24948358320778982,0.61599277184598,501,40,22.826857430901576,13.526604896504816
0.2556419982587347,0.6159866132983474,501,40,22.826857430901576,13.526604896504816
0.261800347284481,0.6159804548175151,501,40,22.826857430901576,13.526604896504816
0.2679586306285038,0.61597429640308,501,40,22.826857430901576,13.526604896504816
0.27411684860789803,0.6159681380546701,501,40,22.826857430901576,13.526604896504816
0.28027500151540846,0.6159619797719419,501,40,22.826857430901576,13.526604896504816
0.2864330896213027,0.6159558215545784,501,40,22.826857430901576,13.526604896504816
0.292591113175101,0.6159496634022866,501,40,22.826857430901576,13.526604896504816
0.29874907240717263,0.6159435053147966,501,40,22.826857430901576,13.526604896504816
0.30490696753020896,0.6159373472918586,501,40,22.826857430901576,13.526604896504816
0.311064798740584,0.6159311893332423,501,40,22.826857430901576,13.526604896504816
0.31722256621961,0.6159250314387351,501,40,22.826857430901576,13.526604896504816
0.32338027013469584,0.6159188736081406,501,40,22.826857430901576,13.526604896504816
0.3295379106404171,0.6159127158412773,501,40,22.826857430901576,13.526604896504816
0.33569548787950354,0.615906558137978,501,40,22.826857430901576,13.526604896504816
0.3418530019837504,0.615900400498088,501,40,22.826857430901576,13.526604896504816
0.3480104530748596,0.6158942429214648,501,40,22.826857430901576,13.526604896504816
0.35416784126521655,0.6158880854079762,501,40,22.826857430901576,13.526604896504816
0.3603251666586069,0.6158819279575009,501,40,22.826857430901576,13.526604896504816
0.36648242935087827,0.6158757705699263,501,40,22.826857430901576,13.526604896504816
0.3726396294305509,0.6158696132451487,501,40,22.826857430901576,13.526604896504816
0.37879676697938164,0.6158634559830721,501,40,22.826857430901576,13.526604896504816
0.3849538420728838,0.6158572987836082,501,40,22.826857430901576,13.526604896504816
0.39111085478080826,0.6158511416466751,501,40,22.826857430901576,13.526604896504816
0.39726780516758653,0.6158449845721973,501,40,22.826857430901576,13.526604896504816
0.4034246932927397,0.6158388275601051,501,40,22.826857430901576,13.526604896504816
0.40958151921125696,0.615832670610334,501,40,22.826857430901576,13.526604896504816
0.4157382829739435,0.6158265137228246,501,40,22.826857430901576,13.526604896504816
0.42189498462774305,0.6158203568975218,501,40,22.826857430901576,13.526604896504816
0.4280516242160347,0.6158142001343747,501,40,22.826857430901576,13.526604896504816
0.4342082017789073,0.6158080434333366,501,40,22.826857430901576,13.526604896504816
0.4403647173534124,0.615801886794364,501,40,22.826857430901576,13.526604896504816
0.44652117097379834,0.6157957302174168,501,40,22.826857430901576,13.526604896504816
0.45267756267172526,0.615789573702458,501,40,22.826857430901576,13.526604896504816
0.45883389247646506,0.6157834172494532,501,40,22.826857430901576,13.526604896504816
0.4649901604150846,0.6157772608583709,501,40,22.826857430901576,13.526604896504816
0.4711463665126154,0.6157711045291818,501,40,22.826857430901576,13.526604896504816
0.47730251079221064,0.6157649482618589,501,40,22.826857430901576,13.526604896504816
0.4834585932752891,0.615758792056377,501,40,22.826857430901576,13.526604896504816
0.489614613981669,0.615752635912713,501,40,22.826857430901576,13.526604896504816
0.4957705729296912,0.6157464798308455,501,40,22.826857430901576,13.526604896504816
0.5019264701363325,0.6157403238107548,501,40,22.826857430901576,13.526604896504816
0.5080823056173112,0.6157341678524224,501,40,22.826857430901576,13.526604896504816
0.5142380793871827,0.6157280119558314,501,40,22.826857430901576,13.526604896504816
0.520393791459431,0.615721856120966,501,40,22.826857430901576,13.526604896504816
0.526549441846549,0.6157157003478116,501,40,22.826857430901576,13.526604896504816
0.5327050305601161,0.615709544636355,501,40,22.826857430901576,13.526604896504816
0.538860557610868,0.6157033889865835,501,40,22.826857430901576,13.526604896504816
0.545016023008762,0.6156972333984855,501,40,22.826857430901576,13.526604896504816
0.5511714267630361,0.6156910778720502,501,40,22.826857430901576,13.526604896504816
0.5573267688822652,0.6156849224072679,501,40,22.826857430901576,13.526604896504816
0.5634820493744118,0.6156787670041293,501,40,22.826857430901576,13.526604896504816
0.5696372682468728,0.6156726116626255,501,40,22.826857430901576,13.526604896504816
0.5757924255065234,0.615666456382749,501,40,22.826857430901576,13.526604896504816
0.5819475211597576,0.615660301164492,501,40,22.826857430901576,13.526604896504816
0.588102555212524,0.6156541460078478,501,40,22.826857430901576,13.526604896504816
0.5942575276703614,0.6156479909128102,501,40,22.826857430901576,13.526604896504816
0.6004124385384294,0.6156418358793729,501,40,22.826857430901576,13.526604896504816
0.6065672878215382,0.6156356809075306,501,40,22.826857430901576,13.526604896504816
0.6127220755241752,0.615629525997278,501,40,22.826857430901576,13.526604896504816
0.6188768016505298,0.6156233711486104,501,40,22.826857430901576,13.526604896504816
0.6250314662045166,0.6156172163615233,501,40,22.826857430901576,13.526604896504816
0.6311860691897956,0.6156110616360124,501,40,22.826857430901576,13.526604896504816
0.6373406106097934,0.6156049069720739,501,40,22.826857430901576,13.526604896504816
0.64349509046772,0.6155987523697041,501,40,22.826857430901576,13.526604896504816
0.6496495087665856,0.6155925978288995,501,40,22.826857430901576,13.526604896504816
0.655803865509216,0.6155864433496571,501,40,22.826857430901576,13.526604896504816
0.6619581606982673,0.6155802889319737,501,40,22.826857430901576,13.526604896504816
0.6681123943362381,0.6155741345758465,501,40,22.826857430901576,13.526604896504816
0.6742665664254825,0.6155679802812729,501,40,22.826857430901576,13.526604896504816
0.680420676968221,0.6155618260482504,501,40,22.826857430901576,13.526604896504816
0.6865747259665493,0.6155556718767765,501,40,22.826857430901576,13.526604896504816
0.6927287134224508,0.6155495177668492,501,40,22.826857430901576,13.526604896504816
0.6988826393378027,0.6155433637184663,501,40,22.826857430901576,13.526604896504816
0.7050365037143853,0.6155372097316258,501,40,22.826857430901576,13.526604896504816
0.7111903065538894,0.6155310558063258,501,40,22.826857430901576,13.526604896504816
0.7173440478579223,0.6155249019425647,501,40,22.826857430901576,13.526604896504816
0.723497727628016,0.6155187481403406,501,40,22.826857430901576,13.526604896504816
0.7296513458656313,0.6155125943996519,501,40,22.826857430901576,13.526604896504816
0.7358049025721639,0.6155064407204972,501,40,22.826857430901576,13.526604896504816
0.7419583977489499,0.615500287102875,501,40,22.826857430901576,13.526604896504816
0.7481118313972693,0.6154941335467838,501,40,22.826857430901576,13.526604896504816
0.7542652035183518,0.6154879800522224,501,40,22.826857430901576,13.526604896504816
0.7604185141133785,0.6154818266191894,501,40,22.826857430901576,13.526604896504816
0.7665717631834883,0.6154756732476837,501,40,22.826857430901576,13.526604896504816
0.7727249507297788,0.615469519937704,501,40,22.826857430901576,13.526604896504816
0.7788780767533109,0.6154633666892493,501,40,22.826857430901576,13.526604896504816
0.7850311412551115,0.6154572135023183,501,40,22.826857430901576,13.526604896504816
0.791184144236175,0.6154510603769101,501,40,22.826857430901576,13.526604896504816
0.7973370856974673,0.6154449073130236,501,40,22.826857430901576,13.526604896504816
0.8034899656399269,0.6154387543106579,501,40,22.826857430901576,13.526604896504816
0.8096427840644675,0.6154326013698118,501,40,22.826857430901576,13.526604896504816
0.81579554097198,0.6154264484904847,501,40,22.826857430901576,13.526604896504816
0.821948236363334,0.6154202956726754,501,40,22.826857430901576,13.526604896504816
0.8281008702393792,0.6154141429163832,501,40,22.826857430901576,13.526604896504816
0.8342534426009476,0.6154079902216072,501,40,22.826857430901576,13.526604896504816
0.8404059534488542,0.6154018375883464,501,40,22.826857430901576,13.526604896504816
0.8465584027838986,0.6153956850166001,501,40,22.826857430901576,13.526604896504816
0.852710790606867,0.6153895325063674,501,40,22.826857430901576,13.526604896504816
0.8588631169185312,0.6153833800576477,501,40,22.826857430901576,13.526604896504816
0.8650153817196516,0.6153772276704399,501,40,22.826857430901576,13.526604896504816
0.8711675850109777,0.6153710753447436,501,40,22.826857430901576,13.526604896504816
0.8773197267932478,0.6153649230805577,501,40,22.826857430901576,13.526604896504816
0.8834718070671912,0.6153587708778815,501,40,22.826857430901576,13.526604896504816
0.8896238258335282,0.6153526187367145,501,40,22.826857430901576,13.526604896504816
0.8957757830929713,0.6153464666570557,501,40,22.826857430901576,13.526604896504816
0.9019276788462256,0.6153403146389047,501,40,22.826857430901576,13.526604896504816
0.9080795130939883,0.6153341626822604,501,40,22.826857430901576,13.526604896504816
0.9142312858369513,0.6153280107871224,501,40,22.826857430901576,13.526604896504816
0.9203829970758002,0.6153218589534898,501,40,22.826857430901576,13.526604896504816
0.9265346468112153,0.615315707181362,501,40,22.826857430901576,13.526604896504816
0.9326862350438714,0.6153095554707384,501,40,22.826857430901576,13.526604896504816
0.9388377617744389,0.6153034038216181,501,40,22.826857430901576,13.526604896504816
0.9449892270035843,0.6152972522340007,501,40,22.826857430901576,13.526604896504816
0.9511406307319697,0.6152911007078853,501,40,22.826857430901576,13.526604896504816
0.957291972960254,0.6152849492432713,501,40,22.826857430901576,13.526604896504816
0.9634432536890918,0.615278797840158,501,40,22.826857430901576,13.526604896504816
0.9695944729191357,0.6152726464985449,501,40,22.826857430901576,13.526604896504816
0.9757456306510346,0.6152664952184311,501,40,22.826857430901576,13.526604896504816
0.9818967268854352,0.6152603439998162,501,40,22.826857430901576,13.526604896504816
0.988047761622982,0.6152541928426996,501,40,22.826857430901576,13.526604896504816
0.9941987348643162,0.6152480417470803,501,40,22.826857430901576,13.526604896504816
1.000349646610078,0.6152418907129578,501,40,22.826857430901576,13.526604896504816
1.0065004968609055,0.6152357397403315,501,40,22.826857430901576,13.526604896504816
1.0126512856174341,0.6152295888292009,501,40,22.826857430901576,13.526604896504816
1.0188020128802988,0.6152234379795651,501,40,22.826857430901576,13.526604896504816
1.0249526786501322,0.6152172871914238,501,40,22.826857430901576,13.526604896504816
1.0311032829275661,0.615211136464776,501,40,22.826857430901576,13.526604896504816
1.0372538257132304,0.6152049857996212,501,40,22.826857430901576,13.526604896504816
1.0434043070077543,0.6151988351959589,501,40,22.826857430901576,13.526604896504816
1.0495547268117658,0.6151926846537883,501,40,22.826857430901576,13.526604896504816
1.0557050851258916,0.6151865341731088,501,40,22.826857430901576,13.526604896504816
1.061855381950758,0.6151803837539198,501,40,22.826857430901576,13.526604896504816
1.0680056172869896,0.6151742333962208,501,40,22.826857430901576,13.526604896504816
1.074155791135211,0.6151680831000109,501,40,22.826857430901576,13.526604896504816
1.0803059034960456,0.6151619328652898,501,40,22.826857430901576,13.526604896504816
1.0864559543701167,0.6151557826920565,501,40,22.826857430901576,13.526604896504816
1.0926059437580458,0.6151496325803107,501,40,22.826857430901576,13.526604896504816
1.0987558716604555,0.6151434825300517,501,40,22.826857430901576,13.526604896504816
1.104905738077966,0.6151373325412788,501,40,22.826857430901576,13.526604896504816
1.1110555430111984,0.6151311826139914,501,40,22.826857430901576,13.526604896504816
1.1172052864607727,0.6151250327481889,501,40,22.826857430901576,13.526604896504816
1.1233549684273085,0.6151188829438706,501,40,22.826857430901576,13.526604896504816
1.1295045889114257,0.615112733201036,501,40,22.826857430901576,13.526604896504816
1.1356541479137425,0.6151065835196845,501,40,22.826857430901576,13.526604896504816
1.1418036454348781,0.6151004338998153,501,40,22.826857430901576,13.526604896504816
1.1479530814754506,0.615094284341428,501,40,22.826857430901576,13.526604896504816
1.1541024560360782,0.6150881348445217,501,40,22.826857430901576,13.526604896504816
1.1602517691173784,0.6150819854090962,501,40,22.826857430901576,13.526604896504816
1.1664010207199689,0.6150758360351505,501,40,22.826857430901576,13.526604896504816
1.172550210844467,0.6150696867226841,501,40,22.826857430901576,13.526604896504816
1.1786993394914895,0.6150635374716965,501,40,22.826857430901576,13.526604896504816
1.1848484066616538,0.6150573882821869,501,40,22.826857430901576,13.526604896504816
1.1909974123555762,0.6150512391541548,501,40,22.826857430901576,13.526604896504816
1.1971463565738734,0.6150450900875996,501,40,22.826857430901576,13.526604896504816
1.2032952393171619,0.6150389410825206,501,40,22.826857430901576,13.526604896504816
1.2094440605860575,0.6150327921389172,501,40,22.826857430901576,13.526604896504816
1.215592820381177,0.6150266432567888,501,40,22.826857430901576,13.526604896504816
1.2217415187031357,0.6150204944361348,501,40,22.826857430901576,13.526604896504816
1.2278901555525499,0.6150143456769546,501,40,22.826857430901576,13.526604896504816
1.234038730930035,0.6150081969792475,501,40,22.826857430901576,13.526604896504816
1.240187244836207,0.615002048343013,501,40,22.826857430901576,13.526604896504816
1.246335697271682,0.6149958997682503,501,40,22.826857430901576,13.526604896504816
1.2524840882370745,0.614989751254959,501,40,22.826857430901576,13.526604896504816
1.2586324177330006,0.6149836028031384,501,40,22.826857430901576,13.526604896504816
1.2647806857600747,0.6149774544127878,501,40,22.826857430901576,13.526604896504816
1.2709288923189133,0.6149713060839068,501,40,22.826857430901576,13.526604896504816
1.2770770374101312,0.6149651578164945,501,40,22.826857430901576,13.526604896504816
1.2832251210343435,0.6149590096105505,501,40,22.826857430901576,13.526604896504816
1.289373143192165,0.6149528614660742,501,40,22.826857430901576,13.526604896504816
1.295521103884211,0.6149467133830647,501,40,22.826857430901576,13.526604896504816
1.3016690031110965,0.6149405653615218,501,40,22.826857430901576,13.526604896504816
1.3078168408734363,0.6149344174014445,501,40,22.826857430901576,13.526604896504816
1.3139646171718462,0.6149282695028324,501,40,22.826857430901576,13.526604896504816
1.3201123320069401,0.6149221216656848,501,40,22.826857430901576,13.526604896504816
1.3262599853793329,0.6149159738900013,501,40,22.826857430901576,13.526604896504816
1.33240757728964,0.6149098261757809,501,40,22.826857430901576,13.526604896504816
1.3385551077384754,0.6149036785230233,501,40,22.826857430901576,13.526604896504816
1.3447025767264547,0.6148975309317278,501,40,22.826857430901576,13.526604896504816
1.3508499842541917,0.6148913834018938,501,40,22.826857430901576,13.526604896504816
1.3569973303223022,0.6148852359335205,501,40,22.826857430901576,13.526604896504816
1.3631446149314006,0.6148790885266076,501,40,22.826857430901576,13.526604896504816
1.3692918380821004,0.6148729411811542,501,40,22.826857430901576,13.526604896504816
1.3754389997750176,0.6148667938971598,501,40,22.826857430901576,13.526604896504816
1.3815861000107656,0.6148606466746238,501,40,22.826857430901576,13.526604896504816
1.3877331387899596,0.6148544995135456,501,40,22.826857430901576,13.526604896504816
1.393880116113215,0.6148483524139247,501,40,22.826857430901576,13.526604896504816
1.4000270319811454,0.6148422053757602,501,40,22.826857430901576,13.526604896504816
1.4061738863943658,0.6148360583990516,501,40,22.826857430901576,13.526604896504816
1.41232067935349,0.6148299114837984,501,40,22.826857430901576,13.526604896504816
1.418467410859133,0.6148237646299999,501,40,22.826857430901576,13.526604896504816
1.4246140809119094,0.6148176178376554,501,40,22.826857430901576,13.526604896504816
1.4307606895124332,0.6148114711067645,501,40,22.826857430901576,13.526604896504816
1.4369072366613196,0.6148053244373264,501,40,22.826857430901576,13.526604896504816
1.443053722359182,0.6147991778293405,501,40,22.826857430901576,13.526604896504816
1.449200146606636,0.6147930312828063,501,40,22.826857430901576,13.526604896504816
1.455346509404295,0.6147868847977231,501,40,22.826857430901576,13.526604896504816
