Vout,Iout,Irradiance,Temperature,MaxVoltage,MaxPower
0.008335869847405314,1.6671899999999997,1401,20,21.569461374953097,35.495854842781576
0.025007455404092868,1.6671899999999997,1401,20,21.569461374953097,35.495854842781576
0.041678702031627685,1.6671814974111523,1401,20,21.569461374953097,35.495854842781576
0.05834954918042885,1.6671648258255956,1401,20,21.569461374953097,35.495854842781576
0.07501997706184285,1.6671481545798184,1401,20,21.569461374953097,35.495854842781576
0.09169000511461761,1.6671314837343367,1401,20,21.569461374953097,35.495854842781576
0.10835965128253529,1.6671148133081224,1401,20,21.569461374953097,35.495854842781576
0.12502893212906827,1.6670981432817367,1401,20,21.569461374953097,35.495854842781576
0.14169786294339748,1.667081473637236,1401,20,21.569461374953097,35.495854842781576
0.15836645783845846,1.6670648043580563,1401,20,21.569461374953097,35.495854842781576
0.17503472984144341,1.667048135428909,1401,20,21.569461374953097,35.495854842781576
0.19170269097734016,1.667031466835681,1401,20,21.569461374953097,35.495854842781576
0.20837035234604318,1.6670147985653447,1401,20,21.569461374953097,35.495854842781576
0.22503772419353177,1.6669981306058756,1401,20,21.569461374953097,35.495854842781576
0.2417048159775717,1.6669814629461739,1401,20,21.569461374953097,35.495854842781576
0.2583716364283616,1.6669647955759932,1401,20,21.569461374953097,35.495854842781576
0.27503819360451287,1.6669481284858758,1401,20,21.569461374953097,35.495854842781576
0.29170449494472295,1.6669314616670918,1401,20,21.569461374953097,35.495854842781576
0.3083705473154724,1.6669147951115824,1401,20,21.569461374953097,35.495854842781576
0.3250363570550521,1.666898128811909,1401,20,21.569461374953097,35.495854842781576
0.34170193001420307,1.6668814627612047,1401,20,21.569461374953097,35.495854842781576
0.35836727159362913,1.6668647969531318,1401,20,21.569461374953097,35.495854842781576
0.3750323867786239,1.6668481313818393,1401,20,21.569461374953097,35.495854842781576
0.39169728017103234,1.6668314660419263,1401,20,21.569461374953097,35.495854842781576
0.40836195601875486,1.666814800928408,1401,20,21.569461374953097,35.495854842781576
0.4250264182429796,1.6667981360366821,1401,20,21.569461374953097,35.495854842781576
0.44169067046332067,1.6667814713625009,1401,20,21.569461374953097,35.495854842781576
0.4583547160210211,1.6667648069019432,1401,20,21.569461374953097,35.495854842781576
0.4750185580003723,1.6667481426513893,1401,20,21.569461374953097,35.495854842781576
0.49168219924848294,1.666731478607498,1401,20,21.569461374953097,35.495854842781576
0.508345642393529,1.666714814767185,1401,20,21.569461374953097,35.495854842781576
0.5250088898615988,1.6666981511276033,1401,20,21.569461374953097,35.495854842781576
0.5416719438922414,1.6666814876861247,1401,20,21.569461374953097,35.495854842781576
0.55833480655282,1.666664824440323,1401,20,21.569461374953097,35.495854842781576
0.5749974797517594,1.6666481613879587,1401,20,21.569461374953097,35.495854842781576
0.5916599652507754,1.6666314985269646,1401,20,21.569461374953097,35.495854842781576
0.6083222646761628,1.6666148358554318,1401,20,21.569461374953097,35.495854842781576
0.624984379529215,1.666598173371599,1401,20,21.569461374953097,35.495854842781576
0.6416463111958413,1.66658151107384,1401,20,21.569461374953097,35.495854842781576
0.6583080609554455,1.6665648489606533,1401,20,21.569461374953097,35.495854842781576
0.6749696299891197,1.6665481870306529,1401,20,21.569461374953097,35.495854842781576
0.6916310193872095,1.6665315252825594,1401,20,21.569461374953097,35.495854842781576
0.7082922301562955,1.6665148637151919,1401,20,21.569461374953097,35.495854842781576
0.7249532632256387,1.66649820232746,1401,20,21.569461374953097,35.495854842781576
0.7416141194531288,1.6664815411183571,1401,20,21.569461374953097,35.495854842781576
0.7582747996307772,1.666464880086954,1401,20,21.569461374953097,35.495854842781576
0.7749353044897841,1.6664482192323924,1401,20,21.569461374953097,35.495854842781576
0.7915956347052184,1.666431558553881,1401,20,21.569461374953097,35.495854842781576
0.8082557909003362,1.666414898050688,1401,20,21.569461374953097,35.495854842781576
0.8249157736505673,1.6663982377221387,1401,20,21.569461374953097,35.495854842781576
0.8415755834871953,1.6663815775676096,1401,20,21.569461374953097,35.495854842781576
0.8582352209007541,1.6663649175865254,1401,20,21.569461374953097,35.495854842781576
0.8748946863441629,1.6663482577783548,1401,20,21.569461374953097,35.495854842781576
0.8915539802356215,1.6663315981426072,1401,20,21.569461374953097,35.495854842781576
0.90821310296128,1.6663149386788298,1401,20,21.569461374953097,35.495854842781576
0.9248720548777061,1.6662982793866044,1401,20,21.569461374953097,35.495854842781576
0.9415308363141606,1.6662816202655446,1401,20,21.569461374953097,35.495854842781576
0.9581894475746981,1.666264961315294,1401,20,21.569461374953097,35.495854842781576
0.9748478889401081,1.6662483025355235,1401,20,21.569461374953097,35.495854842781576
0.9915061606697025,1.6662316439259288,1401,20,21.569461374953097,35.495854842781576
1.00816426300297,1.6662149854862294,1401,20,21.569461374953097,35.495854842781576
1.0248221961611008,1.6661983272161656,1401,20,21.569461374953097,35.495854842781576
1.0414799603483942,1.6661816691154983,1401,20,21.569461374953097,35.495854842781576
1.0581375557535586,1.6661650111840058,1401,20,21.569461374953097,35.495854842781576
1.0747949825509115,1.6661483534214845,1401,20,21.569461374953097,35.495854842781576
1.0914522409014855,1.666131695827745,1401,20,21.569461374953097,35.495854842781576
1.1081093309540515,1.6661150384026135,1401,20,21.569461374953097,35.495854842781576
1.1247662528460618,1.6660983811459287,1401,20,21.569461374953097,35.495854842781576
1.1414230067045206,1.6660817240575418,1401,20,21.569461374953097,35.495854842781576
1.1580795926467888,1.6660650671373156,1401,20,21.569461374953097,35.495854842781576
1.1747360107813254,1.6660484103851227,1401,20,21.569461374953097,35.495854842781576
1.1913922612083727,1.6660317538008462,1401,20,21.569461374953097,35.495854842781576
1.2080483440205874,1.6660150973843775,1401,20,21.569461374953097,35.495854842781576
1.224704259303626,1.665998441135616,1401,20,21.569461374953097,35.495854842781576
1.241360007136682,1.6659817850544694,1401,20,21.569461374953097,35.495854842781576
1.2580155875929844,1.665965129140852,1401,20,21.569461374953097,35.495854842781576
1.2746710007402549,1.6659484733946845,1401,20,21.569461374953097,35.495854842781576
1.2913262466411335,1.6659318178158937,1401,20,21.569461374953097,35.495854842781576
1.3079813253535677,1.6659151624044122,1401,20,21.569461374953097,35.495854842781576
1.3246362369311762,1.6658985071601768,1401,20,21.569461374953097,35.495854842781576
1.3412909814235787,1.66588185208313,1401,20,21.569461374953097,35.495854842781576
1.3579455588767055,1.665865197173218,1401,20,21.569461374953097,35.495854842781576
1.3745999693330817,1.665848542430391,1401,20,21.569461374953097,35.495854842781576
1.3912542128320875,1.6658318878546032,1401,20,21.569461374953097,35.495854842781576
1.4079082894102017,1.6658152334458125,1401,20,21.569461374953097,35.495854842781576
1.4245621991012252,1.665798579203979,1401,20,21.569461374953097,35.495854842781576
1.4412159419364845,1.6657819251290662,1401,20,21.569461374953097,35.495854842781576
1.4578695179450256,1.6657652712210407,1401,20,21.569461374953097,35.495854842781576
1.4745229271537867,1.6657486174798708,1401,20,21.569461374953097,35.495854842781576
1.4911761695877614,1.6657319639055277,1401,20,21.569461374953097,35.495854842781576
1.507829245270149,1.6657153104979843,1401,20,21.569461374953097,35.495854842781576
1.524482154222491,1.6656986572572157,1401,20,21.569461374953097,35.495854842781576
1.5411348964648002,1.6656820041831986,1401,20,21.569461374953097,35.495854842781576
1.5577874720156775,1.6656653512759114,1401,20,21.569461374953097,35.495854842781576
1.57443988089242,1.6656486985353345,1401,20,21.569461374953097,35.495854842781576
1.5910921231111235,1.6656320459614489,1401,20,21.569461374953097,35.495854842781576
1.6077441986867724,1.6656153935542375,1401,20,21.569461374953097,35.495854842781576
1.6243961076333255,1.665598741313684,1401,20,21.569461374953097,35.495854842781576
1.6410478499637968,1.6655820892397737,1401,20,21.569461374953097,35.495854842781576
1.6576994256903266,1.6655654373324922,1401,20,21.569461374953097,35.495854842781576
1.6743508348242493,1.665548785591827,1401,20,21.569461374953097,35.495854842781576
1.6910020773761554,1.6655321340177656,1401,20,21.569461374953097,35.495854842781576
1.7076531533559478,1.665515482610297,1401,20,21.569461374953097,35.495854842781576
1.7243040627728965,1.6654988313694101,1401,20,21.569461374953097,35.495854842781576
1.7409548056356858,1.6654821802950954,1401,20,21.569461374953097,35.495854842781576
1.7576053819524593,1.6654655293873437,1401,20,21.569461374953097,35.495854842781576
1.7742557917308637,1.665448878646146,1401,20,21.569461374953097,35.495854842781576
1.7909060349780834,1.6654322280714944,1401,20,21.569461374953097,35.495854842781576
1.8075561117008798,1.665415577663381,1401,20,21.569461374953097,35.495854842781576
1.824206021905621,1.6653989274217988,1401,20,21.569461374953097,35.495854842781576
1.8408557655983133,1.665382277346741,1401,20,21.569461374953097,35.495854842781576
1.8575053427846293,1.6653656274382014,1401,20,21.569461374953097,35.495854842781576
1.8741547534699325,1.6653489776961736,1401,20,21.569461374953097,35.495854842781576
1.8908039976593027,1.6653323281206525,1401,20,21.569461374953097,35.495854842781576
1.9074530753575567,1.665315678711632,1401,20,21.569461374953097,35.495854842781576
1.9241019865692677,1.6652990294691077,1401,20,21.569461374953097,35.495854842781576
1.9407507312987853,1.6652823803930743,1401,20,21.569461374953097,35.495854842781576
1.957399309550254,1.6652657314835275,1401,20,21.569461374953097,35.495854842781576
1.9740477213276255,1.665249082740463,1401,20,21.569461374953097,35.495854842781576
1.990695966634677,1.6652324341638762,1401,20,21.569461374953097,35.495854842781576
2.0073440454750218,1.6652157857537637,1401,20,21.569461374953097,35.495854842781576
2.0239919578521244,1.6651991375101216,1401,20,21.569461374953097,35.495854842781576
2.0406397037693096,1.6651824894329461,1401,20,21.569461374953097,35.495854842781576
2.0572872832297753,1.665165841522234,1401,20,21.569461374953097,35.495854842781576
2.0739346962366008,1.6651491937779814,1401,20,21.569461374953097,35.495854842781576
2.090581942792757,1.6651325462001858,1401,20,21.569461374953097,35.495854842781576
2.1072290229011132,1.6651158987888437,1401,20,21.569461374953097,35.495854842781576
2.1238759365644477,1.6650992515439524,1401,20,21.569461374953097,35.495854842781576
2.140522683785452,1.6650826044655087,1401,20,21.569461374953097,35.495854842781576
2.1571692645667375,1.66506595755351,1401,20,21.569461374953097,35.495854842781576
2.173815678910845,1.6650493108079538,1401,20,21.569461374953097,35.495854842781576
2.1904619268202454,1.6650326642288373,1401,20,21.569461374953097,35.495854842781576
2.2071080082973493,1.6650160178161577,1401,20,21.569461374953097,35.495854842781576
2.2237539233445096,1.664999371569913,1401,20,21.569461374953097,35.495854842781576
2.2403996719640245,1.6649827254901006,1401,20,21.569461374953097,35.495854842781576
2.2570452541581454,1.664966079576718,1401,20,21.569461374953097,35.495854842781576
2.2736906699290773,1.6649494338297632,1401,20,21.569461374953097,35.495854842781576
2.2903359192789847,1.6649327882492335,1401,20,21.569461374953097,35.495854842781576
2.3069810022099917,1.6649161428351273,1401,20,21.569461374953097,35.495854842781576
2.3236259187241886,1.6648994975874418,1401,20,21.569461374953097,35.495854842781576
2.3402706688236328,1.6648828525061754,1401,20,21.569461374953097,35.495854842781576
2.3569152525103494,1.6648662075913259,1401,20,21.569461374953097,35.495854842781576
2.3735596697863386,1.6648495628428908,1401,20,21.569461374953097,35.495854842781576
2.390203920653572,1.6648329182608685,1401,20,21.569461374953097,35.495854842781576
2.406848005114001,1.6648162738452572,1401,20,21.569461374953097,35.495854842781576
2.4234919231695495,1.6647996295960543,1401,20,21.569461374953097,35.495854842781576
2.440135674822127,1.6647829855132583,1401,20,21.569461374953097,35.495854842781576
2.4567792600736205,1.6647663415968672,1401,20,21.569461374953097,35.495854842781576
2.4734226789259006,1.664749697846879,1401,20,21.569461374953097,35.495854842781576
2.4900659313808227,1.6647330542632919,1401,20,21.569461374953097,35.495854842781576
2.506709017440227,1.664716410846104,1401,20,21.569461374953097,35.495854842781576
2.5233519371059385,1.6646997675953135,1401,20,21.569461374953097,35.495854842781576
2.539994690379773,1.6646831245109184,1401,20,21.569461374953097,35.495854842781576
2.5566372772635324,1.664666481592917,1401,20,21.569461374953097,35.495854842781576
2.5732796977590082,1.6646498388413076,1401,20,21.569461374953097,35.495854842781576
2.5899219518679812,1.664633196256088,1401,20,21.569461374953097,35.495854842781576
2.6065640395922256,1.6646165538372568,1401,20,21.569461374953097,35.495854842781576
2.6232059609335057,1.664599911584812,1401,20,21.569461374953097,35.495854842781576
2.639847715893577,1.6645832694987521,1401,20,21.569461374953097,35.495854842781576
2.6564893044741895,1.6645666275790751,1401,20,21.569461374953097,35.495854842781576
2.6731307266770856,1.6645499858257793,1401,20,21.569461374953097,35.495854842781576
2.689771982504001,1.6645333442388628,1401,20,21.569461374953097,35.495854842781576
2.7064130719566677,1.664516702818324,1401,20,21.569461374953097,35.495854842781576
2.7230539950368113,1.6645000615641612,1401,20,21.569461374953097,35.495854842781576
2.7396947517461525,1.6644834204763728,1401,20,21.569461374953097,35.495854842781576
2.756335342086407,1.6644667795549568,1401,20,21.569461374953097,35.495854842781576
2.772975766059289,1.6644501387999115,1401,20,21.569461374953097,35.495854842781576
2.7896160236665053,1.6644334982112354,1401,20,21.569461374953097,35.495854842781576
2.806256114909761,1.6644168577889265,1401,20,21.569461374953097,35.495854842781576
2.8228960397907583,1.6644002175329835,1401,20,21.569461374953097,35.495854842781576
2.8395357983111973,1.6643835774434041,1401,20,21.569461374953097,35.495854842781576
2.856175390472772,1.6643669375201873,1401,20,21.569461374953097,35.495854842781576
2.872814816277178,1.6643502977633309,1401,20,21.569461374953097,35.495854842781576
2.8894540757261042,1.6643336581728332,1401,20,21.569461374953097,35.495854842781576
2.9060931688212412,1.6643170187486929,1401,20,21.569461374953097,35.495854842781576
2.922732095564276,1.6643003794909077,1401,20,21.569461374953097,35.495854842781576
2.9393708559568923,1.6642837403994766,1401,20,21.569461374953097,35.495854842781576
2.9560094500007748,1.6642671014743975,1401,20,21.569461374953097,35.495854842781576
2.972647877697606,1.664250462715669,1401,20,21.569461374953097,35.495854842781576
2.9892861390490646,1.6642338241232888,1401,20,21.569461374953097,35.495854842781576
3.0059242340568306,1.6642171856972559,1401,20,21.569461374953097,35.495854842781576
3.022562162722582,1.6642005474375683,1401,20,21.569461374953097,35.495854842781576
3.0391999250479946,1.6641839093442243,1401,20,21.569461374953097,35.495854842781576
3.055837521034745,1.6641672714172224,1401,20,21.569461374953097,35.495854842781576
3.0724749506845077,1.6641506336565608,1401,20,21.569461374953097,35.495854842781576
3.0891122139989546,1.6641339960622379,1401,20,21.569461374953097,35.495854842781576
3.105749310979761,1.664117358634252,1401,20,21.569461374953097,35.495854842781576
3.1223862416285977,1.6641007213726011,1401,20,21.569461374953097,35.495854842781576
3.1390230059471356,1.6640840842772842,1401,20,21.569461374953097,35.495854842781576
3.155659603937046,1.664067447348299,1401,20,21.569461374953097,35.495854842781576
3.1722960356,1.6640508105856442,1401,20,21.569461374953097,35.495854842781576
3.1889323009376653,1.6640341739893179,1401,20,21.569461374953097,35.495854842781576
3.2055683999517117,1.6640175375593187,1401,20,21.569461374953097,35.495854842781576
3.222204332643808,1.6640009012956447,1401,20,21.569461374953097,35.495854842781576
3.2388400990156216,1.6639842651982943,1401,20,21.569461374953097,35.495854842781576
3.2554756990688203,1.6639676292672658,1401,20,21.569461374953097,35.495854842781576
3.2721111328050725,1.6639509935025576,1401,20,21.569461374953097,35.495854842781576
3.288746400226043,1.6639343579041679,1401,20,21.569461374953097,35.495854842781576
3.3053815013334007,1.6639177224720954,1401,20,21.569461374953097,35.495854842781576
3.3220164361288096,1.663901087206338,1401,20,21.569461374953097,35.495854842781576
3.338651204613937,1.663884452106894,1401,20,21.569461374953097,35.495854842781576
3.3552858067904476,1.6638678171737622,1401,20,21.569461374953097,35.495854842781576
3.3719202426600066,1.6638511824069406,1401,20,21.569461374953097,35.495854842781576
3.3885545122242817,1.6638345478064276,1401,20,21.569461374953097,35.495854842781576
3.4051886154849353,1.6638179133722215,1401,20,21.569461374953097,35.495854842781576
3.421822552443633,1.6638012791043206,1401,20,21.569461374953097,35.495854842781576
3.4384563231020406,1.6637846450027234,1401,20,21.569461374953097,35.495854842781576
3.4550899274618203,1.6637680110674282,1401,20,21.569461374953097,35.495854842781576
3.4717233655246384,1.6637513772984331,1401,20,21.569461374953097,35.495854842781576
3.4883566372921577,1.6637347436957368,1401,20,21.569461374953097,35.495854842781576
3.5049897427660435,1.6637181102593375,1401,20,21.569461374953097,35.495854842781576
3.5216226819479584,1.663701476989233,1401,20,21.569461374953097,35.495854842781576
3.538255454839567,1.6636848438854226,1401,20,21.569461374953097,35.495854842781576
3.5548880614425324,1.6636682109479042,1401,20,21.569461374953097,35.495854842781576
3.5715205017585183,1.6636515781766759,1401,20,21.569461374953097,35.495854842781576
3.588152775789188,1.663634945571736,1401,20,21.569461374953097,35.495854842781576
3.604784883536205,1.6636183131330833,1401,20,21.569461374953097,35.495854842781576
3.621416825001234,1.663601680860716,1401,20,21.569461374953097,35.495854842781576
3.6380486001859356,1.6635850487546322,1401,20,21.569461374953097,35.495854842781576
3.6546802090919748,1.6635684168148304,1401,20,21.569461374953097,35.495854842781576
3.6713116517210147,1.6635517850413089,1401,20,21.569461374953097,35.495854842781576
3.6879429280747167,1.663535153434066,1401,20,21.569461374953097,35.495854842781576
3.704574038154744,1.6635185219931001,1401,20,21.569461374953097,35.495854842781576
3.7212049819627615,1.6635018907184096,1401,20,21.569461374953097,35.495854842781576
3.7378357595004297,1.6634852596099927,1401,20,21.569461374953097,35.495854842781576
3.754466370769412,1.663468628667848,1401,20,21.569461374953097,35.495854842781576
3.7710968157713713,1.6634519978919733,1401,20,21.569461374953097,35.495854842781576
3.787727094507971,1.6634353672823674,1401,20,21.569461374953097,35.495854842781576
3.804357206980873,1.6634187368390285,1401,20,21.569461374953097,35.495854842781576
3.8209871531917394,1.663402106561955,1401,20,21.569461374953097,35.495854842781576
3.837616933142234,1.663385476451145,1401,20,21.569461374953097,35.495854842781576
3.8542465468340175,1.6633688465065974,1401,20,21.569461374953097,35.495854842781576
3.870875994268753,1.66335221672831,1401,20,21.569461374953097,35.495854842781576
3.8875052754481043,1.6633355871162812,1401,20,21.569461374953097,35.495854842781576
3.9041343903737324,1.6633189576705094,1401,20,21.569461374953097,35.495854842781576
