Vout,Iout,Irradiance,Temperature,MaxVoltage,MaxPower
0.003005971096431765,0.6012,501,25,21.91697614072164,12.696384809745304
0.009017857706044682,0.6012,501,25,21.91697614072164,12.696384809745304
0.015029622095510746,0.6011969339089035,501,25,21.91697614072164,12.696384809745304
0.0210412424302412,0.601190922022294,501,25,21.91697614072164,12.696384809745304
0.027052711574313625,0.6011849102582111,501,25,21.91697614072164,12.696384809745304
0.0330640365374721,0.6011788986384775,501,25,21.91697614072164,12.696384809745304
0.03907522379036595,0.6011728871699347,501,25,21.91697614072164,12.696384809745304
0.04508627930589546,0.6011668758455726,501,25,21.91697614072164,12.696384809745304
0.05109720859744275,0.6011608646589208,501,25,21.91697614072164,12.696384809745304
0.057108016754227914,0.6011548536040064,501,25,21.91697614072164,12.696384809745304
0.06311870847394467,0.6011488426753161,501,25,21.91697614072164,12.696384809745304
0.069129288092885,0.6011428318677604,501,25,21.91697614072164,12.696384809745304
0.07513975961374599,0.6011368211766417,501,25,21.91697614072164,12.696384809745304
0.08115012673129718,0.6011308105976239,501,25,21.91697614072164,12.696384809745304
0.0871603928560729,0.6011248001267041,501,25,21.91697614072164,12.696384809745304
0.09317056113624182,0.6011187897601876,501,25,21.91697614072164,12.696384809745304
0.09918063447779385,0.6011127794946639,501,25,21.91697614072164,12.696384809745304
0.10519061556317363,0.6011067693269847,501,25,21.91697614072164,12.696384809745304
0.1112005068684805,0.6011007592542442,501,25,21.91697614072164,12.696384809745304
0.11721031067934512,0.6010947492737598,501,25,21.91697614072164,12.696384809745304
0.12322002910558419,0.6010887393830555,501,25,21.91697614072164,12.696384809745304
0.12922966409472816,0.6010827295798457,501,25,21.91697614072164,12.696384809745304
0.13523921744450762,0.6010767198620204,501,25,21.91697614072164,12.696384809745304
0.14124869081437905,0.6010707102276323,501,25,21.91697614072164,12.696384809745304
0.14725808573616403,0.6010647006748835,501,25,21.91697614072164,12.696384809745304
0.1532674036238697,0.6010586912021145,501,25,21.91697614072164,12.696384809745304
0.15927664578275322,0.6010526818077937,501,25,21.91697614072164,12.696384809745304
0.16528581341768958,0.6010466724905069,501,25,21.91697614072164,12.696384809745304
0.17129490764089503,0.601040663248949,501,25,21.91697614072164,12.696384809745304
0.1773039294790563,0.601034654081915,501,25,21.91697614072164,12.696384809745304
0.18331287987991143,0.6010286449882928,501,25,21.91697614072164,12.696384809745304
0.18932175971832427,0.6010226359670555,501,25,21.91697614072164,12.696384809745304
0.1953305698018915,0.6010166270172556,501,25,21.91697614072164,12.696384809745304
0.20133931087611814,0.601010618138018,501,25,21.91697614072164,12.696384809745304
0.20734798362919504,0.6010046093285354,501,25,21.91697614072164,12.696384809745304
0.213356588696409,0.600998600588062,501,25,21.91697614072164,12.696384809745304
0.2193651266642129,0.6009925919159098,501,25,21.91697614072164,12.696384809745304
0.2253735980739832,0.6009865833114435,501,25,21.91697614072164,12.696384809745304
0.2313820034254883,0.6009805747740765,501,25,21.91697614072164,12.696384809745304
0.23739034318008972,0.6009745663032676,501,25,21.91697614072164,12.696384809745304
0.24339861776369748,0.600968557898517,501,25,21.91697614072164,12.696384809745304
0.24940682756949742,0.6009625495593632,501,25,21.91697614072164,12.696384809745304
0.2554149729604693,0.6009565412853805,501,25,21.91697614072164,12.696384809745304
0.261423054271711,0.6009505330761755,501,25,21.91697614072164,12.696384809745304
0.26743107181258347,0.6009445249313854,501,25,21.91697614072164,12.696384809745304
0.2734390258686911,0.6009385168506749,501,25,21.91697614072164,12.696384809745304
0.2794469167037099,0.6009325088337348,501,25,21.91697614072164,12.696384809745304
0.2854547445610741,0.6009265008802795,501,25,21.91697614072164,12.696384809745304
0.2914625096655342,0.6009204929900454,501,25,21.91697614072164,12.696384809745304
0.297470212224594,0.6009144851627888,501,25,21.91697614072164,12.696384809745304
0.303477852429838,0.6009084773982851,501,25,21.91697614072164,12.696384809745304
0.309485430458156,0.6009024696963269,501,25,21.91697614072164,12.696384809745304
0.31549294647287385,0.6008964620567224,501,25,21.91697614072164,12.696384809745304
0.3215004006247971,0.6008904544792948,501,25,21.91697614072164,12.696384809745304
0.32750779305317407,0.6008844469638809,501,25,21.91697614072164,12.696384809745304
0.33351512388658566,0.6008784395103297,501,25,21.91697614072164,12.696384809745304
0.3395223932437653,0.600872432118502,501,25,21.91697614072164,12.696384809745304
0.3455296012343574,0.6008664247882695,501,25,21.91697614072164,12.696384809745304
0.3515367479596164,0.600860417519513,501,25,21.91697614072164,12.696384809745304
0.3575438335130518,0.6008544103121232,501,25,21.91697614072164,12.696384809745304
0.36355085798102504,0.6008484031659986,501,25,21.91697614072164,12.696384809745304
0.36955782144329885,0.6008423960810458,501,25,21.91697614072164,12.696384809745304
0.37556472397354485,0.6008363890571786,501,25,21.91697614072164,12.696384809745304
0.38157156563981265,0.600830382094317,501,25,21.91697614072164,12.696384809745304
0.38757834650496203,0.6008243751923875,501,25,21.91697614072164,12.696384809745304
0.3935850666270628,0.600818368351322,501,25,21.91697614072164,12.696384809745304
0.3995917260597625,0.6008123615710574,501,25,21.91697614072164,12.696384809745304
0.40559832485262737,0.6008063548515361,501,25,21.91697614072164,12.696384809745304
0.41160486305145627,0.600800348192704,501,25,21.91697614072164,12.696384809745304
0.41761134069857014,0.6007943415945118,501,25,21.91697614072164,12.696384809745304
0.42361775783308014,0.6007883350569136,501,25,21.91697614072164,12.696384809745304
0.4296241144911339,0.6007823285798672,501,25,21.91697614072164,12.696384809745304
0.4356304107061446,0.6007763221633333,501,25,21.91697614072164,12.696384809745304
0.44163664650900014,0.6007703158072759,501,25,21.91697614072164,12.696384809745304
0.4476428219282586,0.6007643095116616,501,25,21.91697614072164,12.696384809745304
0.4536489369903264,0.6007583032764594,501,25,21.91697614072164,12.696384809745304
0.4596549917196248,0.6007522971016408,501,25,21.91697614072164,12.696384809745304
0.465660986138742,0.6007462909871794,501,25,21.91697614072164,12.696384809745304
0.4716669202685747,0.6007402849330507,501,25,21.91697614072164,12.696384809745304
0.4776727941284576,0.6007342789392321,501,25,21.91697614072164,12.696384809745304
0.4836786077362841,0.6007282730057029,501,25,21.91697614072164,12.696384809745304
0.4896843611086172,0.6007222671324436,501,25,21.91697614072164,12.696384809745304
0.4956900542607913,0.6007162613194363,501,25,21.91697614072164,12.696384809745304
0.5016956872070076,0.6007102555666646,501,25,21.91697614072164,12.696384809745304
0.5077012599604205,0.6007042498741131,501,25,21.91697614072164,12.696384809745304
0.5137067725332186,0.6006982442417674,501,25,21.91697614072164,12.696384809745304
0.5197122249366987,0.6006922386696145,501,25,21.91697614072164,12.696384809745304
0.5257176171813347,0.6006862331576424,501,25,21.91697614072164,12.696384809745304
0.5317229492768409,0.6006802277058394,501,25,21.91697614072164,12.696384809745304
0.5377282212322304,0.6006742223141953,501,25,21.91697614072164,12.696384809745304
0.5437334330558685,0.6006682169827003,501,25,21.91697614072164,12.696384809745304
0.5497385847555236,0.6006622117113455,501,25,21.91697614072164,12.696384809745304
0.5557436763384124,0.6006562065001224,501,25,21.91697614072164,12.696384809745304
0.5617487078112424,0.6006502013490232,501,25,21.91697614072164,12.696384809745304
0.5677536791802512,0.6006441962580409,501,25,21.91697614072164,12.696384809745304
0.5737585904512428,0.6006381912271685,501,25,21.91697614072164,12.696384809745304
0.5797634416296207,0.6006321862564,501,25,21.91697614072164,12.696384809745304
0.5857682327204188,0.6006261813457295,501,25,21.91697614072164,12.696384809745304
0.5917729637283298,0.6006201764951518,501,25,21.91697614072164,12.696384809745304
0.5977776346577318,0.6006141717046614,501,25,21.91697614072164,12.696384809745304
0.603782245512712,0.600608166974254,501,25,21.91697614072164,12.696384809745304
0.6097867962970891,0.600602162303925,501,25,21.91697614072164,12.696384809745304
0.6157912870144346,0.6005961576936706,501,25,21.91697614072164,12.696384809745304
0.6217957176680909,0.6005901531434866,501,25,21.91697614072164,12.696384809745304
0.6278000882611899,0.6005841486533697,501,25,21.91697614072164,12.696384809745304
0.6338043987966686,0.6005781442233166,501,25,21.91697614072164,12.696384809745304
0.6398086492772836,0.6005721398533239,501,25,21.91697614072164,12.696384809745304
0.6458128397056263,0.6005661355433889,501,25,21.91697614072164,12.696384809745304
0.6518169700841346,0.6005601312935087,501,25,21.91697614072164,12.696384809745304
0.6578210404151049,0.6005541271036807,501,25,21.91697614072164,12.696384809745304
0.6638250507007032,0.6005481229739027,501,25,21.91697614072164,12.696384809745304
0.669829000942975,0.6005421189041722,501,25,21.91697614072164,12.696384809745304
0.6758328911438548,0.600536114894487,501,25,21.91697614072164,12.696384809745304
0.6818367213051737,0.6005301109448451,501,25,21.91697614072164,12.696384809745304
0.6878404914286691,0.6005241070552446,501,25,21.91697614072164,12.696384809745304
0.69384420151599,0.6005181032256837,501,25,21.91697614072164,12.696384809745304
0.6998478515687053,0.6005120994561606,501,25,21.91697614072164,12.696384809745304
0.7058514415883087,0.6005060957466737,501,25,21.91697614072164,12.696384809745304
0.7118549715762261,0.6005000920972213,501,25,21.91697614072164,12.696384809745304
0.7178584415338191,0.6004940885078021,501,25,21.91697614072164,12.696384809745304
0.7238618514623907,0.6004880849784145,501,25,21.91697614072164,12.696384809745304
0.7298652013631902,0.6004820815090572,501,25,21.91697614072164,12.696384809745304
0.7358684912374167,0.600476078099729,501,25,21.91697614072164,12.696384809745304
0.7418717210862235,0.6004700747504286,501,25,21.91697614072164,12.696384809745304
0.7478748909107207,0.6004640714611548,501,25,21.91697614072164,12.696384809745304
0.7538780007119796,0.6004580682319063,501,25,21.91697614072164,12.696384809745304
0.7598810504910354,0.6004520650626821,501,25,21.91697614072164,12.696384809745304
0.7658840402488895,0.6004460619534812,501,25,21.91697614072164,12.696384809745304
0.7718869699865125,0.6004400589043024,501,25,21.91697614072164,12.696384809745304
0.7778898397048464,0.6004340559151449,501,25,21.91697614072164,12.696384809745304
0.7838926494048071,0.6004280529860075,501,25,21.91697614072164,12.696384809745304
0.7898953990872857,0.6004220501168895,501,25,21.91697614072164,12.696384809745304
0.7958980887531516,0.6004160473077899,501,25,21.91697614072164,12.696384809745304
0.8019007184032529,0.6004100445587076,501,25,21.91697614072164,12.696384809745304
0.8079032880384188,0.600404041869642,501,25,21.91697614072164,12.696384809745304
0.8139057976594611,0.6003980392405922,501,25,21.91697614072164,12.696384809745304
0.819908247267175,0.6003920366715574,501,25,21.91697614072164,12.696384809745304
0.8259106368623407,0.6003860341625366,501,25,21.91697614072164,12.696384809745304
0.8319129664457243,0.6003800317135292,501,25,21.91697614072164,12.696384809745304
0.8379152360180796,0.6003740293245342,501,25,21.91697614072164,12.696384809745304
0.8439174455801486,0.600368026995551,501,25,21.91697614072164,12.696384809745304
0.8499195951326616,0.600362024726579,501,25,21.91697614072164,12.696384809745304
0.8559216846763397,0.6003560225176171,501,25,21.91697614072164,12.696384809745304
0.8619237142118942,0.6003500203686648,501,25,21.91697614072164,12.696384809745304
0.867925683740028,0.6003440182797214,501,25,21.91697614072164,12.696384809745304
0.8739275932614359,0.600338016250786,501,25,21.91697614072164,12.696384809745304
0.8799294427768058,0.6003320142818581,501,25,21.91697614072164,12.696384809745304
0.8859312322868185,0.6003260123729369,501,25,21.91697614072164,12.696384809745304
0.8919329617921483,0.6003200105240217,501,25,21.91697614072164,12.696384809745304
0.8979346312934644,0.6003140087351119,501,25,21.91697614072164,12.696384809745304
0.9039362407914301,0.6003080070062068,501,25,21.91697614072164,12.696384809745304
0.9099377902867044,0.6003020053373056,501,25,21.91697614072164,12.696384809745304
0.915939279779941,0.6002960037284079,501,25,21.91697614072164,12.696384809745304
0.9219407092717903,0.6002900021795127,501,25,21.91697614072164,12.696384809745304
0.9279420787628979,0.6002840006906196,501,25,21.91697614072164,12.696384809745304
0.9339433882539069,0.600277999261728,501,25,21.91697614072164,12.696384809745304
0.9399446377454561,0.600271997892837,501,25,21.91697614072164,12.696384809745304
0.945945827238182,0.6002659965839461,501,25,21.91697614072164,12.696384809745304
0.9519469567327175,0.6002599953350547,501,25,21.91697614072164,12.696384809745304
0.9579480262296938,0.6002539941461621,501,25,21.91697614072164,12.696384809745304
0.9639490357297392,0.6002479930172677,501,25,21.91697614072164,12.696384809745304
0.96994998523348,0.6002419919483708,501,25,21.91697614072164,12.696384809745304
0.9759508747415404,0.6002359909394709,501,25,21.91697614072164,12.696384809745304
0.9819517042545425,0.6002299899905673,501,25,21.91697614072164,12.696384809745304
0.9879524737731072,0.6002239891016593,501,25,21.91697614072164,12.696384809745304
0.9939531832978532,0.6002179882727464,501,25,21.91697614072164,12.696384809745304
0.999953832829398,0.600211987503828,501,25,21.91697614072164,12.696384809745304
1.0059544223683576,0.6002059867949032,501,25,21.91697614072164,12.696384809745304
1.0119549519153475,0.6001999861459718,501,25,21.91697614072164,12.696384809745304
1.0179554214709807,0.600193985557033,501,25,21.91697614072164,12.696384809745304
1.0239558310358698,0.600187985028086,501,25,21.91697614072164,12.696384809745304
1.029956180610627,0.6001819845591304,501,25,21.91697614072164,12.696384809745304
1.0359564701958623,0.6001759841501656,501,25,21.91697614072164,12.696384809745304
1.041956699792186,0.6001699838011909,501,25,21.91697614072164,12.696384809745304
1.0479568694002068,0.6001639835122057,501,25,21.91697614072164,12.696384809745304
1.0539569790205336,0.6001579832832094,501,25,21.91697614072164,12.696384809745304
1.0599570286537734,0.6001519831142014,501,25,21.91697614072164,12.696384809745304
1.065957018300534,0.6001459830051811,501,25,21.91697614072164,12.696384809745304
1.0719569479614213,0.6001399829561479,501,25,21.91697614072164,12.696384809745304
1.0779568176370413,0.6001339829671011,501,25,21.91697614072164,12.696384809745304
1.0839566273279997,0.6001279830380403,501,25,21.91697614072164,12.696384809745304
1.0899563770349017,0.6001219831689646,501,25,21.91697614072164,12.696384809745304
1.0959560667583512,0.6001159833598737,501,25,21.91697614072164,12.696384809745304
1.1019556964989532,0.6001099836107667,501,25,21.91697614072164,12.696384809745304
1.1079552662573111,0.6001039839216433,501,25,21.91697614072164,12.696384809745304
1.1139547760340291,0.6000979842925026,501,25,21.91697614072164,12.696384809745304
1.1199542258297097,0.6000919847233442,501,25,21.91697614072164,12.696384809745304
1.125953615644956,0.6000859852141674,501,25,21.91697614072164,12.696384809745304
1.131952945480371,0.6000799857649718,501,25,21.91697614072164,12.696384809745304
1.1379522153365567,0.6000739863757565,501,25,21.91697614072164,12.696384809745304
1.1439514252141156,0.600067987046521,501,25,21.91697614072164,12.696384809745304
1.1499505751136498,0.6000619877772647,501,25,21.91697614072164,12.696384809745304
1.155949665035761,0.6000559885679871,501,25,21.91697614072164,12.696384809745304
1.1619486949810511,0.6000499894186875,501,25,21.91697614072164,12.696384809745304
1.1679476649501215,0.6000439903293653,501,25,21.91697614072164,12.696384809745304
1.1739465749435736,0.60003799130002,501,25,21.91697614072164,12.696384809745304
1.1799454249620087,0.6000319923306509,501,25,21.91697614072164,12.696384809745304
1.185944215006027,0.6000259934212573,501,25,21.91697614072164,12.696384809745304
1.1919429450762309,0.6000199945718387,501,25,21.91697614072164,12.696384809745304
1.1979416151732203,0.6000139957823946,501,25,21.91697614072164,12.696384809745304
1.2039402252975961,0.6000079970529243,501,25,21.91697614072164,12.696384809745304
1.2099387754499595,0.6000019983834272,501,25,21.91697614072164,12.696384809745304
1.2159372656309102,0.5999959997739026,501,25,21.91697614072164,12.696384809745304
1.2219356958410492,0.5999900012243502,501,25,21.91697614072164,12.696384809745304
1.2279340660809772,0.599984002734769,501,25,21.91697614072164,12.696384809745304
1.2339323763512937,0.5999780043051588,501,25,21.91697614072164,12.696384809745304
1.2399306266525998,0.5999720059355187,501,25,21.91697614072164,12.696384809745304
1.2459288169854952,0.5999660076258483,501,25,21.91697614072164,12.696384809745304
1.25192694735058,0.5999600093761468,501,25,21.91697614072164,12.696384809745304
1.257925017748455,0.5999540111864137,501,25,21.91697614072164,12.696384809745304
1.2639230281797194,0.5999480130566485,501,25,21.91697614072164,12.696384809745304
1.2699209786449737,0.5999420149868504,501,25,21.91697614072164,12.696384809745304
1.2759188691448176,0.5999360169770189,501,25,21.91697614072164,12.696384809745304
1.2819166996798514,0.5999300190271535,501,25,21.91697614072164,12.696384809745304
1.2879144702506744,0.5999240211372534,501,25,21.91697614072164,12.696384809745304
1.2939121808578873,0.5999180233073182,501,25,21.91697614072164,12.696384809745304
1.2999098315020892,0.5999120255373471,501,25,21.91697614072164,12.696384809745304
1.30590742218388,0.5999060278273397,501,25,21.91697614072164,12.696384809745304
1.3119049529038596,0.5999000301772953,501,25,21.91697614072164,12.696384809745304
1.3179024236626276,0.5998940325872133,501,25,21.91697614072164,12.696384809745304
1.323899834460784,0.5998880350570931,501,25,21.91697614072164,12.696384809745304
1.329897185298928,0.599882037586934,501,25,21.91697614072164,12.696384809745304
1.3358944761776597,0.5998760401767357,501,25,21.91697614072164,12.696384809745304
1.3418917070975784,0.5998700428264973,501,25,21.91697614072164,12.696384809745304
1.3478888780592844,0.5998640455362183,501,25,21.91697614072164,12.696384809745304
1.3538859890633768,0.5998580483058981,501,25,21.91697614072164,12.696384809745304
1.3598830401104547,0.5998520511355361,501,25,21.91697614072164,12.696384809745304
1.3658800312011183,0.5998460540251318,501,25,21.91697614072164,12.696384809745304
1.371876962335967,0.5998400569746843,501,25,21.91697614072164,12.696384809745304
1.3778738335156002,0.5998340599841935,501,25,21.91697614072164,12.696384809745304
1.3838706447406177,0.5998280630536583,501,25,21.91697614072164,12.696384809745304
1.3898673960116188,0.5998220661830783,501,25,21.91697614072164,12.696384809745304
1.3958640873292032,0.599816069372453,501,25,21.91697614072164,12.696384809745304
1.4018607186939704,0.5998100726217818,501,25,21.91697614072164,12.696384809745304
1.4078572901065192,0.5998040759310638,501,25,21.91697614072164,12.696384809745304
1.4138538015674498,0.5997980793002987,501,25,21.91697614072164,12.696384809745304
1.4198502530773611,0.5997920827294858,501,25,21.91697614072164,12.696384809745304
1.425846644636853,0.5997860862186246,501,25,21.91697614072164,12.696384809745304
1.4318429762465243,0.5997800897677144,501,25,21.91697614072164,12.696384809745304
1.437839247906975,0.5997740933767545,501,25,21.91697614072164,12.696384809745304
