Vout,Iout,Irradiance,Temperature,MaxVoltage,MaxPower
0.010445699560581148,2.0891599999999997,1801,5,20.462245094217423,42.33104267123741
0.0313369055308721,2.0891599999999997,1801,5,20.462245094217423,42.33104267123741
0.05222768678818568,2.089149345384439,1801,5,20.462245094217423,42.33104267123741
0.07311796745768913,2.0891284541784687,1801,5,20.462245094217423,42.33104267123741
0.09400772274217077,2.0891075633982767,1801,5,20.462245094217423,42.33104267123741
0.11489697700037461,2.0890866731196964,1801,5,20.462245094217423,42.33104267123741
0.13578575271769952,2.089065783366501,1801,5,20.462245094217423,42.33104267123741
0.15667407064987454,2.089044894114332,1801,5,20.462245094217423,42.33104267123741
0.17756194995581087,2.0890240053407036,1801,5,20.462245094217423,42.33104267123741
0.19844940832046373,2.0890031170248604,1801,5,20.462245094217423,42.33104267123741
0.2193364620682406,2.088982229147643,1801,5,20.462245094217423,42.33104267123741
0.240223126267684,2.0889613416913675,1801,5,20.462245094217423,42.33104267123741
0.2611094148280998,2.0889404546397086,1801,5,20.462245094217423,42.33104267123741
0.28199534058875053,2.088919567977598,1801,5,20.462245094217423,42.33104267123741
0.3028809154011864,2.088898681691126,1801,5,20.462245094217423,42.33104267123741
0.3237661502052412,2.0888777957674542,1801,5,20.462245094217423,42.33104267123741
0.34465105509918137,2.0888569101947305,1801,5,20.462245094217423,42.33104267123741
0.36553563940445755,2.088836024962015,1801,5,20.462245094217423,42.33104267123741
0.3864199117254737,2.0888151400592094,1801,5,20.462245094217423,42.33104267123741
0.4073038800047582,2.088794255476993,1801,5,20.462245094217423,42.33104267123741
0.4281875515738893,2.08877337120676,1801,5,20.462245094217423,42.33104267123741
0.4490709332005029,2.088752487240569,1801,5,20.462245094217423,42.33104267123741
0.4699540311316825,2.088731603571089,1801,5,20.462245094217423,42.33104267123741
0.49083685113401226,2.0887107201915502,1801,5,20.462245094217423,42.33104267123741
0.5117193985305466,2.0886898370957074,1801,5,20.462245094217423,42.33104267123741
0.5326016782349362,2.088668954277794,1801,5,20.462245094217423,42.33104267123741
0.5534836947829286,2.0886480717324853,1801,5,20.462245094217423,42.33104267123741
0.5743654523614443,2.0886271894548694,1801,5,20.462245094217423,42.33104267123741
0.5952469548354163,2.0886063074404095,1801,5,20.462245094217423,42.33104267123741
0.6161282057725637,2.0885854256849194,1801,5,20.462245094217423,42.33104267123741
0.6370092084662605,2.0885645441845337,1801,5,20.462245094217423,42.33104267123741
0.6578899659566441,2.0885436629356846,1801,5,20.462245094217423,42.33104267123741
0.6787704810500993,2.088522781935079,1801,5,20.462245094217423,42.33104267123741
0.6996507563372436,2.0885019011796766,1801,5,20.462245094217423,42.33104267123741
0.7205307942095296,2.0884810206666713,1801,5,20.462245094217423,42.33104267123741
0.7414105968745672,2.0884601403934724,1801,5,20.462245094217423,42.33104267123741
0.7622901663702709,2.088439260357688,1801,5,20.462245094217423,42.33104267123741
0.7831695045779152,2.088418380557111,1801,5,20.462245094217423,42.33104267123741
0.8040486132341866,2.0883975009897036,1801,5,20.462245094217423,42.33104267123741
0.824927493942309,2.0883766216535835,1801,5,20.462245094217423,42.33104267123741
0.8458061481823121,2.0883557425470154,1801,5,20.462245094217423,42.33104267123741
0.8666845773205109,2.088334863668395,1801,5,20.462245094217423,42.33104267123741
0.8875627826182537,2.088313985016243,1801,5,20.462245094217423,42.33104267123741
0.9084407652399998,2.0882931065891928,1801,5,20.462245094217423,42.33104267123741
0.9293185262607735,2.088272228385983,1801,5,20.462245094217423,42.33104267123741
0.9501960666730456,2.088251350405449,1801,5,20.462245094217423,42.33104267123741
0.9710733873930851,2.088230472646516,1801,5,20.462245094217423,42.33104267123741
0.9919504892668229,2.0882095951081916,1801,5,20.462245094217423,42.33104267123741
1.0128273730752624,2.0881887177895595,1801,5,20.462245094217423,42.33104267123741
1.033704039539476,2.0881678406897732,1801,5,20.462245094217423,42.33104267123741
1.054580489325217,2.0881469638080525,1801,5,20.462245094217423,42.33104267123741
1.0754567230471748,2.088126087143676,1801,5,20.462245094217423,42.33104267123741
1.0963327412729034,2.088105210695978,1801,5,20.462245094217423,42.33104267123741
1.1172085445264495,2.0880843344643436,1801,5,20.462245094217423,42.33104267123741
1.138084133291699,2.0880634584482056,1801,5,20.462245094217423,42.33104267123741
1.1589595080154682,2.0880425826470397,1801,5,20.462245094217423,42.33104267123741
1.1798346691103543,2.088021707060362,1801,5,20.462245094217423,42.33104267123741
1.2007096169573692,2.088000831687726,1801,5,20.462245094217423,42.33104267123741
1.2215843519083704,2.0879799565287187,1801,5,20.462245094217423,42.33104267123741
1.2424588742883027,2.087959081582959,1801,5,20.462245094217423,42.33104267123741
1.26333318439727,2.0879382068500956,1801,5,20.462245094217423,42.33104267123741
1.2842072825124464,2.0879173323298033,1801,5,20.462245094217423,42.33104267123741
1.3050811688898396,2.0878964580217816,1801,5,20.462245094217423,42.33104267123741
1.3259548437659208,2.087875583925754,1801,5,20.462245094217423,42.33104267123741
1.346828307359127,2.087854710041464,1801,5,20.462245094217423,42.33104267123741
1.3677015598712492,2.0878338363686755,1801,5,20.462245094217423,42.33104267123741
1.3885746014887126,2.0878129629071696,1801,5,20.462245094217423,42.33104267123741
1.4094474323837587,2.087792089656745,1801,5,20.462245094217423,42.33104267123741
1.430320052715537,2.087771216617215,1801,5,20.462245094217423,42.33104267123741
1.4511924626311132,2.087750343788407,1801,5,20.462245094217423,42.33104267123741
1.472064662266397,2.0877294711701624,1801,5,20.462245094217423,42.33104267123741
1.4929366517470022,2.087708598762334,1801,5,20.462245094217423,42.33104267123741
1.5138084311890374,2.087687726564786,1801,5,20.462245094217423,42.33104267123741
1.534680000699839,2.087666854577393,1801,5,20.462245094217423,42.33104267123741
1.5555513603786442,2.087645982800038,1801,5,20.462245094217423,42.33104267123741
1.5764225103172163,2.0876251112326143,1801,5,20.462245094217423,42.33104267123741
1.5972934506004184,2.0876042398750227,1801,5,20.462245094217423,42.33104267123741
1.618164181306744,2.0875833687271714,1801,5,20.462245094217423,42.33104267123741
1.6390347025088088,2.087562497788975,1801,5,20.462245094217423,42.33104267123741
1.6599050142738003,2.087541627060356,1801,5,20.462245094217423,42.33104267123741
1.6807751166638982,2.0875207565412413,1801,5,20.462245094217423,42.33104267123741
1.701645009736658,2.087499886231563,1801,5,20.462245094217423,42.33104267123741
1.722514693545368,2.08747901613126,1801,5,20.462245094217423,42.33104267123741
1.743384168139375,2.0874581462402744,1801,5,20.462245094217423,42.33104267123741
1.7642534335643916,2.0874372765585525,1801,5,20.462245094217423,42.33104267123741
1.7851224898627729,2.0874164070860455,1801,5,20.462245094217423,42.33104267123741
1.8059913370737748,2.0873955378227076,1801,5,20.462245094217423,42.33104267123741
1.8268599752337946,2.087374668768496,1801,5,20.462245094217423,42.33104267123741
1.8477284043765885,2.087353799923372,1801,5,20.462245094217423,42.33104267123741
1.8685966245334769,2.087332931287299,1801,5,20.462245094217423,42.33104267123741
1.8894646357335296,2.087312062860243,1801,5,20.462245094217423,42.33104267123741
1.910332438003742,2.087291194642173,1801,5,20.462245094217423,42.33104267123741
1.9312000313691913,2.08727032663306,1801,5,20.462245094217423,42.33104267123741
1.9520674158531857,2.0872494588328765,1801,5,20.462245094217423,42.33104267123741
1.972934591477401,2.087228591241598,1801,5,20.462245094217423,42.33104267123741
1.993801558262007,2.087207723859201,1801,5,20.462245094217423,42.33104267123741
2.0146683162257792,2.0871868566856633,1801,5,20.462245094217423,42.33104267123741
2.0355348653862113,2.0871659897209653,1801,5,20.462245094217423,42.33104267123741
2.05640120575961,2.0871451229650884,1801,5,20.462245094217423,42.33104267123741
2.0772673373611896,2.0871242564180146,1801,5,20.462245094217423,42.33104267123741
2.098133260205153,2.0871033900797276,1801,5,20.462245094217423,42.33104267123741
2.1189989743047692,2.0870825239502127,1801,5,20.462245094217423,42.33104267123741
2.13986447967245,2.0870616580294556,1801,5,20.462245094217423,42.33104267123741
2.1607297763198097,2.0870407923174423,1801,5,20.462245094217423,42.33104267123741
2.181594864257732,2.0870199268141616,1801,5,20.462245094217423,42.33104267123741
2.2024597434964224,2.0869990615196006,1801,5,20.462245094217423,42.33104267123741
2.2233244140454604,2.0869781964337495,1801,5,20.462245094217423,42.33104267123741
2.244188875913851,2.0869573315565972,1801,5,20.462245094217423,42.33104267123741
2.265053129110066,2.0869364668881345,1801,5,20.462245094217423,42.33104267123741
2.285917173642085,2.086915602428353,1801,5,20.462245094217423,42.33104267123741
2.3067810095174353,2.086894738177243,1801,5,20.462245094217423,42.33104267123741
2.3276446367432246,2.086873874134797,1801,5,20.462245094217423,42.33104267123741
2.3485080553261746,2.0868530103010086,1801,5,20.462245094217423,42.33104267123741
2.3693712652726506,2.086832146675869,1801,5,20.462245094217423,42.33104267123741
2.3902342665886875,2.0868112832593724,1801,5,20.462245094217423,42.33104267123741
2.4110970592800167,2.0867904200515124,1801,5,20.462245094217423,42.33104267123741
2.4319596433520903,2.086769557052283,1801,5,20.462245094217423,42.33104267123741
2.4528220188100995,2.0867486942616775,1801,5,20.462245094217423,42.33104267123741
2.473684185658997,2.086727831679692,1801,5,20.462245094217423,42.33104267123741
2.4945461439035155,2.08670696930632,1801,5,20.462245094217423,42.33104267123741
2.515407893548184,2.0866861071415577,1801,5,20.462245094217423,42.33104267123741
2.5362694345973433,2.086665245185399,1801,5,20.462245094217423,42.33104267123741
2.5571307670551597,2.0866443834378408,1801,5,20.462245094217423,42.33104267123741
2.5779918909256407,2.086623521898878,1801,5,20.462245094217423,42.33104267123741
2.598852806212644,2.086602660568506,1801,5,20.462245094217423,42.33104267123741
2.6197135129198927,2.086581799446722,1801,5,20.462245094217423,42.33104267123741
2.640574011050985,2.086560938533521,1801,5,20.462245094217423,42.33104267123741
2.661434300609398,2.0865400778289,1801,5,20.462245094217423,42.33104267123741
2.682294381598508,2.086519217332855,1801,5,20.462245094217423,42.33104267123741
2.703154254021586,2.0864983570453823,1801,5,20.462245094217423,42.33104267123741
2.7240139178818152,2.0864774969664794,1801,5,20.462245094217423,42.33104267123741
2.7448733731822927,2.0864566370961426,1801,5,20.462245094217423,42.33104267123741
2.7657326199260397,2.0864357774343683,1801,5,20.462245094217423,42.33104267123741
2.7865916581160017,2.0864149179811537,1801,5,20.462245094217423,42.33104267123741
2.807450487755063,2.086394058736496,1801,5,20.462245094217423,42.33104267123741
2.828309108846042,2.086373199700392,1801,5,20.462245094217423,42.33104267123741
2.849167521391703,2.0863523408728386,1801,5,20.462245094217423,42.33104267123741
2.870025725394757,2.0863314822538337,1801,5,20.462245094217423,42.33104267123741
2.890883720857868,2.086310623843374,1801,5,20.462245094217423,42.33104267123741
2.911741507783653,2.0862897656414567,1801,5,20.462245094217423,42.33104267123741
2.93259908617469,2.0862689076480794,1801,5,20.462245094217423,42.33104267123741
2.9534564560335195,2.0862480498632396,1801,5,20.462245094217423,42.33104267123741
2.974313617362645,2.0862271922869344,1801,5,20.462245094217423,42.33104267123741
2.99517057016454,2.086206334919161,1801,5,20.462245094217423,42.33104267123741
3.0160273144416454,2.086185477759918,1801,5,20.462245094217423,42.33104267123741
3.0368838501963764,2.0861646208092015,1801,5,20.462245094217423,42.33104267123741
3.057740177431124,2.0861437640670104,1801,5,20.462245094217423,42.33104267123741
3.0785962961482523,2.0861229075333414,1801,5,20.462245094217423,42.33104267123741
3.0994522063501067,2.0861020512081923,1801,5,20.462245094217423,42.33104267123741
3.1203079080390115,2.0860811950915608,1801,5,20.462245094217423,42.33104267123741
3.1411634012172724,2.0860603391834442,1801,5,20.462245094217423,42.33104267123741
3.1620186858871775,2.0860394834838414,1801,5,20.462245094217423,42.33104267123741
3.1828737620510004,2.0860186279927486,1801,5,20.462245094217423,42.33104267123741
3.2037286297109997,2.085997772710164,1801,5,20.462245094217423,42.33104267123741
3.2245832888694204,2.085976917636086,1801,5,20.462245094217423,42.33104267123741
3.2454377395284957,2.0859560627705114,1801,5,20.462245094217423,42.33104267123741
3.2662919816904465,2.0859352081134386,1801,5,20.462245094217423,42.33104267123741
3.2871460153574845,2.0859143536648648,1801,5,20.462245094217423,42.33104267123741
3.3079998405318087,2.0858934994247886,1801,5,20.462245094217423,42.33104267123741
3.3288534572156125,2.085872645393207,1801,5,20.462245094217423,42.33104267123741
3.3497068654110795,2.085851791570118,1801,5,20.462245094217423,42.33104267123741
3.3705600651203858,2.0858309379555195,1801,5,20.462245094217423,42.33104267123741
3.3914130563457006,2.0858100845494096,1801,5,20.462245094217423,42.33104267123741
3.4122658390891862,2.0857892313517854,1801,5,20.462245094217423,42.33104267123741
3.4331184133529993,2.0857683783626455,1801,5,20.462245094217423,42.33104267123741
3.4539707791392917,2.0857475255819873,1801,5,20.462245094217423,42.33104267123741
3.4748229364502072,2.085726673009809,1801,5,20.462245094217423,42.33104267123741
3.4956748852878876,2.085705820646108,1801,5,20.462245094217423,42.33104267123741
3.516526625654469,2.0856849684908823,1801,5,20.462245094217423,42.33104267123741
3.5373781575520846,2.08566411654413,1801,5,20.462245094217423,42.33104267123741
3.5582294809828627,2.0856432648058485,1801,5,20.462245094217423,42.33104267123741
3.5790805959489287,2.085622413276036,1801,5,20.462245094217423,42.33104267123741
3.5999315024524057,2.0856015619546904,1801,5,20.462245094217423,42.33104267123741
3.6207822004954124,2.0855807108418096,1801,5,20.462245094217423,42.33104267123741
3.6416326900800655,2.085559859937391,1801,5,20.462245094217423,42.33104267123741
3.6624829712084774,2.085539009241433,1801,5,20.462245094217423,42.33104267123741
3.6833330438827607,2.0855181587539335,1801,5,20.462245094217423,42.33104267123741
3.704182908105027,2.0854973084748902,1801,5,20.462245094217423,42.33104267123741
3.7250325638773814,2.085476458404301,1801,5,20.462245094217423,42.33104267123741
3.745882011201929,2.085455608542164,1801,5,20.462245094217423,42.33104267123741
3.7667312500807766,2.0854347588884763,1801,5,20.462245094217423,42.33104267123741
3.7875802805160244,2.0854139094432367,1801,5,20.462245094217423,42.33104267123741
3.8084291025097747,2.085393060206443,1801,5,20.462245094217423,42.33104267123741
3.8292777160641256,2.085372211178093,1801,5,20.462245094217423,42.33104267123741
3.8501261211811775,2.085351362358184,1801,5,20.462245094217423,42.33104267123741
3.8709743178630265,2.0853305137467144,1801,5,20.462245094217423,42.33104267123741
3.891822306111769,2.0853096653436825,1801,5,20.462245094217423,42.33104267123741
3.9126700859295003,2.085288817149085,1801,5,20.462245094217423,42.33104267123741
3.9335176573183146,2.0852679691629215,1801,5,20.462245094217423,42.33104267123741
3.954365020280306,2.0852471213851884,1801,5,20.462245094217423,42.33104267123741
3.975212174817567,2.0852262738158847,1801,5,20.462245094217423,42.33104267123741
3.996059120932189,2.085205426455007,1801,5,20.462245094217423,42.33104267123741
4.016905858626265,2.0851845793025547,1801,5,20.462245094217423,42.33104267123741
4.037752387901884,2.085163732358525,1801,5,20.462245094217423,42.33104267123741
4.058598708761137,2.0851428856229153,1801,5,20.462245094217423,42.33104267123741
4.079444821206115,2.0851220390957246,1801,5,20.462245094217423,42.33104267123741
4.100290725238905,2.08510119277695,1801,5,20.462245094217423,42.33104267123741
4.121136420861596,2.0850803466665897,1801,5,20.462245094217423,42.33104267123741
4.141981908076279,2.0850595007646415,1801,5,20.462245094217423,42.33104267123741
4.162827186885039,2.0850386550711035,1801,5,20.462245094217423,42.33104267123741
4.183672257289965,2.0850178095859735,1801,5,20.462245094217423,42.33104267123741
4.2045171192931425,2.084996964309249,1801,5,20.462245094217423,42.33104267123741
4.225361772896662,2.084976119240929,1801,5,20.462245094217423,42.33104267123741
4.246206218102607,2.0849552743810102,1801,5,20.462245094217423,42.33104267123741
4.267050454913066,2.084934429729491,1801,5,20.462245094217423,42.33104267123741
4.287894483330122,2.08491358528637,1801,5,20.462245094217423,42.33104267123741
4.308738303355865,2.0848927410516436,1801,5,20.462245094217423,42.33104267123741
4.329581914992378,2.084871897025311,1801,5,20.462245094217423,42.33104267123741
4.350425318241747,2.0848510532073696,1801,5,20.462245094217423,42.33104267123741
4.371268513106059,2.0848302095978175,1801,5,20.462245094217423,42.33104267123741
4.392111499587397,2.0848093661966525,1801,5,20.462245094217423,42.33104267123741
4.412954277687847,2.0847885230038727,1801,5,20.462245094217423,42.33104267123741
4.433796847409494,2.0847676800194757,1801,5,20.462245094217423,42.33104267123741
4.454639208754421,2.0847468372434594,1801,5,20.462245094217423,42.33104267123741
4.475481361724716,2.0847259946758223,1801,5,20.462245094217423,42.33104267123741
4.496323306322462,2.0847051523165616,1801,5,20.462245094217423,42.33104267123741
4.517165042549743,2.0846843101656756,1801,5,20.462245094217423,42.33104267123741
4.538006570408641,2.084663468223162,1801,5,20.462245094217423,42.33104267123741
4.558847889901244,2.084642626489019,1801,5,20.462245094217423,42.33104267123741
4.579689001029633,2.084621784963244,1801,5,20.462245094217423,42.33104267123741
4.600529903795896,2.0846009436458357,1801,5,20.462245094217423,42.33104267123741
4.6213705982021125,2.0845801025367914,1801,5,20.462245094217423,42.33104267123741
4.642211084250368,2.0845592616361093,1801,5,20.462245094217423,42.33104267123741
4.663051361942747,2.084538420943787,1801,5,20.462245094217423,42.33104267123741
4.6838914312813325,2.0845175804598233,1801,5,20.462245094217423,42.33104267123741
4.704731292268207,2.084496740184215,1801,5,20.462245094217423,42.33104267123741
4.725570944905455,2.0844759001169604,1801,5,20.462245094217423,42.33104267123741
4.746410389195161,2.0844550602580574,1801,5,20.462245094217423,42.33104267123741
4.7672496251394065,2.084434220607504,1801,5,20.462245094217423,42.33104267123741
4.788088652740275,2.0844133811652985,1801,5,20.462245094217423,42.33104267123741
4.808927471999852,2.084392541931438,1801,5,20.462245094217423,42.33104267123741
4.82976608292022,2.0843717029059214,1801,5,20.462245094217423,42.33104267123741
4.850604485503461,2.0843508640887456,1801,5,20.462245094217423,42.33104267123741
4.871442679751659,2.0843300254799093,1801,5,20.462245094217423,42.33104267123741
4.892280665666896,2.08430918707941,1801,5,20.462245094217423,42.33104267123741
4.913118443251257,2.0842883488872457,1801,5,20.462245094217423,42.33104267123741
4.933956012506823,2.084267510903414,1801,5,20.462245094217423,42.33104267123741
4.954793373435678,2.0842466731279137,1801,5,20.462245094217423,42.33104267123741
4.9756305260399065,2.084225835560742,1801,5,20.462245094217423,42.33104267123741
4.996467470321589,2.084204998201897,1801,5,20.462245094217423,42.33104267123741
5.017304206282808,2.0841841610513763,1801,5,20.462245094217423,42.33104267123741
5.0381407339256485,2.0841633241091784,1801,5,20.462245094217423,42.33104267123741
