Vout,Iout,Irradiance,Temperature,MaxVoltage,MaxPower
0.0006211440274612745,0.12423000000000001,101,40,22.514909738222304,2.290149942728428
0.0018634205968428661,0.12423000000000001,101,40,22.514909738222304,2.290149942728428
0.003105671911053394,0.12422936643297254,101,40,22.514909738222304,2.290149942728428
0.0043478934582649115,0.12422812415640316,101,40,22.514909738222304,2.290149942728428
0.0055900837639337704,0.12422688190515231,101,40,22.514909738222304,2.290149942728428
0.00683224427653054,0.12422563968372932,101,40,22.514909738222304,2.290149942728428
0.008074376333129017,0.12422439749354788,101,40,22.514909738222304,2.290149942728428
0.009316481167949756,0.1242231553331595,101,40,22.514909738222304,2.290149942728428
0.010558559920260004,0.12422191320122714,101,40,22.514909738222304,2.290149942728428
0.011800613641679532,0.12422067109651652,101,40,22.514909738222304,2.290149942728428
0.013042643302924394,0.12421942901788843,101,40,22.514909738222304,2.290149942728428
0.014284649800031773,0.12421818696429122,101,40,22.514909738222304,2.290149942728428
0.015526633960105894,0.12421694493475419,101,40,22.514909738222304,2.290149942728428
0.01676859654662184,0.12421570292838129,101,40,22.514909738222304,2.290149942728428
0.018010538264321252,0.1242144609443454,101,40,22.514909738222304,2.290149942728428
0.019252459763731408,0.12421321898188309,101,40,22.514909738222304,2.290149942728428
0.020494361645336547,0.12421197704028959,101,40,22.514909738222304,2.290149942728428
0.021736244463428242,0.12421073511891438,101,40,22.514909738222304,2.290149942728428
0.022978108729659566,0.12420949321715696,101,40,22.514909738222304,2.290149942728428
0.02421995491632575,0.12420825133446306,101,40,22.514909738222304,2.290149942728428
0.02546178345939242,0.12420700947032103,101,40,22.514909738222304,2.290149942728428
0.026703594761290885,0.12420576762425854,101,40,22.514909738222304,2.290149942728428
0.027945389193498302,0.12420452579583967,101,40,22.514909738222304,2.290149942728428
0.02918716709891934,0.12420328398466195,101,40,22.514909738222304,2.290149942728428
0.0304289287940846,0.12420204219035393,101,40,22.514909738222304,2.290149942728428
0.031670674571179856,0.12420080041257268,101,40,22.514909738222304,2.290149942728428
0.03291240469991921,0.1241995586510017,101,40,22.514909738222304,2.290149942728428
0.03415411942927408,0.12419831690534879,101,40,22.514909738222304,2.290149942728428
0.03539581898906917,0.12419707517534423,101,40,22.514909738222304,2.290149942728428
0.03663750359145569,0.12419583346073904,101,40,22.514909738222304,2.290149942728428
0.037879173432271124,0.12419459176130342,101,40,22.514909738222304,2.290149942728428
0.039120828692294454,0.1241933500768252,101,40,22.514909738222304,2.290149942728428
0.040362469538404826,0.12419210840710856,101,40,22.514909738222304,2.290149942728428
0.04160409612465094,0.1241908667519727,101,40,22.514909738222304,2.290149942728428
0.04284570859323835,0.12418962511125076,101,40,22.514909738222304,2.290149942728428
0.04408730707544059,0.12418838348478868,101,40,22.514909738222304,2.290149942728428
0.045328891692440386,0.12418714187244426,101,40,22.514909738222304,2.290149942728428
0.046570462556106,0.12418590027408621,101,40,22.514909738222304,2.290149942728428
0.04781201976970792,0.12418465868959339,101,40,22.514909738222304,2.290149942728428
0.04905356342858041,0.12418341711885388,101,40,22.514909738222304,2.290149942728428
0.0502950936207321,0.12418217556176443,101,40,22.514909738222304,2.290149942728428
0.05153661042740962,0.12418093401822972,101,40,22.514909738222304,2.290149942728428
0.05277811392361794,0.12417969248816171,101,40,22.514909738222304,2.290149942728428
0.05401960417860057,0.1241784509714792,101,40,22.514909738222304,2.290149942728428
0.05526108125628285,0.12417720946810715,101,40,22.514909738222304,2.290149942728428
0.05650254521568116,0.12417596797797631,101,40,22.514909738222304,2.290149942728428
0.057743996111280595,0.12417472650102278,101,40,22.514909738222304,2.290149942728428
0.05898543399338366,0.12417348503718753,101,40,22.514909738222304,2.290149942728428
0.06022685890843202,0.12417224358641607,101,40,22.514909738222304,2.290149942728428
0.06146827089930361,0.12417100214865812,101,40,22.514909738222304,2.290149942728428
0.0627096700055868,0.12416976072386722,101,40,22.514909738222304,2.290149942728428
0.06395105626383356,0.12416851931200049,101,40,22.514909738222304,2.290149942728428
0.06519242970779299,0.12416727791301835,101,40,22.514909738222304,2.290149942728428
0.06643379036862702,0.12416603652688424,101,40,22.514909738222304,2.290149942728428
0.06767513827510951,0.12416479515356442,101,40,22.514909738222304,2.290149942728428
0.06891647345380997,0.12416355379302772,101,40,22.514909738222304,2.290149942728428
0.07015779592926312,0.12416231244524538,101,40,22.514909738222304,2.290149942728428
0.0713991057241255,0.12416107111019081,101,40,22.514909738222304,2.290149942728428
0.07264040285931997,0.1241598297878395,101,40,22.514909738222304,2.290149942728428
0.07388168735416908,0.12415858847816877,101,40,22.514909738222304,2.290149942728428
0.07512295922651828,0.12415734718115772,101,40,22.514909738222304,2.290149942728428
0.0763642184928494,0.124156105896787,101,40,22.514909738222304,2.290149942728428
0.07760546516838576,0.12415486462503877,101,40,22.514909738222304,2.290149942728428
0.07884669926718892,0.12415362336589657,101,40,22.514909738222304,2.290149942728428
0.08008792080224798,0.12415238211934516,101,40,22.514909738222304,2.290149942728428
0.08132912978556231,0.12415114088537048,101,40,22.514909738222304,2.290149942728428
0.08257032622821744,0.12414989966395955,101,40,22.514909738222304,2.290149942728428
0.08381151014045565,0.12414865845510036,101,40,22.514909738222304,2.290149942728428
0.0850526815317406,0.12414741725878183,101,40,22.514909738222304,2.290149942728428
0.08629384041081738,0.1241461760749937,101,40,22.514909738222304,2.290149942728428
0.08753498678576775,0.12414493490372654,101,40,22.514909738222304,2.290149942728428
0.08877612066406121,0.12414369374497158,101,40,22.514909738222304,2.290149942728428
0.09001724205260206,0.12414245259872075,101,40,22.514909738222304,2.290149942728428
0.09125835095777297,0.12414121146496657,101,40,22.514909738222304,2.290149942728428
0.09249944738547501,0.12413997034370214,101,40,22.514909738222304,2.290149942728428
0.09374053134116478,0.12413872923492109,101,40,22.514909738222304,2.290149942728428
0.09498160282988857,0.1241374881386175,101,40,22.514909738222304,2.290149942728428
0.09622266185631394,0.12413624705478592,101,40,22.514909738222304,2.290149942728428
0.09746370842475889,0.12413500598342131,101,40,22.514909738222304,2.290149942728428
0.09870474253921872,0.12413376492451898,101,40,22.514909738222304,2.290149942728428
0.09994576420339088,0.12413252387807465,101,40,22.514909738222304,2.290149942728428
0.10118677342069783,0.1241312828440843,101,40,22.514909738222304,2.290149942728428
0.10242777019430827,0.12413004182254422,101,40,22.514909738222304,2.290149942728428
0.10366875452715664,0.12412880081345103,101,40,22.514909738222304,2.290149942728428
0.10490972642196118,0.12412755981680151,101,40,22.514909738222304,2.290149942728428
0.10615068588124045,0.12412631883259277,101,40,22.514909738222304,2.290149942728428
0.10739163290732885,0.12412507786082207,101,40,22.514909738222304,2.290149942728428
0.10863256750239064,0.12412383690148689,101,40,22.514909738222304,2.290149942728428
0.10987348966843309,0.12412259595458489,101,40,22.514909738222304,2.290149942728428
0.11111439940731872,0.12412135502011393,101,40,22.514909738222304,2.290149942728428
0.11235529672077608,0.12412011409807198,101,40,22.514909738222304,2.290149942728428
0.1135961816104104,0.12411887318845718,101,40,22.514909738222304,2.290149942728428
0.11483705407771293,0.12411763229126782,101,40,22.514909738222304,2.290149942728428
0.11607791412406966,0.12411639140650228,101,40,22.514909738222304,2.290149942728428
0.11731876175076957,0.12411515053415907,101,40,22.514909738222304,2.290149942728428
0.11855959695901186,0.1241139096742368,101,40,22.514909738222304,2.290149942728428
0.11980041974991319,0.12411266882673419,101,40,22.514909738222304,2.290149942728428
0.12104123012451373,0.12411142799165002,101,40,22.514909738222304,2.290149942728428
0.1222820280837832,0.12411018716898321,101,40,22.514909738222304,2.290149942728428
0.12352281362862619,0.1241089463587327,101,40,22.514909738222304,2.290149942728428
0.12476358675988732,0.12410770556089751,101,40,22.514909738222304,2.290149942728428
0.12600434747835568,0.12410646477547675,101,40,22.514909738222304,2.290149942728428
0.12724509578476925,0.12410522400246957,101,40,22.514909738222304,2.290149942728428
0.1284858316798187,0.12410398324187517,101,40,22.514909738222304,2.290149942728428
0.1297265551641512,0.12410274249369284,101,40,22.514909738222304,2.290149942728428
0.13096726623837363,0.12410150175792187,101,40,22.514909738222304,2.290149942728428
0.1322079649030556,0.12410026103456161,101,40,22.514909738222304,2.290149942728428
0.13344865115873258,0.12409902032361146,101,40,22.514909738222304,2.290149942728428
0.13468932500590838,0.12409777962507085,101,40,22.514909738222304,2.290149942728428
0.1359299864450575,0.12409653893893924,101,40,22.514909738222304,2.290149942728428
0.1371706354766275,0.12409529826521613,101,40,22.514909738222304,2.290149942728428
0.138411272101041,0.12409405760390106,101,40,22.514909738222304,2.290149942728428
0.13965189631869782,0.12409281695499355,101,40,22.514909738222304,2.290149942728428
0.14089250812997636,0.1240915763184932,101,40,22.514909738222304,2.290149942728428
0.14213310753523553,0.12409033569439962,101,40,22.514909738222304,2.290149942728428
0.14337369453481616,0.1240890950827124,101,40,22.514909738222304,2.290149942728428
0.14461426912904238,0.1240878544834312,101,40,22.514909738222304,2.290149942728428
0.145854831318223,0.12408661389655569,101,40,22.514909738222304,2.290149942728428
0.14709538110265238,0.12408537332208551,101,40,22.514909738222304,2.290149942728428
0.14833591848261207,0.1240841327600204,101,40,22.514909738222304,2.290149942728428
0.14957644345837134,0.12408289221036002,101,40,22.514909738222304,2.290149942728428
0.1508169560301883,0.12408165167310412,101,40,22.514909738222304,2.290149942728428
0.15205745619831065,0.12408041114825241,101,40,22.514909738222304,2.290149942728428
0.15329794396297675,0.12407917063580465,101,40,22.514909738222304,2.290149942728428
0.154538419324416,0.12407793013576059,101,40,22.514909738222304,2.290149942728428
0.15577888228284983,0.12407668964811996,101,40,22.514909738222304,2.290149942728428
0.15701933283849207,0.12407544917288257,101,40,22.514909738222304,2.290149942728428
0.15825977099154967,0.12407420871004819,101,40,22.514909738222304,2.290149942728428
0.15950019674222313,0.1240729682596166,101,40,22.514909738222304,2.290149942728428
0.1607406100907072,0.12407172782158758,101,40,22.514909738222304,2.290149942728428
0.16198101103719106,0.12407048739596095,101,40,22.514909738222304,2.290149942728428
0.16322139958185894,0.12406924698273651,101,40,22.514909738222304,2.290149942728428
0.1644617757248904,0.12406800658191408,101,40,22.514909738222304,2.290149942728428
0.16570213946646076,0.12406676619349345,101,40,22.514909738222304,2.290149942728428
0.16694249080674128,0.12406552581747446,101,40,22.514909738222304,2.290149942728428
0.16818282974589982,0.12406428545385692,101,40,22.514909738222304,2.290149942728428
0.1694231562841005,0.12406304510264068,101,40,22.514909738222304,2.290149942728428
0.17066347042150476,0.12406180476382556,101,40,22.514909738222304,2.290149942728428
0.17190377215827082,0.1240605644374114,101,40,22.514909738222304,2.290149942728428
0.17314406149455444,0.12405932412339803,101,40,22.514909738222304,2.290149942728428
0.1743843384305089,0.12405808382178529,101,40,22.514909738222304,2.290149942728428
0.1756246029662852,0.12405684353257304,101,40,22.514909738222304,2.290149942728428
0.17686485510203226,0.12405560325576112,101,40,22.514909738222304,2.290149942728428
0.17810509483789708,0.12405436299134937,101,40,22.514909738222304,2.290149942728428
0.1793453221740249,0.12405312273933765,101,40,22.514909738222304,2.290149942728428
0.1805855371105594,0.1240518824997258,101,40,22.514909738222304,2.290149942728428
0.1818257396476426,0.12405064227251371,101,40,22.514909738222304,2.290149942728428
0.18306592978541517,0.1240494020577012,101,40,22.514909738222304,2.290149942728428
0.1843061075240165,0.12404816185528814,101,40,22.514909738222304,2.290149942728428
0.18554627286358483,0.12404692166527438,101,40,22.514909738222304,2.290149942728428
0.18678642580425733,0.1240456814876598,101,40,22.514909738222304,2.290149942728428
0.18802656634617004,0.12404444132244426,101,40,22.514909738222304,2.290149942728428
0.18926669448945815,0.1240432011696276,101,40,22.514909738222304,2.290149942728428
0.19050681023425592,0.12404196102920971,101,40,22.514909738222304,2.290149942728428
0.19174691358069684,0.12404072090119043,101,40,22.514909738222304,2.290149942728428
0.19298700452891382,0.12403948078556964,101,40,22.514909738222304,2.290149942728428
0.1942270830790388,0.12403824068234721,101,40,22.514909738222304,2.290149942728428
0.19546714923120334,0.12403700059152302,101,40,22.514909738222304,2.290149942728428
0.19670720298553826,0.1240357605130969,101,40,22.514909738222304,2.290149942728428
0.19794724434217398,0.12403452044706874,101,40,22.514909738222304,2.290149942728428
0.19918727330124025,0.12403328039343842,101,40,22.514909738222304,2.290149942728428
0.2004272898628666,0.12403204035220579,101,40,22.514909738222304,2.290149942728428
0.20166729402718184,0.12403080032337073,101,40,22.514909738222304,2.290149942728428
0.20290728579431472,0.1240295603069331,101,40,22.514909738222304,2.290149942728428
0.20414726516439335,0.12402832030289279,101,40,22.514909738222304,2.290149942728428
0.20538723213754573,0.12402708031124966,101,40,22.514909738222304,2.290149942728428
0.20662718671389937,0.12402584033200359,101,40,22.514909738222304,2.290149942728428
0.2078671288935816,0.12402460036515443,101,40,22.514909738222304,2.290149942728428
0.20910705867671955,0.12402336041070207,101,40,22.514909738222304,2.290149942728428
0.21034697606343994,0.12402212046864639,101,40,22.514909738222304,2.290149942728428
0.21158688105386939,0.12402088053898724,101,40,22.514909738222304,2.290149942728428
0.21282677364813427,0.12401964062172452,101,40,22.514909738222304,2.290149942728428
0.21406665384636078,0.12401840071685809,101,40,22.514909738222304,2.290149942728428
0.21530652164867495,0.12401716082438781,101,40,22.514909738222304,2.290149942728428
0.21654637705520263,0.12401592094431357,101,40,22.514909738222304,2.290149942728428
0.2177862200660695,0.12401468107663526,101,40,22.514909738222304,2.290149942728428
0.21902605068140116,0.12401344122135272,101,40,22.514909738222304,2.290149942728428
0.22026586890132305,0.12401220137846583,101,40,22.514909738222304,2.290149942728428
0.22150567472596044,0.12401096154797449,101,40,22.514909738222304,2.290149942728428
0.22274546815543864,0.12400972172987855,101,40,22.514909738222304,2.290149942728428
0.2239852491898827,0.12400848192417789,101,40,22.514909738222304,2.290149942728428
0.2252250178294176,0.1240072421308724,101,40,22.514909738222304,2.290149942728428
0.22646477407416835,0.12400600234996194,101,40,22.514909738222304,2.290149942728428
0.22770451792425975,0.12400476258144638,101,40,22.514909738222304,2.290149942728428
0.2289442493798167,0.1240035228253256,101,40,22.514909738222304,2.290149942728428
0.23018396844096378,0.1240022830815995,101,40,22.514909738222304,2.290149942728428
0.23142367510782572,0.1240010433502679,101,40,22.514909738222304,2.290149942728428
0.23266336938052704,0.12399980363133073,101,40,22.514909738222304,2.290149942728428
0.2339030512591924,0.12399856392478785,101,40,22.514909738222304,2.290149942728428
0.23514272074394615,0.12399732423063911,101,40,22.514909738222304,2.290149942728428
0.23638237783491278,0.12399608454888442,101,40,22.514909738222304,2.290149942728428
0.23762202253221676,0.12399484487952364,101,40,22.514909738222304,2.290149942728428
0.23886165483598237,0.12399360522255663,101,40,22.514909738222304,2.290149942728428
0.24010127474633403,0.12399236557798331,101,40,22.514909738222304,2.290149942728428
0.2413408822633959,0.1239911259458035,101,40,22.514909738222304,2.290149942728428
0.24258047738729233,0.12398988632601711,101,40,22.514909738222304,2.290149942728428
0.24382006011814752,0.12398864671862402,101,40,22.514909738222304,2.290149942728428
0.24505963045608575,0.12398740712362408,101,40,22.514909738222304,2.290149942728428
0.24629918840123113,0.12398616754101718,101,40,22.514909738222304,2.290149942728428
0.2475387339537079,0.12398492797080321,101,40,22.514909738222304,2.290149942728428
0.24877826711364007,0.12398368841298202,101,40,22.514909738222304,2.290149942728428
0.2500177878811518,0.1239824488675535,101,40,22.514909738222304,2.290149942728428
0.25125729625636734,0.12398120933451752,101,40,22.514909738222304,2.290149942728428
0.25249679223941046,0.12397996981387396,101,40,22.514909738222304,2.290149942728428
0.2537362758304055,0.1239787303056227,101,40,22.514909738222304,2.290149942728428
0.2549757470294764,0.12397749080976361,101,40,22.514909738222304,2.290149942728428
0.2562152058367473,0.12397625132629657,101,40,22.514909738222304,2.290149942728428
0.2574546522523421,0.12397501185522145,101,40,22.514909738222304,2.290149942728428
0.2586940862763849,0.12397377239653813,101,40,22.514909738222304,2.290149942728428
0.2599335079089997,0.12397253295024648,101,40,22.514909738222304,2.290149942728428
0.2611729171503104,0.12397129351634638,101,40,22.514909738222304,2.290149942728428
0.262412314000441,0.12397005409483772,101,40,22.514909738222304,2.290149942728428
0.2636516984595156,0.12396881468572034,101,40,22.514909738222304,2.290149942728428
0.26489107052765803,0.12396757528899416,101,40,22.514909738222304,2.290149942728428
0.2661304302049924,0.12396633590465903,101,40,22.514909738222304,2.290149942728428
0.2673697774916424,0.12396509653271481,101,40,22.514909738222304,2.290149942728428
0.2686091123877322,0.12396385717316143,101,40,22.514909738222304,2.290149942728428
0.26984843489338567,0.12396261782599871,101,40,22.514909738222304,2.290149942728428
0.2710877450087268,0.12396137849122656,101,40,22.514909738222304,2.290149942728428
0.2723270427338795,0.12396013916884484,101,40,22.514909738222304,2.290149942728428
0.2735663280689675,0.12395889985885343,101,40,22.514909738222304,2.290149942728428
0.27480560101411505,0.12395766056125221,101,40,22.514909738222304,2.290149942728428
0.2760448615694458,0.12395642127604105,101,40,22.514909738222304,2.290149942728428
0.2772841097350837,0.12395518200321984,101,40,22.514909738222304,2.290149942728428
0.27852334551115276,0.12395394274278844,101,40,22.514909738222304,2.290149942728428
0.2797625688977768,0.12395270349474673,101,40,22.514909738222304,2.290149942728428
0.28100177989507974,0.12395146425909458,101,40,22.514909738222304,2.290149942728428
0.28224097850318547,0.12395022503583188,101,40,22.514909738222304,2.290149942728428
0.2834801647222178,0.1239489858249585,101,40,22.514909738222304,2.290149942728428
0.28471933855230075,0.12394774662647431,101,40,22.514909738222304,2.290149942728428
0.28595849999355816,0.1239465074403792,101,40,22.514909738222304,2.290149942728428
0.28719764904611383,0.12394526826667304,101,40,22.514909738222304,2.290149942728428
0.2884367857100917,0.12394402910535571,101,40,22.514909738222304,2.290149942728428
0.2896759099856156,0.12394278995642706,101,40,22.514909738222304,2.290149942728428
0.2909150218728095,0.123941550819887,101,40,22.514909738222304,2.290149942728428
