Vout,Iout,Irradiance,Temperature,MaxVoltage,MaxPower
0.0018210324900722109,0.36421,301,30,22.282022900909727,7.618998597673373
0.005463063797602352,0.36421,301,30,22.282022900909727,7.618998597673373
0.009105021063549518,0.3642081425465099,301,30,22.282022900909727,7.618998597673373
0.012746891060409427,0.36420450051520237,301,30,22.282022900909727,7.618998597673373
0.016388669465204203,0.3642008585581222,301,30,22.282022900909727,7.618998597673373
0.02003036052447225,0.36419721668848953,301,30,22.282022900909727,7.618998597673373
0.023671968158165656,0.3641935749104489,301,30,22.282022900909727,7.618998597673373
0.027313495984697587,0.36418993321975385,301,30,22.282022900909727,7.618998597673373
0.030954947344102837,0.36418629161248434,301,30,22.282022900909727,7.618998597673373
0.034596325319456674,0.364182650085022,301,30,22.282022900909727,7.618998597673373
0.038237632756645684,0.3641790086340267,301,30,22.282022900909727,7.618998597673373
0.0418788722826175,0.3641753672564155,301,30,22.282022900909727,7.618998597673373
0.04552004632222627,0.3641717259493425,301,30,22.282022900909727,7.618998597673373
0.04916115711378202,0.36416808471018064,301,30,22.282022900909727,7.618998597673373
0.052802206723403716,0.3641644435365052,301,30,22.282022900909727,7.618998597673373
0.05644319705826786,0.36416080242607773,301,30,22.282022900909727,7.618998597673373
0.060084129878837836,0.36415716137683224,301,30,22.282022900909727,7.618998597673373
0.06372500681015215,0.36415352038686144,301,30,22.282022900909727,7.618998597673373
0.06736582935224432,0.364149879454405,301,30,22.282022900909727,7.618998597673373
0.07100659888976094,0.3641462385778378,301,30,22.282022900909727,7.618998597673373
0.0746473167008397,0.36414259775565977,301,30,22.282022900909727,7.618998597673373
0.0782879839653043,0.36413895698648635,301,30,22.282022900909727,7.618998597673373
0.08192860177222906,0.3641353162690394,301,30,22.282022900909727,7.618998597673373
0.08556917112692114,0.364131675602139,301,30,22.282022900909727,7.618998597673373
0.08920969295736579,0.36412803498469615,301,30,22.282022900909727,7.618998597673373
0.09285016812017559,0.3641243944157055,301,30,22.282022900909727,7.618998597673373
0.09649059740608205,0.3641207538942391,301,30,22.282022900909727,7.618998597673373
0.1001309815450045,0.36411711341944036,301,30,22.282022900909727,7.618998597673373
0.10377132121072914,0.3641134729905185,301,30,22.282022900909727,7.618998597673373
0.107411617025228,0.3641098326067436,301,30,22.282022900909727,7.618998597673373
0.1110518695626456,0.36410619226744195,301,30,22.282022900909727,7.618998597673373
0.11469207935297883,0.3641025519719915,301,30,22.282022900909727,7.618998597673373
0.11833224688547385,0.3640989117198181,301,30,22.282022900909727,7.618998597673373
0.12197237261176139,0.3640952715103918,301,30,22.282022900909727,7.618998597673373
0.12561245694875098,0.3640916313432233,301,30,22.282022900909727,7.618998597673373
0.12925250028130256,0.36408799121786106,301,30,22.282022900909727,7.618998597673373
0.13289250296469218,0.3640843511338881,301,30,22.282022900909727,7.618998597673373
0.13653246532688854,0.36408071109091955,301,30,22.282022900909727,7.618998597673373
0.14017238767065374,0.36407707108860016,301,30,22.282022900909727,7.618998597673373
0.1438122702754831,0.36407343112660195,301,30,22.282022900909727,7.618998597673373
0.1474521133993949,0.36406979120462224,301,30,22.282022900909727,7.618998597673373
0.1510919172805832,0.3640661513223814,301,30,22.282022900909727,7.618998597673373
0.15473168213894295,0.3640625114796215,301,30,22.282022900909727,7.618998597673373
0.15837140817747813,0.3640588716761043,301,30,22.282022900909727,7.618998597673373
0.16201109558360116,0.3640552319116099,301,30,22.282022900909727,7.618998597673373
0.16565074453033263,0.36405159218593536,301,30,22.282022900909727,7.618998597673373
0.16929035517740884,0.3640479524988932,301,30,22.282022900909727,7.618998597673373
0.17292992767230342,0.3640443128503104,301,30,22.282022900909727,7.618998597673373
0.17656946215117134,0.3640406732400273,301,30,22.282022900909727,7.618998597673373
0.1802089587397195,0.3640370336678964,301,30,22.282022900909727,7.618998597673373
0.1838484175540108,0.3640333941337815,301,30,22.282022900909727,7.618998597673373
0.18748783870120594,0.3640297546375569,301,30,22.282022900909727,7.618998597673373
0.19112722228024848,0.36402611517910655,301,30,22.282022900909727,7.618998597673373
0.19476656838249717,0.3640224757583233,301,30,22.282022900909727,7.618998597673373
0.19840587709230956,0.36401883637510823,301,30,22.282022900909727,7.618998597673373
0.20204514848758034,0.3640151970293699,301,30,22.282022900909727,7.618998597673373
0.20568438264023903,0.364011557721024,301,30,22.282022900909727,7.618998597673373
0.20932357961670872,0.3640079184499927,301,30,22.282022900909727,7.618998597673373
0.21296273947832972,0.364004279216204,301,30,22.282022900909727,7.618998597673373
0.21660186228175074,0.3640006400195914,301,30,22.282022900909727,7.618998597673373
0.2202409480792899,0.36399700086009373,301,30,22.282022900909727,7.618998597673373
0.22387999691926788,0.36399336173765423,301,30,22.282022900909727,7.618998597673373
0.22751900884631532,0.3639897226522206,301,30,22.282022900909727,7.618998597673373
0.23115798390165695,0.3639860836037445,301,30,22.282022900909727,7.618998597673373
0.23479692212337366,0.3639824445921814,301,30,22.282022900909727,7.618998597673373
0.23843582354664425,0.36397880561748996,301,30,22.282022900909727,7.618998597673373
0.2420746882039689,0.36397516667963214,301,30,22.282022900909727,7.618998597673373
0.24571351612537493,0.3639715277785728,301,30,22.282022900909727,7.618998597673373
0.24935230733860755,0.36396788891427934,301,30,22.282022900909727,7.618998597673373
0.2529910618693051,0.36396425008672184,301,30,22.282022900909727,7.618998597673373
0.25662977974116113,0.3639606112958725,301,30,22.282022900909727,7.618998597673373
0.2602684609760742,0.36395697254170567,301,30,22.282022900909727,7.618998597673373
0.2639071055942862,0.3639533338241977,301,30,22.282022900909727,7.618998597673373
0.26754571361450913,0.36394969514332665,301,30,22.282022900909727,7.618998597673373
0.2711842850540435,0.3639460564990723,301,30,22.282022900909727,7.618998597673373
0.2748228199288867,0.36394241789141596,301,30,22.282022900909727,7.618998597673373
0.27846131825383313,0.3639387793203403,301,30,22.282022900909727,7.618998597673373
0.28209978004256686,0.3639351407858293,301,30,22.282022900909727,7.618998597673373
0.2857382053077471,0.3639315022878682,301,30,22.282022900909727,7.618998597673373
0.289376594061087,0.3639278638264433,301,30,22.282022900909727,7.618998597673373
0.29301494631342645,0.363924225401542,301,30,22.282022900909727,7.618998597673373
0.29665326207479936,0.3639205870131525,301,30,22.282022900909727,7.618998597673373
0.30029154135449565,0.363916948661264,301,30,22.282022900909727,7.618998597673373
0.30392978416111815,0.3639133103458665,301,30,22.282022900909727,7.618998597673373
0.30756799050263595,0.36390967206695063,301,30,22.282022900909727,7.618998597673373
0.31120616038643295,0.3639060338245078,301,30,22.282022900909727,7.618998597673373
0.31484429381935297,0.36390239561853016,301,30,22.282022900909727,7.618998597673373
0.318482390807741,0.3638987574490102,301,30,22.282022900909727,7.618998597673373
0.32212045135748213,0.36389511931594104,301,30,22.282022900909727,7.618998597673373
0.32575847547403625,0.36389148121931647,301,30,22.282022900909727,7.618998597673373
0.3293964631624715,0.3638878431591306,301,30,22.282022900909727,7.618998597673373
0.3330344144274939,0.36388420513537784,301,30,22.282022900909727,7.618998597673373
0.3366723292734751,0.36388056714805317,301,30,22.282022900909727,7.618998597673373
0.34031020770447873,0.363876929197152,301,30,22.282022900909727,7.618998597673373
0.3439480497242837,0.36387329128266976,301,30,22.282022900909727,7.618998597673373
0.34758585533640585,0.3638696534046026,301,30,22.282022900909727,7.618998597673373
0.3512236245441187,0.36386601556294657,301,30,22.282022900909727,7.618998597673373
0.3548613573504721,0.36386237775769825,301,30,22.282022900909727,7.618998597673373
0.3584990537583086,0.3638587399888543,301,30,22.282022900909727,7.618998597673373
0.36213671377028045,0.3638551022564117,301,30,22.282022900909727,7.618998597673373
0.36577433738886395,0.36385146456036765,301,30,22.282022900909727,7.618998597673373
0.3694119246163723,0.3638478269007195,301,30,22.282022900909727,7.618998597673373
0.37304947545496914,0.36384418927746465,301,30,22.282022900909727,7.618998597673373
0.37668698990667937,0.3638405516906009,301,30,22.282022900909727,7.618998597673373
0.3803244679734003,0.3638369141401261,301,30,22.282022900909727,7.618998597673373
0.38396190965691107,0.36383327662603815,301,30,22.282022900909727,7.618998597673373
0.3875993149588818,0.36382963914833516,301,30,22.282022900909727,7.618998597673373
0.3912366838808823,0.3638260017070154,301,30,22.282022900909727,7.618998597673373
0.39487401642438946,0.3638223643020772,301,30,22.282022900909727,7.618998597673373
0.3985113125907944,0.3638187269335189,301,30,22.282022900909727,7.618998597673373
0.40214857238140955,0.3638150896013392,301,30,22.282022900909727,7.618998597673373
0.4057857957974737,0.36381145230553646,301,30,22.282022900909727,7.618998597673373
0.4094229828401589,0.3638078150461096,301,30,22.282022900909727,7.618998597673373
0.4130601335105747,0.3638041778230573,301,30,22.282022900909727,7.618998597673373
0.4166972478097733,0.3638005406363783,301,30,22.282022900909727,7.618998597673373
0.4203343257387539,0.36379690348607163,301,30,22.282022900909727,7.618998597673373
0.4239713672984668,0.36379326637213616,301,30,22.282022900909727,7.618998597673373
0.4276083724898171,0.36378962929457087,301,30,22.282022900909727,7.618998597673373
0.4312453413136685,0.3637859922533749,301,30,22.282022900909727,7.618998597673373
0.4348822737708456,0.36378235524854724,301,30,22.282022900909727,7.618998597673373
0.4385191698621382,0.36377871828008707,301,30,22.282022900909727,7.618998597673373
0.4421560295883028,0.36377508134799363,301,30,22.282022900909727,7.618998597673373
0.4457928529500661,0.363771444452266,301,30,22.282022900909727,7.618998597673373
0.4494296399481264,0.36376780759290356,301,30,22.282022900909727,7.618998597673373
0.45306639058315656,0.36376417076990547,301,30,22.282022900909727,7.618998597673373
0.4567031048558055,0.3637605339832711,301,30,22.282022900909727,7.618998597673373
0.46033978276670035,0.36375689723299975,301,30,22.282022900909727,7.618998597673373
0.4639764243164476,0.3637532605190908,301,30,22.282022900909727,7.618998597673373
0.4676130295056354,0.3637496238415436,301,30,22.282022900909727,7.618998597673373
0.4712495983348344,0.3637459872003575,301,30,22.282022900909727,7.618998597673373
0.4748861308045992,0.36374235059553195,301,30,22.282022900909727,7.618998597673373
0.47852262691547004,0.3637387140270664,301,30,22.282022900909727,7.618998597673373
0.4821590866679734,0.3637350774949603,301,30,22.282022900909727,7.618998597673373
0.4857955100626232,0.3637314409992131,301,30,22.282022900909727,7.618998597673373
0.4894318970999216,0.36372780453982423,301,30,22.282022900909727,7.618998597673373
0.49306824778036035,0.36372416811679326,301,30,22.282022900909727,7.618998597673373
0.49670456210442127,0.3637205317301196,301,30,22.282022900909727,7.618998597673373
0.5003408400725771,0.3637168953798028,301,30,22.282022900909727,7.618998597673373
0.503977081685292,0.3637132590658424,301,30,22.282022900909727,7.618998597673373
0.5076132869430224,0.3637096227882379,301,30,22.282022900909727,7.618998597673373
0.5112494558462177,0.36370598654698877,301,30,22.282022900909727,7.618998597673373
0.5148855883953208,0.3637023503420947,301,30,22.282022900909727,7.618998597673373
0.5185216845907682,0.3636987141735551,301,30,22.282022900909727,7.618998597673373
0.522157744432991,0.36369507804136963,301,30,22.282022900909727,7.618998597673373
0.5257937679224148,0.3636914419455378,301,30,22.282022900909727,7.618998597673373
0.5294297550594608,0.3636878058860592,301,30,22.282022900909727,7.618998597673373
0.5330657058445453,0.3636841698629334,301,30,22.282022900909727,7.618998597673373
0.5367016202780811,0.36368053387615995,301,30,22.282022900909727,7.618998597673373
0.5403374983604765,0.36367689792573843,301,30,22.282022900909727,7.618998597673373
0.5439733400921369,0.3636732620116685,301,30,22.282022900909727,7.618998597673373
0.5476091454734645,0.3636696261339497,301,30,22.282022900909727,7.618998597673373
0.5512449145048581,0.3636659902925816,301,30,22.282022900909727,7.618998597673373
0.5548806471867139,0.3636623544875639,301,30,22.282022900909727,7.618998597673373
0.5585163435194259,0.3636587187188961,301,30,22.282022900909727,7.618998597673373
0.5621520035033852,0.36365508298657784,301,30,22.282022900909727,7.618998597673373
0.5657876271389812,0.36365144729060866,301,30,22.282022900909727,7.618998597673373
0.5694232144266012,0.3636478116309883,301,30,22.282022900909727,7.618998597673373
0.5730587653666305,0.36364417600771626,301,30,22.282022900909727,7.618998597673373
0.5766942799594528,0.3636405404207922,301,30,22.282022900909727,7.618998597673373
0.5803297582054504,0.36363690487021577,301,30,22.282022900909727,7.618998597673373
0.5839652001050041,0.3636332693559865,301,30,22.282022900909727,7.618998597673373
0.5876006056584928,0.36362963387810404,301,30,22.282022900909727,7.618998597673373
0.591235974866295,0.36362599843656807,301,30,22.282022900909727,7.618998597673373
0.5948713077287875,0.36362236303137807,301,30,22.282022900909727,7.618998597673373
0.5985066042463465,0.36361872766253384,301,30,22.282022900909727,7.618998597673373
0.6021418644193467,0.36361509233003486,301,30,22.282022900909727,7.618998597673373
0.6057770882481622,0.36361145703388087,301,30,22.282022900909727,7.618998597673373
0.6094122757331665,0.3636078217740714,301,30,22.282022900909727,7.618998597673373
0.6130474268747318,0.3636041865506061,301,30,22.282022900909727,7.618998597673373
0.6166825416732301,0.3636005513634846,301,30,22.282022900909727,7.618998597673373
0.6203176201290324,0.36359691621270657,301,30,22.282022900909727,7.618998597673373
0.6239526622425091,0.3635932810982716,301,30,22.282022900909727,7.618998597673373
0.6275876680140303,0.36358964602017935,301,30,22.282022900909727,7.618998597673373
0.6312226374439655,0.36358601097842935,301,30,22.282022900909727,7.618998597673373
0.6348575705326835,0.36358237597302134,301,30,22.282022900909727,7.618998597673373
0.6384924672805531,0.36357874100395493,301,30,22.282022900909727,7.618998597673373
0.642127327687942,0.36357510607122967,301,30,22.282022900909727,7.618998597673373
0.6457621517552184,0.36357147117484534,301,30,22.282022900909727,7.618998597673373
0.6493969394827498,0.36356783631480144,301,30,22.282022900909727,7.618998597673373
0.6530316908709028,0.36356420149109764,301,30,22.282022900909727,7.618998597673373
0.6566664059200445,0.3635605667037336,301,30,22.282022900909727,7.618998597673373
0.6603010846305415,0.36355693195270894,301,30,22.282022900909727,7.618998597673373
0.6639357270027595,0.36355329723802327,301,30,22.282022900909727,7.618998597673373
0.6675703330370654,0.36354966255967625,301,30,22.282022900909727,7.618998597673373
0.6712049027338244,0.3635460279176675,301,30,22.282022900909727,7.618998597673373
0.6748394360934025,0.36354239331199667,301,30,22.282022900909727,7.618998597673373
0.678473933116165,0.36353875874266334,301,30,22.282022900909727,7.618998597673373
0.6821083938024771,0.36353512420966727,301,30,22.282022900909727,7.618998597673373
0.685742818152704,0.3635314897130079,301,30,22.282022900909727,7.618998597673373
0.6893772061672107,0.3635278552526851,301,30,22.282022900909727,7.618998597673373
0.6930115578463619,0.3635242208286983,301,30,22.282022900909727,7.618998597673373
0.6966458731905224,0.36352058644104723,301,30,22.282022900909727,7.618998597673373
0.700280152200057,0.36351695208973156,301,30,22.282022900909727,7.618998597673373
0.7039143948753303,0.3635133177747508,301,30,22.282022900909727,7.618998597673373
0.7075486012167057,0.3635096834961047,301,30,22.282022900909727,7.618998597673373
0.7111827712245488,0.3635060492537929,301,30,22.282022900909727,7.618998597673373
0.7148169048992229,0.36350241504781494,301,30,22.282022900909727,7.618998597673373
0.7184510022410925,0.3634987808781705,301,30,22.282022900909727,7.618998597673373
0.7220850632505218,0.3634951467448593,301,30,22.282022900909727,7.618998597673373
0.7257190879278745,0.3634915126478808,301,30,22.282022900909727,7.618998597673373
0.7293530762735151,0.3634878785872348,301,30,22.282022900909727,7.618998597673373
0.7329870282878069,0.36348424456292083,301,30,22.282022900909727,7.618998597673373
0.7366209439711139,0.3634806105749386,301,30,22.282022900909727,7.618998597673373
0.7402548233237998,0.3634769766232877,301,30,22.282022900909727,7.618998597673373
0.7438886663462283,0.36347334270796783,301,30,22.282022900909727,7.618998597673373
0.7475224730387634,0.3634697088289785,301,30,22.282022900909727,7.618998597673373
0.7511562434017686,0.3634660749863195,301,30,22.282022900909727,7.618998597673373
0.7547899774356073,0.3634624411799903,301,30,22.282022900909727,7.618998597673373
0.7584236751406431,0.3634588074099907,301,30,22.282022900909727,7.618998597673373
0.7620573365172398,0.36345517367632024,301,30,22.282022900909727,7.618998597673373
0.7656909615657609,0.3634515399789786,301,30,22.282022900909727,7.618998597673373
0.7693245502865695,0.36344790631796536,301,30,22.282022900909727,7.618998597673373
0.7729581026800298,0.3634442726932802,301,30,22.282022900909727,7.618998597673373
0.7765916187465046,0.3634406391049228,301,30,22.282022900909727,7.618998597673373
0.7802250984863576,0.36343700555289266,301,30,22.282022900909727,7.618998597673373
0.783858541899952,0.36343337203718956,301,30,22.282022900909727,7.618998597673373
0.7874919489876513,0.3634297385578131,301,30,22.282022900909727,7.618998597673373
0.7911253197498187,0.3634261051147628,301,30,22.282022900909727,7.618998597673373
0.7947586541868179,0.3634224717080385,301,30,22.282022900909727,7.618998597673373
0.7983919522990118,0.36341883833763966,301,30,22.282022900909727,7.618998597673373
0.8020252140867639,0.363415205003566,301,30,22.282022900909727,7.618998597673373
0.8056584395504374,0.3634115717058171,301,30,22.282022900909727,7.618998597673373
0.8092916286903956,0.36340793844439273,301,30,22.282022900909727,7.618998597673373
0.8129247815070019,0.36340430521929235,301,30,22.282022900909727,7.618998597673373
0.8165578980006193,0.36340067203051574,301,30,22.282022900909727,7.618998597673373
0.8201909781716115,0.36339703887806246,301,30,22.282022900909727,7.618998597673373
0.8238240220203413,0.36339340576193213,301,30,22.282022900909727,7.618998597673373
0.827457029547172,0.36338977268212447,301,30,22.282022900909727,7.618998597673373
0.8310900007524669,0.3633861396386391,301,30,22.282022900909727,7.618998597673373
0.834722935636589,0.36338250663147553,301,30,22.282022900909727,7.618998597673373
0.8383558341999019,0.36337887366063354,301,30,22.282022900909727,7.618998597673373
0.8419886964427684,0.3633752407261127,301,30,22.282022900909727,7.618998597673373
0.8456215223655518,0.3633716078279127,301,30,22.282022900909727,7.618998597673373
0.8492543119686152,0.3633679749660331,301,30,22.282022900909727,7.618998597673373
0.8528870652523217,0.36336434214047364,301,30,22.282022900909727,7.618998597673373
0.8565197822170347,0.3633607093512339,301,30,22.282022900909727,7.618998597673373
0.8601524628631173,0.36335707659831346,301,30,22.282022900909727,7.618998597673373
0.8637851071909326,0.36335344388171203,301,30,22.282022900909727,7.618998597673373
