Vout,Iout,Irradiance,Temperature,MaxVoltage,MaxPower
0.004605705714368131,0.92115,801,0,20.089022603993623,18.10179448127993
0.013817031979246608,0.92115,801,0,20.089022603993623,18.10179448127993
0.023028170980172534,0.9211453021792857,801,0,20.089022603993623,18.10179448127993
0.0322390892625028,0.9211360908530207,801,0,20.089022603993623,18.10179448127993
0.04144977589267965,0.9211268797144896,801,0,20.089022603993623,18.10179448127993
0.0506602416109322,0.9211176687971284,801,0,20.089022603993623,18.10179448127993
0.05987049633149637,0.9211084581114194,801,0,20.089022603993623,18.10179448127993
0.06908054920596411,0.9210992476466222,801,0,20.089022603993623,18.10179448127993
0.0782904086818603,0.9210900373928227,801,0,20.089022603993623,18.10179448127993
0.08750008255681481,0.9210808273408693,801,0,20.089022603993623,18.10179448127993
0.09670957802856645,0.9210716174823145,801,0,20.089022603993623,18.10179448127993
0.10591890174111945,0.9210624078093604,801,0,20.089022603993623,18.10179448127993
0.11512805982734885,0.9210531983148097,801,0,20.089022603993623,18.10179448127993
0.12433705794832733,0.9210439889920181,801,0,20.089022603993623,18.10179448127993
0.13354590132962665,0.9210347798348528,801,0,20.089022603993623,18.10179448127993
0.1427545947948256,0.9210255708376528,801,0,20.089022603993623,18.10179448127993
0.15196314279644016,0.9210163619951924,801,0,20.089022603993623,18.10179448127993
0.16117154944447337,0.9210071533026482,801,0,20.089022603993623,18.10179448127993
0.17037981853276918,0.9209979447555674,801,0,20.089022603993623,18.10179448127993
0.17958795356333793,0.9209887363498402,801,0,20.089022603993623,18.10179448127993
0.18879595776881047,0.9209795280816728,801,0,20.089022603993623,18.10179448127993
0.19800383413316505,0.9209703199475631,801,0,20.089022603993623,18.10179448127993
0.20721158541085852,0.9209611119442784,801,0,20.089022603993623,18.10179448127993
0.21641921414448645,0.9209519040688349,801,0,20.089022603993623,18.10179448127993
0.22562672268108366,0.920942696318478,801,0,20.089022603993623,18.10179448127993
0.23483411318717154,0.9209334886906652,801,0,20.089022603993623,18.10179448127993
0.24404138766264652,0.9209242811830493,801,0,20.089022603993623,18.10179448127993
0.2532485479536007,0.9209150737934639,801,0,20.089022603993623,18.10179448127993
0.2624555957641557,0.9209058665199092,801,0,20.089022603993623,18.10179448127993
0.2716625326673865,0.920896659360539,801,0,20.089022603993623,18.10179448127993
0.2808693601154033,0.9208874523136492,801,0,20.089022603993623,18.10179448127993
0.29007607944866015,0.9208782453776667,801,0,20.089022603993623,18.10179448127993
0.2992826919045449,0.9208690385511394,801,0,20.089022603993623,18.10179448127993
0.3084891986253097,0.9208598318327268,801,0,20.089022603993623,18.10179448127993
0.317695600665391,0.9208506252211917,801,0,20.089022603993623,18.10179448127993
0.32690189899816563,0.9208414187153915,801,0,20.089022603993623,18.10179448127993
0.3361080945221885,0.9208322123142721,801,0,20.089022603993623,18.10179448127993
0.34531418806694886,0.92082300601686,801,0,20.089022603993623,18.10179448127993
0.35452018039818456,0.9208137998222566,801,0,20.089022603993623,18.10179448127993
0.36372607222278724,0.9208045937296325,801,0,20.089022603993623,18.10179448127993
0.3729318641933299,0.9207953877382219,801,0,20.089022603993623,18.10179448127993
0.3821375569122465,0.9207861818473179,801,0,20.089022603993623,18.10179448127993
0.3913431509356893,0.920776976056268,801,0,20.089022603993623,18.10179448127993
0.4005486467770903,0.9207677703644696,801,0,20.089022603993623,18.10179448127993
0.409754044910448,0.9207585647713667,801,0,20.089022603993623,18.10179448127993
0.4189593457733616,0.9207493592764459,801,0,20.089022603993623,18.10179448127993
0.42816454976983126,0.9207401538792331,801,0,20.089022603993623,18.10179448127993
0.43736965727284366,0.9207309485792907,801,0,20.089022603993623,18.10179448127993
0.4465746686267582,0.9207217433762148,801,0,20.089022603993623,18.10179448127993
0.4557795841495093,0.9207125382696323,801,0,20.089022603993623,18.10179448127993
0.4649844041346398,0.920703333259199,801,0,20.089022603993623,18.10179448127993
0.474189128853178,0.9206941283445967,801,0,20.089022603993623,18.10179448127993
0.48339375855536926,0.9206849235255321,801,0,20.089022603993623,18.10179448127993
0.4925982934722756,0.920675718801734,801,0,20.089022603993623,18.10179448127993
0.5018027338172514,0.9206665141729523,801,0,20.089022603993623,18.10179448127993
0.5110070797873063,0.9206573096389559,801,0,20.089022603993623,18.10179448127993
0.5202113315643624,0.9206481051995313,801,0,20.089022603993623,18.10179448127993
0.5294154893164149,0.9206389008544817,801,0,20.089022603993623,18.10179448127993
0.5386195531986043,0.9206296966036251,801,0,20.089022603993623,18.10179448127993
0.5478235233542049,0.9206204924467936,801,0,20.089022603993623,18.10179448127993
0.5570273999155383,0.9206112883838318,801,0,20.089022603993623,18.10179448127993
0.5662311830048157,0.9206020844145966,801,0,20.089022603993623,18.10179448127993
0.5754348727349156,0.9205928805389556,801,0,20.089022603993623,18.10179448127993
0.5846384692101028,0.9205836767567868,801,0,20.089022603993623,18.10179448127993
0.5938419725266902,0.920574473067977,801,0,20.089022603993623,18.10179448127993
0.6030453827736514,0.9205652694724222,801,0,20.089022603993623,18.10179448127993
0.6122487000331845,0.920556065970026,801,0,20.089022603993623,18.10179448127993
0.6214519243812343,0.9205468625606994,801,0,20.089022603993623,18.10179448127993
0.630655055887973,0.9205376592443603,801,0,20.089022603993623,18.10179448127993
0.639858094618244,0.9205284560209326,801,0,20.089022603993623,18.10179448127993
0.6490610406319729,0.9205192528903461,801,0,20.089022603993623,18.10179448127993
0.6582638939845448,0.9205100498525361,801,0,20.089022603993623,18.10179448127993
0.6674666547271546,0.9205008469074427,801,0,20.089022603993623,18.10179448127993
0.6766693229071287,0.9204916440550105,801,0,20.089022603993623,18.10179448127993
0.685871898568223,0.9204824412951882,801,0,20.089022603993623,18.10179448127993
0.6950743817508973,0.9204732386279285,801,0,20.089022603993623,18.10179448127993
0.7042767724925693,0.9204640360531877,801,0,20.089022603993623,18.10179448127993
0.7134790708278486,0.9204548335709253,801,0,20.089022603993623,18.10179448127993
0.7226812767887523,0.9204456311811039,801,0,20.089022603993623,18.10179448127993
0.7318833904049051,0.9204364288836888,801,0,20.089022603993623,18.10179448127993
0.7410854117037232,0.9204272266786482,801,0,20.089022603993623,18.10179448127993
0.7502873407105839,0.9204180245659522,801,0,20.089022603993623,18.10179448127993
0.7594891774489826,0.9204088225455737,801,0,20.089022603993623,18.10179448127993
0.7686909219406779,0.920399620617487,801,0,20.089022603993623,18.10179448127993
0.7778925742058247,0.9203904187816688,801,0,20.089022603993623,18.10179448127993
0.7870941342630984,0.9203812170380973,801,0,20.089022603993623,18.10179448127993
0.7962956021298078,0.9203720153867523,801,0,20.089022603993623,18.10179448127993
0.805496977822001,0.9203628138276152,801,0,20.089022603993623,18.10179448127993
0.8146982613545619,0.9203536123606687,801,0,20.089022603993623,18.10179448127993
0.8238994527412998,0.9203444109858966,801,0,20.089022603993623,18.10179448127993
0.8331005519950329,0.9203352097032842,801,0,20.089022603993623,18.10179448127993
0.8423015591276632,0.9203260085128177,801,0,20.089022603993623,18.10179448127993
0.851502474150248,0.9203168074144841,801,0,20.089022603993623,18.10179448127993
0.8607032970730647,0.9203076064082715,801,0,20.089022603993623,18.10179448127993
0.8699040279056702,0.9202984054941691,801,0,20.089022603993623,18.10179448127993
0.8791046666569576,0.9202892046721663,801,0,20.089022603993623,18.10179448127993
0.8883052133352056,0.9202800039422538,801,0,20.089022603993623,18.10179448127993
0.8975056679481276,0.9202708033044226,801,0,20.089022603993623,18.10179448127993
0.9067060305029138,0.9202616027586644,801,0,20.089022603993623,18.10179448127993
0.9159063010062716,0.9202524023049715,801,0,20.089022603993623,18.10179448127993
0.9251064794644634,0.9202432019433369,801,0,20.089022603993623,18.10179448127993
0.9343065658833407,0.9202340016737536,801,0,20.089022603993623,18.10179448127993
0.9435065602683753,0.9202248014962153,801,0,20.089022603993623,18.10179448127993
0.9527064626246887,0.9202156014107166,801,0,20.089022603993623,18.10179448127993
0.9619062729570793,0.9202064014172515,801,0,20.089022603993623,18.10179448127993
0.9711059912700467,0.9201972015158152,801,0,20.089022603993623,18.10179448127993
0.9803056175678155,0.9201880017064028,801,0,20.089022603993623,18.10179448127993
0.9895051518543557,0.9201788019890098,801,0,20.089022603993623,18.10179448127993
0.9987045941334025,0.920169602363632,801,0,20.089022603993623,18.10179448127993
1.0079039444084745,0.9201604028302655,801,0,20.089022603993623,18.10179448127993
1.0171032026828903,0.9201512033889064,801,0,20.089022603993623,18.10179448127993
1.0263023689597846,0.9201420040395513,801,0,20.089022603993623,18.10179448127993
1.03550144324212,0.9201328047821968,801,0,20.089022603993623,18.10179448127993
1.044700425532704,0.9201236056168398,801,0,20.089022603993623,18.10179448127993
1.0538993158341974,0.9201144065434774,801,0,20.089022603993623,18.10179448127993
1.0630981141491267,0.9201052075621068,801,0,20.089022603993623,18.10179448127993
1.0722968204798964,0.9200960086727251,801,0,20.089022603993623,18.10179448127993
1.081495434828795,0.9200868098753301,801,0,20.089022603993623,18.10179448127993
1.0906939571980068,0.9200776111699193,801,0,20.089022603993623,18.10179448127993
1.0998923875896183,0.9200684125564902,801,0,20.089022603993623,18.10179448127993
1.1090907260056257,0.9200592140350409,801,0,20.089022603993623,18.10179448127993
1.118288972447944,0.9200500156055692,801,0,20.089022603993623,18.10179448127993
1.1274871269184092,0.920040817268073,801,0,20.089022603993623,18.10179448127993
1.136685189418789,0.9200316190225505,801,0,20.089022603993623,18.10179448127993
1.1458831599507844,0.9200224208689999,801,0,20.089022603993623,18.10179448127993
1.1550810385160368,0.9200132228074194,801,0,20.089022603993623,18.10179448127993
1.164278825116132,0.9200040248378072,801,0,20.089022603993623,18.10179448127993
1.1734765197526043,0.9199948269601617,801,0,20.089022603993623,18.10179448127993
1.1826741224269413,0.9199856291744815,801,0,20.089022603993623,18.10179448127993
1.191871633140586,0.9199764314807647,801,0,20.089022603993623,18.10179448127993
1.2010690518949418,0.9199672338790101,801,0,20.089022603993623,18.10179448127993
1.2102663786913745,0.9199580363692162,801,0,20.089022603993623,18.10179448127993
1.2194636135312151,0.9199488389513817,801,0,20.089022603993623,18.10179448127993
1.228660756415764,0.919939641625505,801,0,20.089022603993623,18.10179448127993
1.2378578073462918,0.9199304443915849,801,0,20.089022603993623,18.10179448127993
1.2470547663240414,0.9199212472496201,801,0,20.089022603993623,18.10179448127993
1.2562516333502316,0.9199120501996093,801,0,20.089022603993623,18.10179448127993
1.2654484084260578,0.9199028532415513,801,0,20.089022603993623,18.10179448127993
1.2746450915526943,0.9198936563754447,801,0,20.089022603993623,18.10179448127993
1.2838416827312957,0.9198844596012886,801,0,20.089022603993623,18.10179448127993
1.2930381819629988,0.9198752629190817,801,0,20.089022603993623,18.10179448127993
1.3022345892489224,0.9198660663288227,801,0,20.089022603993623,18.10179448127993
1.3114309045901715,0.9198568698305107,801,0,20.089022603993623,18.10179448127993
1.3206271279878363,0.9198476734241444,801,0,20.089022603993623,18.10179448127993
1.3298232594429933,0.9198384771097229,801,0,20.089022603993623,18.10179448127993
1.3390192989567071,0.9198292808872448,801,0,20.089022603993623,18.10179448127993
1.3482152465300323,0.9198200847567093,801,0,20.089022603993623,18.10179448127993
1.357411102164011,0.9198108887181152,801,0,20.089022603993623,18.10179448127993
1.3666068658596775,0.9198016927714615,801,0,20.089022603993623,18.10179448127993
1.375802537618056,0.9197924969167471,801,0,20.089022603993623,18.10179448127993
1.3849981174401633,0.9197833011539711,801,0,20.089022603993623,18.10179448127993
1.3941936053270094,0.9197741054831323,801,0,20.089022603993623,18.10179448127993
1.4033890012795958,0.9197649099042298,801,0,20.089022603993623,18.10179448127993
1.4125843052989187,0.9197557144172624,801,0,20.089022603993623,18.10179448127993
1.421779517385968,0.9197465190222295,801,0,20.089022603993623,18.10179448127993
1.4309746375417276,0.9197373237191296,801,0,20.089022603993623,18.10179448127993
1.4401696657671774,0.9197281285079622,801,0,20.089022603993623,18.10179448127993
1.4493646020632924,0.9197189333887259,801,0,20.089022603993623,18.10179448127993
1.458559446431043,0.91970973836142,801,0,20.089022603993623,18.10179448127993
1.4677541988713951,0.9197005434260433,801,0,20.089022603993623,18.10179448127993
1.476948859385312,0.9196913485825952,801,0,20.089022603993623,18.10179448127993
1.4861434279737533,0.9196821538310743,801,0,20.089022603993623,18.10179448127993
1.4953379046376754,0.9196729591714798,801,0,20.089022603993623,18.10179448127993
1.5045322893780315,0.9196637646038109,801,0,20.089022603993623,18.10179448127993
1.5137265821957726,0.9196545701280664,801,0,20.089022603993623,18.10179448127993
1.5229207830918468,0.9196453757442455,801,0,20.089022603993623,18.10179448127993
1.5321148920672003,0.9196361814523473,801,0,20.089022603993623,18.10179448127993
1.541308909122777,0.9196269872523706,801,0,20.089022603993623,18.10179448127993
1.5505028342595193,0.9196177931443147,801,0,20.089022603993623,18.10179448127993
1.5596966674783674,0.9196085991281785,801,0,20.089022603993623,18.10179448127993
1.5688904087802598,0.9195994052039612,801,0,20.089022603993623,18.10179448127993
1.5780840581661335,0.9195902113716617,801,0,20.089022603993623,18.10179448127993
1.5872776156369244,0.9195810176312792,801,0,20.089022603993623,18.10179448127993
1.5964710811935672,0.9195718239828128,801,0,20.089022603993623,18.10179448127993
1.6056644548369943,0.9195626304262613,801,0,20.089022603993623,18.10179448127993
1.6148577365681382,0.9195534369616241,801,0,20.089022603993623,18.10179448127993
1.6240509263879301,0.9195442435889,801,0,20.089022603993623,18.10179448127993
1.6332440242973003,0.9195350503080882,801,0,20.089022603993623,18.10179448127993
1.6424370302971776,0.9195258571191878,801,0,20.089022603993623,18.10179448127993
1.651629944388491,0.9195166640221977,801,0,20.089022603993623,18.10179448127993
1.6608227665721675,0.9195074710171172,801,0,20.089022603993623,18.10179448127993
1.670015496849135,0.9194982781039451,801,0,20.089022603993623,18.10179448127993
1.6792081352203188,0.9194890852826808,801,0,20.089022603993623,18.10179448127993
1.6884006816866453,0.9194798925533231,801,0,20.089022603993623,18.10179448127993
1.6975931362490393,0.9194706999158712,801,0,20.089022603993623,18.10179448127993
1.7067854989084266,0.9194615073703242,801,0,20.089022603993623,18.10179448127993
1.7159777696657306,0.919452314916681,801,0,20.089022603993623,18.10179448127993
1.7251699485218752,0.9194431225549409,801,0,20.089022603993623,18.10179448127993
1.734362035477784,0.9194339302851028,801,0,20.089022603993623,18.10179448127993
1.7435540305343802,0.9194247381071659,801,0,20.089022603993623,18.10179448127993
1.752745933692586,0.9194155460211292,801,0,20.089022603993623,18.10179448127993
1.7619377449533242,0.9194063540269918,801,0,20.089022603993623,18.10179448127993
1.7711294643175175,0.9193971621247529,801,0,20.089022603993623,18.10179448127993
1.7803210917860868,0.9193879703144113,801,0,20.089022603993623,18.10179448127993
1.7895126273599542,0.9193787785959663,801,0,20.089022603993623,18.10179448127993
1.7987040710400415,0.919369586969417,801,0,20.089022603993623,18.10179448127993
1.807895422827269,0.9193603954347622,801,0,20.089022603993623,18.10179448127993
1.8170866827225582,0.9193512039920013,801,0,20.089022603993623,18.10179448127993
1.8262778507268298,0.9193420126411332,801,0,20.089022603993623,18.10179448127993
1.835468926841005,0.9193328213821571,801,0,20.089022603993623,18.10179448127993
1.844659911066003,0.9193236302150719,801,0,20.089022603993623,18.10179448127993
1.8538508034027452,0.9193144391398769,801,0,20.089022603993623,18.10179448127993
1.8630416038521516,0.919305248156571,801,0,20.089022603993623,18.10179448127993
1.8722323124151417,0.9192960572651534,801,0,20.089022603993623,18.10179448127993
1.8814229290926356,0.9192868664656231,801,0,20.089022603993623,18.10179448127993
1.8906134538855535,0.9192776757579791,801,0,20.089022603993623,18.10179448127993
1.899803886794815,0.9192684851422207,801,0,20.089022603993623,18.10179448127993
1.9089942278213392,0.9192592946183469,801,0,20.089022603993623,18.10179448127993
1.918184476966047,0.9192501041863567,801,0,20.089022603993623,18.10179448127993
1.9273746342298566,0.9192409138462492,801,0,20.089022603993623,18.10179448127993
1.9365646996136876,0.9192317235980235,801,0,20.089022603993623,18.10179448127993
1.9457546731184596,0.9192225334416788,801,0,20.089022603993623,18.10179448127993
1.954944554745092,0.9192133433772139,801,0,20.089022603993623,18.10179448127993
1.9641343444945036,0.9192041534046282,801,0,20.089022603993623,18.10179448127993
1.973324042367614,0.9191949635239206,801,0,20.089022603993623,18.10179448127993
1.9825136483653418,0.9191857737350901,801,0,20.089022603993623,18.10179448127993
1.991703162488606,0.9191765840381361,801,0,20.089022603993623,18.10179448127993
2.000892584738326,0.9191673944330573,801,0,20.089022603993623,18.10179448127993
2.0100819151154203,0.919158204919853,801,0,20.089022603993623,18.10179448127993
2.0192711536208083,0.9191490154985222,801,0,20.089022603993623,18.10179448127993
2.0284603002554085,0.9191398261690641,801,0,20.089022603993623,18.10179448127993
2.0376493550201396,0.9191306369314777,801,0,20.089022603993623,18.10179448127993
2.0468383179159213,0.919121447785762,801,0,20.089022603993623,18.10179448127993
2.056027188943671,0.9191122587319162,801,0,20.089022603993623,18.10179448127993
2.065215968104309,0.9191030697699393,801,0,20.089022603993623,18.10179448127993
2.074404655398752,0.9190938808998305,801,0,20.089022603993623,18.10179448127993
2.0835932508279207,0.9190846921215887,801,0,20.089022603993623,18.10179448127993
2.0927817543927323,0.9190755034352132,801,0,20.089022603993623,18.10179448127993
2.1019701660941066,0.9190663148407029,801,0,20.089022603993623,18.10179448127993
2.111158485932961,0.9190571263380569,801,0,20.089022603993623,18.10179448127993
2.120346713910214,0.9190479379272745,801,0,20.089022603993623,18.10179448127993
2.1295348500267854,0.9190387496083544,801,0,20.089022603993623,18.10179448127993
2.138722894283593,0.919029561381296,801,0,20.089022603993623,18.10179448127993
2.1479108466815546,0.9190203732460983,801,0,20.089022603993623,18.10179448127993
2.157098707221591,0.9190111852027603,801,0,20.089022603993623,18.10179448127993
2.1662864759046183,0.9190019972512812,801,0,20.089022603993623,18.10179448127993
2.1754741527315558,0.91899280939166,801,0,20.089022603993623,18.10179448127993
2.184661737703322,0.9189836216238957,801,0,20.089022603993623,18.10179448127993
2.193849230820835,0.9189744339479875,801,0,20.089022603993623,18.10179448127993
2.2030366320850137,0.9189652463639345,801,0,20.089022603993623,18.10179448127993
2.212223941496777,0.9189560588717358,801,0,20.089022603993623,18.10179448127993
2.221411159057041,0.9189468714713904,801,0,20.089022603993623,18.10179448127993
2.2305982847667267,0.9189376841628973,801,0,20.089022603993623,18.10179448127993
2.239785318626751,0.9189284969462559,801,0,20.089022603993623,18.10179448127993
