Vout,Iout,Irradiance,Temperature,MaxVoltage,MaxPower
0.011166092633724676,2.23324,1801,45,22.912249423358432,50.5793173173425
0.03349807142955294,2.23324,1801,45,22.912249423358432,50.5793173173425
0.05582959622185367,2.233228610583366,1801,45,22.912249423358432,50.5793173173425
0.078160585903047,2.2332062786045705,1801,45,22.912249423358432,50.5793173173425
0.10049101396576875,2.233183947080917,1801,45,22.912249423358432,50.5793173173425
0.12282090644867634,2.233161616093469,1801,45,22.912249423358432,50.5793173173425
0.14515028738788574,2.2331392856676393,1801,45,22.912249423358432,50.5793173173425
0.16747917897055556,2.2331169557773896,1801,45,22.912249423358432,50.5793173173425
0.18980760167690128,2.2330946263986835,1801,45,22.912249423358432,50.5793173173425
0.2121355744115302,2.2330722975093336,1801,45,22.912249423358432,50.5793173173425
0.2344631146246709,2.2330499690888606,1801,45,22.912249423358432,50.5793173173425
0.25679023842407595,2.2330276411183587,1801,45,22.912249423358432,50.5793173173425
0.27911696067831354,2.2330053135803785,1801,45,22.912249423358432,50.5793173173425
0.30144329511211254,2.2329829864588118,1801,45,22.912249423358432,50.5793173173425
0.32376925439437165,2.23296065973879,1801,45,22.912249423358432,50.5793173173425
0.3460948502193957,2.2329383334065893,1801,45,22.912249423358432,50.5793173173425
0.36842009338188353,2.2329160074495396,1801,45,22.912249423358432,50.5793173173425
0.3907449938461442,2.232893681855947,1801,45,22.912249423358432,50.5793173173425
0.4130695608099891,2.2328713566150173,1801,45,22.912249423358432,50.5793173173425
0.43539380276370704,2.2328490317167855,1801,45,22.912249423358432,50.5793173173425
0.45771772754450235,2.2328267071520544,1801,45,22.912249423358432,50.5793173173425
0.48004134238674434,2.232804382912333,1801,45,22.912249423358432,50.5793173173425
0.5023646539683502,2.232782058989785,1801,45,22.912249423358432,50.5793173173425
0.5246876684535993,2.232759735377175,1801,45,22.912249423358432,50.5793173173425
0.547010391532653,2.232737412067826,1801,45,22.912249423358432,50.5793173173425
0.569332828458035,2.232715089055573,1801,45,22.912249423358432,50.5793173173425
0.591654984078303,2.232692766334726,1801,45,22.912249423358432,50.5793173173425
0.61397686286913,2.232670443900033,1801,45,22.912249423358432,50.5793173173425
0.6362984689619966,2.232648121746645,1801,45,22.912249423358432,50.5793173173425
0.6586198061706713,2.2326257998700862,1801,45,22.912249423358432,50.5793173173425
0.6809408780156577,2.232603478266226,1801,45,22.912249423358432,50.5793173173425
0.7032616877467572,2.232581156931249,1801,45,22.912249423358432,50.5793173173425
0.7255822383638991,2.2325588358616364,1801,45,22.912249423358432,50.5793173173425
0.7479025326363639,2.2325365150541376,1801,45,22.912249423358432,50.5793173173425
0.7702225731205314,2.2325141945057525,1801,45,22.912249423358432,50.5793173173425
0.7925423621762616,2.232491874213712,1801,45,22.912249423358432,50.5793173173425
0.8148619019820138,2.23246955417546,1801,45,22.912249423358432,50.5793173173425
0.8371811945488059,2.232447234388636,1801,45,22.912249423358432,50.5793173173425
0.8595002417330961,2.2324249148510624,1801,45,22.912249423358432,50.5793173173425
0.8818190452486752,2.232402595560728,1801,45,22.912249423358432,50.5793173173425
0.9041376066776443,2.232380276515775,1801,45,22.912249423358432,50.5793173173425
0.9264559274805463,2.2323579577144916,1801,45,22.912249423358432,50.5793173173425
0.9487740090057196,2.2323356391552944,1801,45,22.912249423358432,50.5793173173425
0.9710918524979308,2.2323133208367234,1801,45,22.912249423358432,50.5793173173425
0.9934094591063442,2.2322910027574303,1801,45,22.912249423358432,50.5793173173425
1.0157268298918762,2.23226868491617,1801,45,22.912249423358432,50.5793173173425
1.0380439658339877,2.2322463673117934,1801,45,22.912249423358432,50.5793173173425
1.0603608678369485,2.2322240499432393,1801,45,22.912249423358432,50.5793173173425
1.0826775367356252,2.2322017328095294,1801,45,22.912249423358432,50.5793173173425
1.1049939733008194,2.232179415909758,1801,45,22.912249423358432,50.5793173173425
1.1273101782441977,2.232157099243091,1801,45,22.912249423358432,50.5793173173425
1.149626152222842,2.2321347828087577,1801,45,22.912249423358432,50.5793173173425
1.1719418958434484,2.2321124666060457,1801,45,22.912249423358432,50.5793173173425
1.1942574096662042,2.2320901506342987,1801,45,22.912249423358432,50.5793173173425
1.2165726942083679,2.2320678348929097,1801,45,22.912249423358432,50.5793173173425
1.2388877499475694,2.2320455193813187,1801,45,22.912249423358432,50.5793173173425
1.2612025773248616,2.2320232040990082,1801,45,22.912249423358432,50.5793173173425
1.2835171767475329,2.2320008890455005,1801,45,22.912249423358432,50.5793173173425
1.3058315485917065,2.2319785742203546,1801,45,22.912249423358432,50.5793173173425
1.328145693204738,2.2319562596231632,1801,45,22.912249423358432,50.5793173173425
1.350459610907427,2.2319339452535507,1801,45,22.912249423358432,50.5793173173425
1.3727733019960633,2.2319116311111693,1801,45,22.912249423358432,50.5793173173425
1.3950867667443108,2.231889317195698,1801,45,22.912249423358432,50.5793173173425
1.4174000054049498,2.231867003506841,1801,45,22.912249423358432,50.5793173173425
1.439713018211481,2.231844690044324,1801,45,22.912249423358432,50.5793173173425
1.4620258053796118,2.2318223768078944,1801,45,22.912249423358432,50.5793173173425
1.4843383671086243,2.231800063797319,1801,45,22.912249423358432,50.5793173173425
1.506650703582639,2.2317777510123826,1801,45,22.912249423358432,50.5793173173425
1.528962814971782,2.231755438452885,1801,45,22.912249423358432,50.5793173173425
1.5512747014332597,2.231733126118642,1801,45,22.912249423358432,50.5793173173425
1.5735863631123566,2.2317108140094843,1801,45,22.912249423358432,50.5793173173425
1.595897800143348,2.231688502125254,1801,45,22.912249423358432,50.5793173173425
1.6182090126503512,2.231666190465806,1801,45,22.912249423358432,50.5793173173425
1.6405200007481042,2.2316438790310063,1801,45,22.912249423358432,50.5793173173425
1.6628307645426899,2.2316215678207305,1801,45,22.912249423358432,50.5793173173425
1.6851413041321976,2.2315992568348637,1801,45,22.912249423358432,50.5793173173425
1.7074516196073448,2.2315769460733006,1801,45,22.912249423358432,50.5793173173425
1.7297617110520376,2.231554635535942,1801,45,22.912249423358432,50.5793173173425
1.7520715785438998,2.2315323252226977,1801,45,22.912249423358432,50.5793173173425
1.7743812221547528,2.2315100151334843,1801,45,22.912249423358432,50.5793173173425
1.7966906419510646,2.2314877052682234,1801,45,22.912249423358432,50.5793173173425
1.81899983799436,2.2314653956268438,1801,45,22.912249423358432,50.5793173173425
1.8413088103416013,2.2314430862092784,1801,45,22.912249423358432,50.5793173173425
1.8636175590455402,2.231420777015466,1801,45,22.912249423358432,50.5793173173425
1.8859260841550407,2.2313984680453496,1801,45,22.912249423358432,50.5793173173425
1.9082343857153792,2.231376159298877,1801,45,22.912249423358432,50.5793173173425
1.9305424637685196,2.231353850775998,1801,45,22.912249423358432,50.5793173173425
1.9528503183533683,2.2313315424766684,1801,45,22.912249423358432,50.5793173173425
1.9751579495060099,2.2313092344008463,1801,45,22.912249423358432,50.5793173173425
1.9974653572599255,2.2312869265484925,1801,45,22.912249423358432,50.5793173173425
2.0197725416461885,2.2312646189195706,1801,45,22.912249423358432,50.5793173173425
2.0420795026936567,2.2312423115140474,1801,45,22.912249423358432,50.5793173173425
2.064386240429137,2.2312200043318917,1801,45,22.912249423358432,50.5793173173425
2.0866927548775447,2.231197697373075,1801,45,22.912249423358432,50.5793173173425
2.108999046062052,2.23117539063757,1801,45,22.912249423358432,50.5793173173425
2.131305114004216,2.2311530841253524,1801,45,22.912249423358432,50.5793173173425
2.1536109587241112,2.2311307778363987,1801,45,22.912249423358432,50.5793173173425
2.1759165802404348,2.2311084717706873,1801,45,22.912249423358432,50.5793173173425
2.19822197857062,2.231086165928198,1801,45,22.912249423358432,50.5793173173425
2.220527153730929,2.2310638603089123,1801,45,22.912249423358432,50.5793173173425
2.2428321057365443,2.231041554912813,1801,45,22.912249423358432,50.5793173173425
2.265136834601652,2.231019249739883,1801,45,22.912249423358432,50.5793173173425
2.287441340339517,2.2309969447901077,1801,45,22.912249423358432,50.5793173173425
2.309745622962557,2.230974640063473,1801,45,22.912249423358432,50.5793173173425
2.3320496824824053,2.230952335559966,1801,45,22.912249423358432,50.5793173173425
2.35435351890997,2.2309300312795735,1801,45,22.912249423358432,50.5793173173425
2.376657132255493,2.230907727222284,1801,45,22.912249423358432,50.5793173173425
2.3989605225286006,2.2308854233880866,1801,45,22.912249423358432,50.5793173173425
2.421263689738347,2.2308631197769717,1801,45,22.912249423358432,50.5793173173425
2.4435666338932642,2.230840816388929,1801,45,22.912249423358432,50.5793173173425
2.4658693550013973,2.2308185132239498,1801,45,22.912249423358432,50.5793173173425
2.488171853070345,2.230796210282025,1801,45,22.912249423358432,50.5793173173425
2.5104741281072918,2.230773907563147,1801,45,22.912249423358432,50.5793173173425
2.532776180119041,2.2307516050673084,1801,45,22.912249423358432,50.5793173173425
2.555078009112046,2.2307293027945017,1801,45,22.912249423358432,50.5793173173425
2.577379615092433,2.2307070007447205,1801,45,22.912249423358432,50.5793173173425
2.5996809980660287,2.2306846989179574,1801,45,22.912249423358432,50.5793173173425
2.6219821580383837,2.2306623973142075,1801,45,22.912249423358432,50.5793173173425
2.6442830950147918,2.230640095933464,1801,45,22.912249423358432,50.5793173173425
2.6665838090003118,2.2306177947757218,1801,45,22.912249423358432,50.5793173173425
2.688884299999785,2.2305954938409753,1801,45,22.912249423358432,50.5793173173425
2.7111845680178512,2.2305731931292203,1801,45,22.912249423358432,50.5793173173425
2.733484613058965,2.230550892640451,1801,45,22.912249423358432,50.5793173173425
2.7557844351274103,2.2305285923746627,1801,45,22.912249423358432,50.5793173173425
2.7780840342273105,2.2305062923318517,1801,45,22.912249423358432,50.5793173173425
2.800383410362646,2.2304839925120135,1801,45,22.912249423358432,50.5793173173425
2.8226825635372617,2.2304616929151435,1801,45,22.912249423358432,50.5793173173425
2.844981493754876,2.230439393541238,1801,45,22.912249423358432,50.5793173173425
2.867280201019096,2.2304170943902935,1801,45,22.912249423358432,50.5793173173425
2.889578685333421,2.230394795462306,1801,45,22.912249423358432,50.5793173173425
2.911876946701252,2.2303724967572713,1801,45,22.912249423358432,50.5793173173425
2.934174985125901,2.230350198275187,1801,45,22.912249423358432,50.5793173173425
2.9564728006105954,2.2303279000160487,1801,45,22.912249423358432,50.5793173173425
2.9787703931584866,2.230305601979854,1801,45,22.912249423358432,50.5793173173425
3.001067762772655,2.2302833041665995,1801,45,22.912249423358432,50.5793173173425
3.023364909456116,2.2302610065762813,1801,45,22.912249423358432,50.5793173173425
3.045661833211822,2.230238709208897,1801,45,22.912249423358432,50.5793173173425
3.067958534042673,2.230216412064443,1801,45,22.912249423358432,50.5793173173425
3.0902550119515158,2.230194115142917,1801,45,22.912249423358432,50.5793173173425
3.112551266941148,2.2301718184443162,1801,45,22.912249423358432,50.5793173173425
3.1348472990143263,2.2301495219686367,1801,45,22.912249423358432,50.5793173173425
3.157143108173765,2.230127225715877,1801,45,22.912249423358432,50.5793173173425
3.1794386944221404,2.2301049296860334,1801,45,22.912249423358432,50.5793173173425
3.201734057762097,2.2300826338791038,1801,45,22.912249423358432,50.5793173173425
3.224029198196245,2.2300603382950848,1801,45,22.912249423358432,50.5793173173425
3.2463241157271643,2.2300380429339746,1801,45,22.912249423358432,50.5793173173425
3.268618810357412,2.2300157477957696,1801,45,22.912249423358432,50.5793173173425
3.290913282089515,2.2299934528804686,1801,45,22.912249423358432,50.5793173173425
3.3132075309259803,2.229971158188068,1801,45,22.912249423358432,50.5793173173425
3.335501556869292,2.229948863718565,1801,45,22.912249423358432,50.5793173173425
3.357795359921915,2.229926569471958,1801,45,22.912249423358432,50.5793173173425
3.380088940086296,2.229904275448244,1801,45,22.912249423358432,50.5793173173425
3.4023822973648663,2.229881981647421,1801,45,22.912249423358432,50.5793173173425
3.424675431760038,2.229859688069486,1801,45,22.912249423358432,50.5793173173425
3.4469683432742118,2.229837394714437,1801,45,22.912249423358432,50.5793173173425
3.469261031909775,2.229815101582271,1801,45,22.912249423358432,50.5793173173425
3.491553497669102,2.229792808672986,1801,45,22.912249423358432,50.5793173173425
3.5138457405545562,2.22977051598658,1801,45,22.912249423358432,50.5793173173425
3.5361377605684896,2.22974822352305,1801,45,22.912249423358432,50.5793173173425
3.5584295577132465,2.2297259312823936,1801,45,22.912249423358432,50.5793173173425
3.580721131991159,2.229703639264609,1801,45,22.912249423358432,50.5793173173425
3.6030124834045556,2.2296813474696937,1801,45,22.912249423358432,50.5793173173425
3.625303611955755,2.229659055897645,1801,45,22.912249423358432,50.5793173173425
3.6475945176470677,2.2296367645484607,1801,45,22.912249423358432,50.5793173173425
3.6698852004807994,2.2296144734221386,1801,45,22.912249423358432,50.5793173173425
3.6921756604592484,2.2295921825186764,1801,45,22.912249423358432,50.5793173173425
3.7144658975847102,2.229569891838072,1801,45,22.912249423358432,50.5793173173425
3.7367559118594715,2.2295476013803226,1801,45,22.912249423358432,50.5793173173425
3.7590457032858176,2.229525311145426,1801,45,22.912249423358432,50.5793173173425
3.781335271866027,2.22950302113338,1801,45,22.912249423358432,50.5793173173425
3.803624617602377,2.229480731344183,1801,45,22.912249423358432,50.5793173173425
3.825913740497137,2.229458441777832,1801,45,22.912249423358432,50.5793173173425
3.848202640552577,2.2294361524343245,1801,45,22.912249423358432,50.5793173173425
3.8704913177709632,2.2294138633136584,1801,45,22.912249423358432,50.5793173173425
3.892779772154557,2.229391574415832,1801,45,22.912249423358432,50.5793173173425
3.9150680037056182,2.2293692857408427,1801,45,22.912249423358432,50.5793173173425
3.937356012426405,2.2293469972886877,1801,45,22.912249423358432,50.5793173173425
3.959643798319171,2.2293247090593655,1801,45,22.912249423358432,50.5793173173425
3.9819313613861707,2.2293024210528736,1801,45,22.912249423358432,50.5793173173425
4.004218701629652,2.2292801332692096,1801,45,22.912249423358432,50.5793173173425
4.026505819051868,2.229257845708372,1801,45,22.912249423358432,50.5793173173425
4.048792713655064,2.2292355583703567,1801,45,22.912249423358432,50.5793173173425
4.071079385441485,2.2292132712551633,1801,45,22.912249423358432,50.5793173173425
4.093365834413378,2.229190984362789,1801,45,22.912249423358432,50.5793173173425
4.115652060572986,2.2291686976932312,1801,45,22.912249423358432,50.5793173173425
4.137938063922549,2.229146411246488,1801,45,22.912249423358432,50.5793173173425
4.160223844464308,2.2291241250225573,1801,45,22.912249423358432,50.5793173173425
4.182509402200503,2.2291018390214363,1801,45,22.912249423358432,50.5793173173425
4.2047947371333745,2.229079553243123,1801,45,22.912249423358432,50.5793173173425
4.227079849265158,2.2290572676876157,1801,45,22.912249423358432,50.5793173173425
4.249364738598091,2.229034982354911,1801,45,22.912249423358432,50.5793173173425
4.271649405134411,2.229012697245008,1801,45,22.912249423358432,50.5793173173425
4.293933848876354,2.2289904123579034,1801,45,22.912249423358432,50.5793173173425
4.316218069826155,2.2289681276935958,1801,45,22.912249423358432,50.5793173173425
4.338502067986047,2.2289458432520823,1801,45,22.912249423358432,50.5793173173425
4.360785843358264,2.228923559033361,1801,45,22.912249423358432,50.5793173173425
4.383069395945038,2.2289012750374297,1801,45,22.912249423358432,50.5793173173425
4.405352725748607,2.2288789912642857,1801,45,22.912249423358432,50.5793173173425
4.427635832771197,2.2288567077139274,1801,45,22.912249423358432,50.5793173173425
4.449918717015045,2.2288344243863523,1801,45,22.912249423358432,50.5793173173425
4.47220137848238,2.228812141281558,1801,45,22.912249423358432,50.5793173173425
4.494483817175432,2.2287898583995425,1801,45,22.912249423358432,50.5793173173425
4.516766033096435,2.2287675757403034,1801,45,22.912249423358432,50.5793173173425
4.5390480262476185,2.2287452933038385,1801,45,22.912249423358432,50.5793173173425
4.561329796631211,2.2287230110901457,1801,45,22.912249423358432,50.5793173173425
4.583611344249445,2.228700729099223,1801,45,22.912249423358432,50.5793173173425
4.6058926691045485,2.2286784473310677,1801,45,22.912249423358432,50.5793173173425
4.628173771198753,2.2286561657856776,1801,45,22.912249423358432,50.5793173173425
4.650454650534286,2.2286338844630507,1801,45,22.912249423358432,50.5793173173425
4.672735307113377,2.2286116033631846,1801,45,22.912249423358432,50.5793173173425
4.695015740938255,2.2285893224860773,1801,45,22.912249423358432,50.5793173173425
4.717295952011151,2.228567041831726,1801,45,22.912249423358432,50.5793173173425
4.739575940334291,2.2285447614001295,1801,45,22.912249423358432,50.5793173173425
4.761855705909904,2.2285224811912845,1801,45,22.912249423358432,50.5793173173425
4.784135248740219,2.2285002012051893,1801,45,22.912249423358432,50.5793173173425
4.806414568827464,2.2284779214418418,1801,45,22.912249423358432,50.5793173173425
4.828693666173866,2.2284556419012396,1801,45,22.912249423358432,50.5793173173425
4.850972540781656,2.22843336258338,1801,45,22.912249423358432,50.5793173173425
4.873251192653059,2.228411083488262,1801,45,22.912249423358432,50.5793173173425
4.8955296217903035,2.228388804615882,1801,45,22.912249423358432,50.5793173173425
4.917807828195618,2.2283665259662384,1801,45,22.912249423358432,50.5793173173425
4.940085811871228,2.228344247539329,1801,45,22.912249423358432,50.5793173173425
4.962363572819363,2.2283219693351515,1801,45,22.912249423358432,50.5793173173425
4.984641111042251,2.228299691353704,1801,45,22.912249423358432,50.5793173173425
5.006918426542118,2.2282774135949834,1801,45,22.912249423358432,50.5793173173425
5.029195519321191,2.2282551360589884,1801,45,22.912249423358432,50.5793173173425
5.051472389381699,2.2282328587457165,1801,45,22.912249423358432,50.5793173173425
5.073749036725867,2.228210581655165,1801,45,22.912249423358432,50.5793173173425
5.096025461355922,2.228188304787332,1801,45,22.912249423358432,50.5793173173425
5.118301663274092,2.228166028142216,1801,45,22.912249423358432,50.5793173173425
5.140577642482606,2.2281437517198133,1801,45,22.912249423358432,50.5793173173425
5.162853398983688,2.228121475520123,1801,45,22.912249423358432,50.5793173173425
5.185128932779566,2.2280991995431423,1801,45,22.912249423358432,50.5793173173425
5.2074042438724675,2.2280769237888687,1801,45,22.912249423358432,50.5793173173425
5.229679332264618,2.2280546482573005,1801,45,22.912249423358432,50.5793173173425
5.251954197958244,2.228032372948435,1801,45,22.912249423358432,50.5793173173425
5.274228840955574,2.2280100978622706,1801,45,22.912249423358432,50.5793173173425
5.296503261258834,2.2279878229988044,1801,45,22.912249423358432,50.5793173173425
5.318777458870249,2.2279655483580347,1801,45,22.912249423358432,50.5793173173425
5.341051433792047,2.227943273939959,1801,45,22.912249423358432,50.5793173173425
5.363325186026455,2.227920999744575,1801,45,22.912249423358432,50.5793173173425
5.3855987155757,2.2278987257718805,1801,45,22.912249423358432,50.5793173173425
5.407872022442004,2.2278764520218735,1801,45,22.912249423358432,50.5793173173425
