Vout,Iout,Irradiance,Temperature,MaxVoltage,MaxPower
0.009926104556686957,1.9852400000000001,1601,45,22.90032524078374,44.88635518900155
0.02977813012699293,1.9852400000000001,1601,45,22.90032524078374,44.88635518900155
0.049629752110598405,1.9852298753714435,1601,45,22.90032524078374,44.88635518900155
0.06948089840687299,1.9852100233458732,1601,45,22.90032524078374,44.88635518900155
0.08933154545207983,1.985190171724902,1601,45,22.90032524078374,44.88635518900155
0.10918171639329863,1.9851703205805908,1601,45,22.90032524078374,44.88635518900155
0.12903143259744868,1.985150469935531,1601,45,22.90032524078374,44.88635518900155
0.14888071378781753,1.9851306197665748,1601,45,22.90032524078374,44.88635518900155
0.16872957817030482,1.9851107700523556,1601,45,22.90032524078374,44.88635518900155
0.18857804255017208,1.9850909207731504,1601,45,22.90032524078374,44.88635518900155
0.20842612243981026,1.9850710719107527,1601,45,22.90032524078374,44.88635518900155
0.22827383215821526,1.985051223448358,1601,45,22.90032524078374,44.88635518900155
0.24812118492280955,1.9850313753704532,1601,45,22.90032524078374,44.88635518900155
0.267968192934199,1.9850115276627196,1601,45,22.90032524078374,44.88635518900155
0.2878148674544081,1.9849916803119398,1601,45,22.90032524078374,44.88635518900155
0.30766121887909637,1.9849718333059132,1601,45,22.90032524078374,44.88635518900155
0.32750725680421744,1.9849519866333776,1601,45,22.90032524078374,44.88635518900155
0.34735299008754966,1.9849321402839377,1601,45,22.90032524078374,44.88635518900155
0.36719842690549287,1.9849122942479973,1601,45,22.90032524078374,44.88635518900155
0.3870435748054942,1.9848924485166985,1601,45,22.90032524078374,44.88635518900155
0.40688844075444114,1.9848726030818653,1601,45,22.90032524078374,44.88635518900155
0.42673303118333034,1.9848527579359498,1601,45,22.90032524078374,44.88635518900155
0.4465773520285002,1.9848329130719853,1601,45,22.90032524078374,44.88635518900155
0.46642140876969035,1.984813068483541,1601,45,22.90032524078374,44.88635518900155
0.48626520646517346,1.9847932241646804,1601,45,22.90032524078374,44.88635518900155
0.5061087497841832,1.9847733801099237,1601,45,22.90032524078374,44.88635518900155
0.5259520430368476,1.9847535363142126,1601,45,22.90032524078374,44.88635518900155
0.5457950902018196,1.9847336927728778,1601,45,22.90032524078374,44.88635518900155
0.5656378949517802,1.9847138494816097,1601,45,22.90032524078374,44.88635518900155
0.585480460676982,1.9846940064364291,1601,45,22.90032524078374,44.88635518900155
0.6053227905069783,1.9846741636336633,1601,45,22.90032524078374,44.88635518900155
0.6251648873306821,1.9846543210699226,1601,45,22.90032524078374,44.88635518900155
0.6450067538148819,1.9846344787420769,1601,45,22.90032524078374,44.88635518900155
0.6648483924213316,1.9846146366472373,1601,45,22.90032524078374,44.88635518900155
0.6846898054225267,1.9845947947827374,1601,45,22.90032524078374,44.88635518900155
0.7045309949162657,1.9845749531461152,1601,45,22.90032524078374,44.88635518900155
0.7243719628390917,1.9845551117350981,1601,45,22.90032524078374,44.88635518900155
0.7442127109786998,1.9845352705475885,1601,45,22.90032524078374,44.88635518900155
0.7640532409853896,1.9845154295816498,1601,45,22.90032524078374,44.88635518900155
0.783893554382637,1.9844955888354943,1601,45,22.90032524078374,44.88635518900155
0.8037336525768509,1.9844757483074718,1601,45,22.90032524078374,44.88635518900155
0.8235735368663825,1.9844559079960586,1601,45,22.90032524078374,44.88635518900155
0.8434132084498374,1.9844360678998485,1601,45,22.90032524078374,44.88635518900155
0.8632526684337519,1.984416228017543,1601,45,22.90032524078374,44.88635518900155
0.883091917839676,1.9843963883479434,1601,45,22.90032524078374,44.88635518900155
0.9029309576107126,1.9843765488899436,1601,45,22.90032524078374,44.88635518900155
0.9227697886175534,1.9843567096425216,1601,45,22.90032524078374,44.88635518900155
0.9426084116640501,1.9843368706047344,1601,45,22.90032524078374,44.88635518900155
0.9624468274923572,1.9843170317757115,1601,45,22.90032524078374,44.88635518900155
0.9822850367876799,1.984297193154649,1601,45,22.90032524078374,44.88635518900155
1.0021230401826544,1.9842773547408046,1601,45,22.90032524078374,44.88635518900155
1.0219608382613936,1.984257516533493,1601,45,22.90032524078374,44.88635518900155
1.041798431563221,1.9842376785320819,1601,45,22.90032524078374,44.88635518900155
1.0616358205861147,1.9842178407359872,1601,45,22.90032524078374,44.88635518900155
1.081473005789893,1.984198003144669,1601,45,22.90032524078374,44.88635518900155
1.1013099875991443,1.9841781657576298,1601,45,22.90032524078374,44.88635518900155
1.121146766405943,1.98415832857441,1601,45,22.90032524078374,44.88635518900155
1.1409833425723488,1.9841384915945843,1601,45,22.90032524078374,44.88635518900155
1.1608197164327163,1.9841186548177614,1601,45,22.90032524078374,44.88635518900155
1.1806558882958271,1.9840988182435786,1601,45,22.90032524078374,44.88635518900155
1.200491858446857,1.984078981871702,1601,45,22.90032524078374,44.88635518900155
1.2203276271491932,1.9840591457018224,1601,45,22.90032524078374,44.88635518900155
1.240163194646109,1.984039309733655,1601,45,22.90032524078374,44.88635518900155
1.2599985611623121,1.9840194739669363,1601,45,22.90032524078374,44.88635518900155
1.2798337269053752,1.9839996384014231,1601,45,22.90032524078374,44.88635518900155
1.2996686920670504,1.9839798030368905,1601,45,22.90032524078374,44.88635518900155
1.31950345682449,1.983959967873131,1601,45,22.90032524078374,44.88635518900155
1.3393380213413684,1.9839401329099529,1601,45,22.90032524078374,44.88635518900155
1.3591723857689184,1.9839202981471789,1601,45,22.90032524078374,44.88635518900155
1.3790065502468893,1.9839004635846456,1601,45,22.90032524078374,44.88635518900155
1.3988405149044316,1.9838806292222013,1601,45,22.90032524078374,44.88635518900155
1.41867427986091,1.983860795059707,1601,45,22.90032524078374,44.88635518900155
1.4385078452266575,1.9838409610970327,1601,45,22.90032524078374,44.88635518900155
1.4583412111036722,1.9838211273340598,1601,45,22.90032524078374,44.88635518900155
1.4781743775862544,1.9838012937706773,1601,45,22.90032524078374,44.88635518900155
1.4980073447616034,1.9837814604067836,1601,45,22.90032524078374,44.88635518900155
1.51784011271036,1.9837616272422844,1601,45,22.90032524078374,44.88635518900155
1.5376726815071138,1.9837417942770925,1601,45,22.90032524078374,44.88635518900155
1.557505051220868,1.983721961511127,1601,45,22.90032524078374,44.88635518900155
1.5773372219154684,1.9837021289443135,1601,45,22.90032524078374,44.88635518900155
1.5971691936500019,1.983682296576583,1601,45,22.90032524078374,44.88635518900155
1.6170009664791607,1.9836624644078718,1601,45,22.90032524078374,44.88635518900155
1.6368325404535826,1.9836426324381204,1601,45,22.90032524078374,44.88635518900155
1.6566639156201604,1.9836228006672745,1601,45,22.90032524078374,44.88635518900155
1.6764950920223314,1.9836029690952832,1601,45,22.90032524078374,44.88635518900155
1.6963260697003442,1.9835831377220998,1601,45,22.90032524078374,44.88635518900155
1.7161568486915033,1.983563306547681,1601,45,22.90032524078374,44.88635518900155
1.735987429030394,1.983543475571986,1601,45,22.90032524078374,44.88635518900155
1.7558178107490947,1.983523644794978,1601,45,22.90032524078374,44.88635518900155
1.775647993877367,1.9835038142166221,1601,45,22.90032524078374,44.88635518900155
1.7954779784428352,1.9834839838368865,1601,45,22.90032524078374,44.88635518900155
1.8153077644711506,1.9834641536557414,1601,45,22.90032524078374,44.88635518900155
1.835137351986144,1.983444323673159,1601,45,22.90032524078374,44.88635518900155
1.854966741009965,1.9834244938891137,1601,45,22.90032524078374,44.88635518900155
1.8747959315632106,1.9834046643035816,1601,45,22.90032524078374,44.88635518900155
1.8946249236650456,1.9833848349165408,1601,45,22.90032524078374,44.88635518900155
1.914453717333314,1.9833650057279704,1601,45,22.90032524078374,44.88635518900155
1.9342823125846378,1.9833451767378516,1601,45,22.90032524078374,44.88635518900155
1.9541107094345138,1.9833253479461663,1601,45,22.90032524078374,44.88635518900155
1.973938907897398,1.983305519352898,1601,45,22.90032524078374,44.88635518900155
1.9937669079867872,1.9832856909580308,1601,45,22.90032524078374,44.88635518900155
2.0135947097152926,1.9832658627615507,1601,45,22.90032524078374,44.88635518900155
2.033422313094705,1.9832460347634442,1601,45,22.90032524078374,44.88635518900155
2.053249718136064,1.9832262069636986,1601,45,22.90032524078374,44.88635518900155
2.073076924849709,1.983206379362302,1601,45,22.90032524078374,44.88635518900155
2.0929039332453407,1.9831865519592433,1601,45,22.90032524078374,44.88635518900155
2.1127307433320612,1.9831667247545124,1601,45,22.90032524078374,44.88635518900155
2.1325573551184274,1.9831468977480995,1601,45,22.90032524078374,44.88635518900155
2.1523837686124883,1.9831270709399955,1601,45,22.90032524078374,44.88635518900155
2.172209983821829,1.9831072443301918,1601,45,22.90032524078374,44.88635518900155
2.192036000753601,1.9830874179186806,1601,45,22.90032524078374,44.88635518900155
2.2118618194145583,1.9830675917054539,1601,45,22.90032524078374,44.88635518900155
2.231687439811089,1.9830477656905048,1601,45,22.90032524078374,44.88635518900155
2.2515128619492413,1.9830279398738264,1601,45,22.90032524078374,44.88635518900155
2.2713380858347496,1.9830081142554126,1601,45,22.90032524078374,44.88635518900155
2.291163111473061,1.9829882888352568,1601,45,22.90032524078374,44.88635518900155
2.3109879388693555,1.982968463613354,1601,45,22.90032524078374,44.88635518900155
2.3308125680285663,1.9829486385896982,1601,45,22.90032524078374,44.88635518900155
2.3506369989554012,1.9829288137642844,1601,45,22.90032524078374,44.88635518900155
2.3704612316543563,1.9829089891371077,1601,45,22.90032524078374,44.88635518900155
2.3902852661297347,1.9828891647081632,1601,45,22.90032524078374,44.88635518900155
2.4101091023856616,1.982869340477447,1601,45,22.90032524078374,44.88635518900155
2.429932740426097,1.982849516444954,1601,45,22.90032524078374,44.88635518900155
2.4497561802548473,1.9828296926106803,1601,45,22.90032524078374,44.88635518900155
2.469579421875581,1.9828098689746223,1601,45,22.90032524078374,44.88635518900155
2.489402465291834,1.982790045536776,1601,45,22.90032524078374,44.88635518900155
2.5092253105070252,1.9827702222971377,1601,45,22.90032524078374,44.88635518900155
2.529047957524461,1.9827503992557036,1601,45,22.90032524078374,44.88635518900155
2.548870406347345,1.982730576412471,1601,45,22.90032524078374,44.88635518900155
2.5686926569787913,1.9827107537674358,1601,45,22.90032524078374,44.88635518900155
2.5885147094218217,1.9826909313205952,1601,45,22.90032524078374,44.88635518900155
2.60833656367938,1.982671109071946,1601,45,22.90032524078374,44.88635518900155
2.6281582197543356,1.9826512870214852,1601,45,22.90032524078374,44.88635518900155
2.6479796776494906,1.9826314651692099,1601,45,22.90032524078374,44.88635518900155
2.667800937367582,1.982611643515117,1601,45,22.90032524078374,44.88635518900155
2.687621998911291,1.982591822059204,1601,45,22.90032524078374,44.88635518900155
2.707442862283244,1.9825720008014682,1601,45,22.90032524078374,44.88635518900155
2.727263527486015,1.9825521797419066,1601,45,22.90032524078374,44.88635518900155
2.7470839945221366,1.9825323588805168,1601,45,22.90032524078374,44.88635518900155
2.7669042633940975,1.9825125382172961,1601,45,22.90032524078374,44.88635518900155
2.786724334104347,1.982492717752242,1601,45,22.90032524078374,44.88635518900155
2.806544206655297,1.9824728974853523,1601,45,22.90032524078374,44.88635518900155
2.826363881049327,1.982453077416624,1601,45,22.90032524078374,44.88635518900155
2.8461833572887896,1.982433257546055,1601,45,22.90032524078374,44.88635518900155
2.866002635376002,1.982413437873643,1601,45,22.90032524078374,44.88635518900155
2.885821715313261,1.9823936183993855,1601,45,22.90032524078374,44.88635518900155
2.905640597102837,1.9823737991232804,1601,45,22.90032524078374,44.88635518900155
2.9254592807469773,1.982353980045325,1601,45,22.90032524078374,44.88635518900155
2.945277766247911,1.9823341611655174,1601,45,22.90032524078374,44.88635518900155
2.9650960536078457,1.9823143424838552,1601,45,22.90032524078374,44.88635518900155
2.9849141428289725,1.982294524000336,1601,45,22.90032524078374,44.88635518900155
3.004732033913467,1.9822747057149581,1601,45,22.90032524078374,44.88635518900155
3.0245497268634884,1.9822548876277188,1601,45,22.90032524078374,44.88635518900155
3.044367221681185,1.9822350697386162,1601,45,22.90032524078374,44.88635518900155
3.064184518368688,1.982215252047648,1601,45,22.90032524078374,44.88635518900155
3.08400161692812,1.982195434554812,1601,45,22.90032524078374,44.88635518900155
3.1038185173615918,1.9821756172601062,1601,45,22.90032524078374,44.88635518900155
3.123635219671203,1.9821558001635284,1601,45,22.90032524078374,44.88635518900155
3.143451723859048,1.982135983265077,1601,45,22.90032524078374,44.88635518900155
3.163268029927207,1.9821161665647489,1601,45,22.90032524078374,44.88635518900155
3.183084137877757,1.9820963500625428,1601,45,22.90032524078374,44.88635518900155
3.2029000477127645,1.9820765337584563,1601,45,22.90032524078374,44.88635518900155
3.2227157594342906,1.9820567176524873,1601,45,22.90032524078374,44.88635518900155
3.2425312730443916,1.982036901744634,1601,45,22.90032524078374,44.88635518900155
3.2623465885451157,1.982017086034894,1601,45,22.90032524078374,44.88635518900155
3.282161705938507,1.9819972705232656,1601,45,22.90032524078374,44.88635518900155
3.301976625226604,1.9819774552097464,1601,45,22.90032524078374,44.88635518900155
3.321791346411442,1.9819576400943346,1601,45,22.90032524078374,44.88635518900155
3.341605869495051,1.981937825177028,1601,45,22.90032524078374,44.88635518900155
3.3614201944794577,1.9819180104578247,1601,45,22.90032524078374,44.88635518900155
3.3812343213666844,1.9818981959367226,1601,45,22.90032524078374,44.88635518900155
3.401048250158751,1.9818783816137195,1601,45,22.90032524078374,44.88635518900155
3.420861980857674,1.9818585674888138,1601,45,22.90032524078374,44.88635518900155
3.440675513465467,1.9818387535620032,1601,45,22.90032524078374,44.88635518900155
3.4604888479841427,1.9818189398332857,1601,45,22.90032524078374,44.88635518900155
3.480301984415709,1.9817991263026593,1601,45,22.90032524078374,44.88635518900155
3.5001149227621706,1.981779312970122,1601,45,22.90032524078374,44.88635518900155
3.519927663025536,1.9817594998356718,1601,45,22.90032524078374,44.88635518900155
3.5397402052078046,1.9817396868993067,1601,45,22.90032524078374,44.88635518900155
3.559552549310979,1.9817198741610247,1601,45,22.90032524078374,44.88635518900155
3.5793646953370577,1.9817000616208236,1601,45,22.90032524078374,44.88635518900155
3.5991766432880383,1.9816802492787018,1601,45,22.90032524078374,44.88635518900155
3.6189883931659175,1.981660437134657,1601,45,22.90032524078374,44.88635518900155
3.6387999449726918,1.981640625188687,1601,45,22.90032524078374,44.88635518900155
3.658611298710354,1.9816208134407904,1601,45,22.90032524078374,44.88635518900155
3.6784224543808977,1.9816010018909649,1601,45,22.90032524078374,44.88635518900155
3.6982334119863145,1.9815811905392084,1601,45,22.90032524078374,44.88635518900155
3.718044171528596,1.9815613793855191,1601,45,22.90032524078374,44.88635518900155
3.7378547330097325,1.9815415684298947,1601,45,22.90032524078374,44.88635518900155
3.7576650964317126,1.9815217576723336,1601,45,22.90032524078374,44.88635518900155
3.7774752617965253,1.9815019471128335,1601,45,22.90032524078374,44.88635518900155
3.797285229106159,1.9814821367513926,1601,45,22.90032524078374,44.88635518900155
3.8170949983626,1.981462326588009,1601,45,22.90032524078374,44.88635518900155
3.836904569567836,1.9814425166226803,1601,45,22.90032524078374,44.88635518900155
3.8567139427238524,1.981422706855405,1601,45,22.90032524078374,44.88635518900155
3.8765231178326363,1.9814028972861806,1601,45,22.90032524078374,44.88635518900155
3.8963320948961724,1.9813830879150056,1601,45,22.90032524078374,44.88635518900155
3.9161408739164445,1.9813632787418778,1601,45,22.90032524078374,44.88635518900155
3.9359494548954386,1.981343469766795,1601,45,22.90032524078374,44.88635518900155
3.9557578378351383,1.9813236609897558,1601,45,22.90032524078374,44.88635518900155
3.9755660227375262,1.9813038524107578,1601,45,22.90032524078374,44.88635518900155
3.9953740096045887,1.981284044029799,1601,45,22.90032524078374,44.88635518900155
4.015181798438306,1.9812642358468773,1601,45,22.90032524078374,44.88635518900155
4.034989389240663,1.9812444278619912,1601,45,22.90032524078374,44.88635518900155
4.05479678201364,1.9812246200751382,1601,45,22.90032524078374,44.88635518900155
4.074603976759222,1.9812048124863166,1601,45,22.90032524078374,44.88635518900155
4.0944109734793885,1.9811850050955244,1601,45,22.90032524078374,44.88635518900155
4.114217772176124,1.9811651979027596,1601,45,22.90032524078374,44.88635518900155
4.134024372851409,1.98114539090802,1601,45,22.90032524078374,44.88635518900155
4.153830775507225,1.9811255841113042,1601,45,22.90032524078374,44.88635518900155
4.173636980145553,1.9811057775126095,1601,45,22.90032524078374,44.88635518900155
4.193442986768377,1.9810859711119344,1601,45,22.90032524078374,44.88635518900155
4.213248795377677,1.981066164909277,1601,45,22.90032524078374,44.88635518900155
4.233054405975431,1.9810463589046345,1601,45,22.90032524078374,44.88635518900155
4.252859818563624,1.981026553098006,1601,45,22.90032524078374,44.88635518900155
4.272665033144234,1.9810067474893889,1601,45,22.90032524078374,44.88635518900155
4.292470049719243,1.9809869420787811,1601,45,22.90032524078374,44.88635518900155
4.31227486829063,1.9809671368661812,1601,45,22.90032524078374,44.88635518900155
4.332079488860379,1.9809473318515867,1601,45,22.90032524078374,44.88635518900155
4.351883911430466,1.9809275270349957,1601,45,22.90032524078374,44.88635518900155
4.3716881360028745,1.9809077224164064,1601,45,22.90032524078374,44.88635518900155
4.391492162579584,1.980887917995817,1601,45,22.90032524078374,44.88635518900155
4.411295991162573,1.980868113773225,1601,45,22.90032524078374,44.88635518900155
4.431099621753825,1.9808483097486287,1601,45,22.90032524078374,44.88635518900155
4.450903054355317,1.980828505922026,1601,45,22.90032524078374,44.88635518900155
4.470706288969028,1.9808087022934153,1601,45,22.90032524078374,44.88635518900155
4.490509325596941,1.9807888988627942,1601,45,22.90032524078374,44.88635518900155
4.510312164241036,1.980769095630161,1601,45,22.90032524078374,44.88635518900155
4.53011480490329,1.9807492925955132,1601,45,22.90032524078374,44.88635518900155
4.549917247585683,1.9807294897588494,1601,45,22.90032524078374,44.88635518900155
4.569719492290197,1.9807096871201675,1601,45,22.90032524078374,44.88635518900155
4.5895215390188095,1.9806898846794654,1601,45,22.90032524078374,44.88635518900155
4.609323387773503,1.9806700824367411,1601,45,22.90032524078374,44.88635518900155
4.629125038556253,1.9806502803919928,1601,45,22.90032524078374,44.88635518900155
4.648926491369041,1.9806304785452185,1601,45,22.90032524078374,44.88635518900155
4.668727746213848,1.9806106768964158,1601,45,22.90032524078374,44.88635518900155
4.688528803092651,1.9805908754455832,1601,45,22.90032524078374,44.88635518900155
4.70832966200743,1.9805710741927185,1601,45,22.90032524078374,44.88635518900155
4.728130322960165,1.9805512731378199,1601,45,22.90032524078374,44.88635518900155
4.747930785952836,1.9805314722808853,1601,45,22.90032524078374,44.88635518900155
4.767731050987421,1.9805116716219127,1601,45,22.90032524078374,44.88635518900155
4.787531118065899,1.9804918711609,1601,45,22.90032524078374,44.88635518900155
