Vout,Iout,Irradiance,Temperature,MaxVoltage,MaxPower
0.0006312439303468236,0.12625,101,50,22.777570714120998,2.35420288334807
0.0018937201187427498,0.12625,101,50,22.777570714120998,2.35420288334807
0.0031561706413144246,0.12624935613106966,101,50,22.777570714120998,2.35420288334807
0.004418590912870845,0.12624809365488127,101,50,22.777570714120998,2.35420288334807
0.005680979434892042,0.12624683120442307,101,50,22.777570714120998,2.35420288334807
0.006943337679400954,0.12624556878427776,101,50,22.777570714120998,2.35420288334807
0.008205667005212415,0.126244306395882,101,50,22.777570714120998,2.35420288334807
0.009467968666615608,0.12624304403776374,101,50,22.777570714120998,2.35420288334807
0.010730243821402441,0.12624178170856415,101,50,22.777570714120998,2.35420288334807
0.011992493538292208,0.126240519407029,101,50,22.777570714120998,2.35420288334807
0.013254718803784954,0.12623925713200043,101,50,22.777570714120998,2.35420288334807
0.014516920528487576,0.12623799488240978,101,50,22.777570714120998,2.35420288334807
0.015779099552953146,0.1262367326572705,101,50,22.777570714120998,2.35420288334807
0.01704125665307097,0.12623547045567202,101,50,22.777570714120998,2.35420288334807
0.018303392545041913,0.12623420827677378,101,50,22.777570714120998,2.35420288334807
0.01956550788997094,0.12623294611979988,101,50,22.777570714120998,2.35420288334807
0.020827603298106248,0.12623168398403414,101,50,22.777570714120998,2.35420288334807
0.02208967933275228,0.12623042186881542,101,50,22.777570714120998,2.35420288334807
0.02335173651388167,0.1262291597735335,101,50,22.777570714120998,2.35420288334807
0.024613775321469255,0.12622789769762507,101,50,22.777570714120998,2.35420288334807
0.02587579619856953,0.12622663564057013,101,50,22.777570714120998,2.35420288334807
0.027137799554157398,0.12622537360188876,101,50,22.777570714120998,2.35420288334807
0.028399785765750304,0.12622411158113786,101,50,22.777570714120998,2.35420288334807
0.029661755181828592,0.1262228495779085,101,50,22.777570714120998,2.35420288334807
0.03092370812406971,0.1262215875918231,101,50,22.777570714120998,2.35420288334807
0.03218564488941041,0.1262203256225332,101,50,22.777570714120998,2.35420288334807
0.03344756575195041,0.12621906366971716,101,50,22.777570714120998,2.35420288334807
0.034709470964709416,0.12621780173307803,101,50,22.777570714120998,2.35420288334807
0.035971360761249155,0.12621653981234168,101,50,22.777570714120998,2.35420288334807
0.03723323535717041,0.12621527790725512,101,50,22.777570714120998,2.35420288334807
0.038495094951495036,0.12621401601758478,101,50,22.777570714120998,2.35420288334807
0.03975693972794152,0.12621275414311503,101,50,22.777570714120998,2.35420288334807
0.04101876985610246,0.1262114922836469,101,50,22.777570714120998,2.35420288334807
0.04228058549253144,0.12621023043899665,101,50,22.777570714120998,2.35420288334807
0.04354238678174628,0.12620896860899466,101,50,22.777570714120998,2.35420288334807
0.04480417385715507,0.12620770679348442,101,50,22.777570714120998,2.35420288334807
0.046065946841910954,0.1262064449923214,101,50,22.777570714120998,2.35420288334807
0.04732770584970121,0.12620518320537216,101,50,22.777570714120998,2.35420288334807
0.04858945098547552,0.12620392143251358,101,50,22.777570714120998,2.35420288334807
0.049851182346118295,0.12620265967363198,101,50,22.777570714120998,2.35420288334807
0.051112900021069184,0.1262013979286224,101,50,22.777570714120998,2.35420288334807
0.05237460409289594,0.1262001361973879,101,50,22.777570714120998,2.35420288334807
0.053636294637823094,0.12619887447983913,101,50,22.777570714120998,2.35420288334807
0.05489797172622008,0.12619761277589348,101,50,22.777570714120998,2.35420288334807
0.05615963542305167,0.12619635108547472,101,50,22.777570714120998,2.35420288334807
0.05742128578829384,0.1261950894085125,101,50,22.777570714120998,2.35420288334807
0.058682922877317654,0.12619382774494184,101,50,22.777570714120998,2.35420288334807
0.059944546741243526,0.12619256609470278,101,50,22.777570714120998,2.35420288334807
0.06120615742726828,0.1261913044577399,101,50,22.777570714120998,2.35420288334807
0.062467754978967054,0.12619004283400215,101,50,22.777570714120998,2.35420288334807
0.06372933943657194,0.1261887812234423,101,50,22.777570714120998,2.35420288334807
0.06499091083722922,0.12618751962601676,101,50,22.777570714120998,2.35420288334807
0.06625246921523674,0.12618625804168532,101,50,22.777570714120998,2.35420288334807
0.06751401460226318,0.12618499647041082,101,50,22.777570714120998,2.35420288334807
0.06877554702755027,0.12618373491215895,101,50,22.777570714120998,2.35420288334807
0.07003706651809952,0.12618247336689808,101,50,22.777570714120998,2.35420288334807
0.07129857309884458,0.12618121183459896,101,50,22.777570714120998,2.35420288334807
0.07256006679281041,0.12617995031523457,101,50,22.777570714120998,2.35420288334807
0.0738215476212601,0.12617868880877997,101,50,22.777570714120998,2.35420288334807
0.07508301560383034,0.12617742731521217,101,50,22.777570714120998,2.35420288334807
0.07634447075865673,0.12617616583450986,101,50,22.777570714120998,2.35420288334807
0.07760591310248918,0.12617490436665343,101,50,22.777570714120998,2.35420288334807
0.0788673426507985,0.12617364291162475,101,50,22.777570714120998,2.35420288334807
0.08012875941787485,0.12617238146940707,101,50,22.777570714120998,2.35420288334807
0.08139016341691863,0.1261711200399849,101,50,22.777570714120998,2.35420288334807
0.08265155466012425,0.12616985862334398,101,50,22.777570714120998,2.35420288334807
0.08391293315875752,0.12616859721947107,101,50,22.777570714120998,2.35420288334807
0.08517429892322723,0.12616733582835402,101,50,22.777570714120998,2.35420288334807
0.08643565196315095,0.1261660744499815,101,50,22.777570714120998,2.35420288334807
0.08769699228741598,0.12616481308434319,101,50,22.777570714120998,2.35420288334807
0.08895831990423544,0.1261635517314294,101,50,22.777570714120998,2.35420288334807
0.09021963482120034,0.12616229039123128,101,50,22.777570714120998,2.35420288334807
0.09148093704532723,0.1261610290637406,101,50,22.777570714120998,2.35420288334807
0.09274222658310256,0.12615976774894977,101,50,22.777570714120998,2.35420288334807
0.09400350344052334,0.12615850644685178,101,50,22.777570714120998,2.35420288334807
0.0952647676231349,0.12615724515744012,101,50,22.777570714120998,2.35420288334807
0.0965260191360656,0.12615598388070884,101,50,22.777570714120998,2.35420288334807
0.09778725798405884,0.12615472261665234,101,50,22.777570714120998,2.35420288334807
0.0990484841715029,0.12615346136526553,101,50,22.777570714120998,2.35420288334807
0.10030969770245805,0.12615220012654368,101,50,22.777570714120998,2.35420288334807
0.10157089858068176,0.12615093890048237,101,50,22.777570714120998,2.35420288334807
0.10283208680965225,0.12614967768707752,101,50,22.777570714120998,2.35420288334807
0.10409326239258966,0.12614841648632544,101,50,22.777570714120998,2.35420288334807
0.10535442533247626,0.12614715529822257,101,50,22.777570714120998,2.35420288334807
0.10661557563207434,0.12614589412276575,101,50,22.777570714120998,2.35420288334807
0.10787671329394351,0.12614463295995199,101,50,22.777570714120998,2.35420288334807
0.10913783832045611,0.12614337180977853,101,50,22.777570714120998,2.35420288334807
0.11039895071381155,0.12614211067224276,101,50,22.777570714120998,2.35420288334807
0.11166005047604984,0.12614084954734237,101,50,22.777570714120998,2.35420288334807
0.11292113760906367,0.1261395884350751,101,50,22.777570714120998,2.35420288334807
0.11418221211460979,0.126138327335439,101,50,22.777570714120998,2.35420288334807
0.11544327399431947,0.1261370662484321,101,50,22.777570714120998,2.35420288334807
0.11670432324970823,0.12613580517405265,101,50,22.777570714120998,2.35420288334807
0.11796535988218458,0.12613454411229905,101,50,22.777570714120998,2.35420288334807
0.11922638389305844,0.1261332830631698,101,50,22.777570714120998,2.35420288334807
0.1204873952835486,0.1261320220266634,101,50,22.777570714120998,2.35420288334807
0.1217483940547898,0.12613076100277865,101,50,22.777570714120998,2.35420288334807
0.12300938020783912,0.12612949999151424,101,50,22.777570714120998,2.35420288334807
0.12427035374368209,0.12612823899286912,101,50,22.777570714120998,2.35420288334807
0.125531314663238,0.12612697800684217,101,50,22.777570714120998,2.35420288334807
0.12679226296736515,0.12612571703343242,101,50,22.777570714120998,2.35420288334807
0.1280531986568655,0.12612445607263897,101,50,22.777570714120998,2.35420288334807
0.12931412173248905,0.12612319512446094,101,50,22.777570714120998,2.35420288334807
0.1305750321949377,0.12612193418889753,101,50,22.777570714120998,2.35420288334807
0.13183593004486913,0.126120673265948,101,50,22.777570714120998,2.35420288334807
0.1330968152829,0.12611941235561164,101,50,22.777570714120998,2.35420288334807
0.13435768790960936,0.1261181514578878,101,50,22.777570714120998,2.35420288334807
0.13561854792554126,0.12611689057277586,101,50,22.777570714120998,2.35420288334807
0.13687939533120771,0.12611562970027523,101,50,22.777570714120998,2.35420288334807
0.13814023012709095,0.1261143688403854,101,50,22.777570714120998,2.35420288334807
0.1394010523136458,0.12611310799310582,101,50,22.777570714120998,2.35420288334807
0.14066186189130184,0.126111847158436,101,50,22.777570714120998,2.35420288334807
0.14192265886046526,0.12611058633637556,101,50,22.777570714120998,2.35420288334807
0.14318344322152068,0.12610932552692397,101,50,22.777570714120998,2.35420288334807
0.14444421497483287,0.1261080647300809,101,50,22.777570714120998,2.35420288334807
0.14570497412074815,0.12610680394584592,101,50,22.777570714120998,2.35420288334807
0.14696572065959593,0.12610554317421868,101,50,22.777570714120998,2.35420288334807
0.14822645459169,0.12610428241519886,101,50,22.777570714120998,2.35420288334807
0.14948717591732968,0.1261030216687861,101,50,22.777570714120998,2.35420288334807
0.15074788463680092,0.12610176093498007,101,50,22.777570714120998,2.35420288334807
0.1520085807503774,0.1261005002137805,101,50,22.777570714120998,2.35420288334807
0.15326926425832144,0.12609923950518712,101,50,22.777570714120998,2.35420288334807
0.1545299351608848,0.1260979788091996,101,50,22.777570714120998,2.35420288334807
0.1557905934583097,0.12609671812581774,101,50,22.777570714120998,2.35420288334807
0.15705123915082927,0.12609545745504125,101,50,22.777570714120998,2.35420288334807
0.15831187223866852,0.12609419679686987,101,50,22.777570714120998,2.35420288334807
0.15957249272204477,0.12609293615130343,101,50,22.777570714120998,2.35420288334807
0.16083310060116832,0.12609167551834166,101,50,22.777570714120998,2.35420288334807
0.16209369587624295,0.12609041489798434,101,50,22.777570714120998,2.35420288334807
0.1633542785474666,0.1260891542902313,101,50,22.777570714120998,2.35420288334807
0.1646148486150315,0.12608789369508228,101,50,22.777570714120998,2.35420288334807
0.16587540607912485,0.1260866331125371,101,50,22.777570714120998,2.35420288334807
0.16713595093992922,0.1260853725425956,101,50,22.777570714120998,2.35420288334807
0.16839648319762265,0.12608411198525757,101,50,22.777570714120998,2.35420288334807
0.16965700285237936,0.1260828514405228,101,50,22.777570714120998,2.35420288334807
0.17091750990436969,0.1260815909083912,101,50,22.777570714120998,2.35420288334807
0.17217800435376074,0.1260803303888625,101,50,22.777570714120998,2.35420288334807
0.17343848620071622,0.12607906988193654,101,50,22.777570714120998,2.35420288334807
0.17469895544539712,0.1260778093876132,101,50,22.777570714120998,2.35420288334807
0.17595941208796181,0.1260765489058923,101,50,22.777570714120998,2.35420288334807
0.1772198561285659,0.12607528843677365,101,50,22.777570714120998,2.35420288334807
0.17848028756736292,0.12607402798025716,101,50,22.777570714120998,2.35420288334807
0.17974070640450424,0.12607276753634258,101,50,22.777570714120998,2.35420288334807
0.18100111264013924,0.12607150710502985,101,50,22.777570714120998,2.35420288334807
0.18226150627441548,0.12607024668631875,101,50,22.777570714120998,2.35420288334807
0.18352188730747893,0.12606898628020916,101,50,22.777570714120998,2.35420288334807
0.184782255739474,0.12606772588670093,101,50,22.777570714120998,2.35420288334807
0.18604261157054364,0.1260664655057939,101,50,22.777570714120998,2.35420288334807
0.18730295480082956,0.12606520513748795,101,50,22.777570714120998,2.35420288334807
0.1885632854304722,0.1260639447817829,101,50,22.777570714120998,2.35420288334807
0.1898236034596109,0.12606268443867866,101,50,22.777570714120998,2.35420288334807
0.19108390888838395,0.12606142410817506,101,50,22.777570714120998,2.35420288334807
0.19234420171692876,0.12606016379027193,101,50,22.777570714120998,2.35420288334807
0.19360448194538182,0.1260589034849692,101,50,22.777570714120998,2.35420288334807
0.19486474957387875,0.1260576431922667,101,50,22.777570714120998,2.35420288334807
0.19612500460255453,0.12605638291216428,101,50,22.777570714120998,2.35420288334807
0.19738524703154336,0.12605512264466182,101,50,22.777570714120998,2.35420288334807
0.19864547686097886,0.12605386238975916,101,50,22.777570714120998,2.35420288334807
0.19990569409099404,0.1260526021474562,101,50,22.777570714120998,2.35420288334807
0.20116589872172133,0.12605134191775277,101,50,22.777570714120998,2.35420288334807
0.2024260907532928,0.1260500817006488,101,50,22.777570714120998,2.35420288334807
0.20368627018583987,0.12604882149614408,101,50,22.777570714120998,2.35420288334807
0.2049464370194936,0.12604756130423853,101,50,22.777570714120998,2.35420288334807
0.20620659125438476,0.126046301124932,101,50,22.777570714120998,2.35420288334807
0.20746673289064357,0.12604504095822439,101,50,22.777570714120998,2.35420288334807
0.20872686192840006,0.1260437808041155,101,50,22.777570714120998,2.35420288334807
0.20998697836778382,0.12604252066260527,101,50,22.777570714120998,2.35420288334807
0.21124708220892435,0.12604126053369352,101,50,22.777570714120998,2.35420288334807
0.21250717345195072,0.12604000041738014,101,50,22.777570714120998,2.35420288334807
0.21376725209699174,0.12603874031366502,101,50,22.777570714120998,2.35420288334807
0.21502731814417614,0.12603748022254802,101,50,22.777570714120998,2.35420288334807
0.21628737159363234,0.126036220144029,101,50,22.777570714120998,2.35420288334807
0.21754741244548853,0.1260349600781078,101,50,22.777570714120998,2.35420288334807
0.21880744069987287,0.12603370002478437,101,50,22.777570714120998,2.35420288334807
0.2200674563569132,0.1260324399840585,101,50,22.777570714120998,2.35420288334807
0.2213274594167373,0.12603117995593013,101,50,22.777570714120998,2.35420288334807
0.22258744987947268,0.12602991994039908,101,50,22.777570714120998,2.35420288334807
0.22384742774524696,0.12602865993746526,101,50,22.777570714120998,2.35420288334807
0.22510739301418742,0.12602739994712853,101,50,22.777570714120998,2.35420288334807
0.2263673456864214,0.12602613996938877,101,50,22.777570714120998,2.35420288334807
0.22762728576207591,0.12602488000424583,101,50,22.777570714120998,2.35420288334807
0.22888721324127811,0.1260236200516996,101,50,22.777570714120998,2.35420288334807
0.2301471281241549,0.12602236011174991,101,50,22.777570714120998,2.35420288334807
0.2314070304108332,0.12602110018439672,101,50,22.777570714120998,2.35420288334807
0.23266692010143983,0.12601984026963983,101,50,22.777570714120998,2.35420288334807
0.23392679719610152,0.12601858036747915,101,50,22.777570714120998,2.35420288334807
0.23518666169494493,0.12601732047791453,101,50,22.777570714120998,2.35420288334807
0.23644651359809668,0.12601606060094586,101,50,22.777570714120998,2.35420288334807
0.23770635290568337,0.126014800736573,101,50,22.777570714120998,2.35420288334807
0.23896617961783148,0.12601354088479585,101,50,22.777570714120998,2.35420288334807
0.24022599373466755,0.12601228104561424,101,50,22.777570714120998,2.35420288334807
0.24148579525631791,0.12601102121902807,101,50,22.777570714120998,2.35420288334807
0.24274558418290904,0.12600976140503722,101,50,22.777570714120998,2.35420288334807
0.24400536051456717,0.12600850160364155,101,50,22.777570714120998,2.35420288334807
0.2452651242514187,0.12600724181484096,101,50,22.777570714120998,2.35420288334807
0.2465248753935899,0.12600598203863528,101,50,22.777570714120998,2.35420288334807
0.247784613941207,0.1260047222750244,101,50,22.777570714120998,2.35420288334807
0.24904433989439623,0.1260034625240082,101,50,22.777570714120998,2.35420288334807
0.2503040532532838,0.12600220278558658,101,50,22.777570714120998,2.35420288334807
0.25156375401799597,0.12600094305975934,101,50,22.777570714120998,2.35420288334807
0.25282344218865876,0.12599968334652645,101,50,22.777570714120998,2.35420288334807
0.2540831177653983,0.1259984236458877,101,50,22.777570714120998,2.35420288334807
0.2553427807483408,0.125997163957843,101,50,22.777570714120998,2.35420288334807
0.25660243113761244,0.12599590428239224,101,50,22.777570714120998,2.35420288334807
0.257862068933339,0.12599464461953527,101,50,22.777570714120998,2.35420288334807
0.2591216941356469,0.12599338496927195,101,50,22.777570714120998,2.35420288334807
0.2603813067446619,0.1259921253316022,101,50,22.777570714120998,2.35420288334807
0.2616409067605104,0.12599086570652585,101,50,22.777570714120998,2.35420288334807
0.26290049418331807,0.1259896060940428,101,50,22.777570714120998,2.35420288334807
0.2641600690132111,0.12598834649415291,101,50,22.777570714120998,2.35420288334807
0.2654196312503154,0.12598708690685606,101,50,22.777570714120998,2.35420288334807
0.26667918089475706,0.12598582733215213,101,50,22.777570714120998,2.35420288334807
0.2679387179466622,0.125984567770041,101,50,22.777570714120998,2.35420288334807
0.2691982424061565,0.1259833082205225,101,50,22.777570714120998,2.35420288334807
0.2704577542733661,0.12598204868359655,101,50,22.777570714120998,2.35420288334807
0.271717253548417,0.12598078915926303,101,50,22.777570714120998,2.35420288334807
0.2729767402314352,0.12597952964752177,101,50,22.777570714120998,2.35420288334807
0.2742362143225464,0.12597827014837268,101,50,22.777570714120998,2.35420288334807
0.27549567582187684,0.1259770106618156,101,50,22.777570714120998,2.35420288334807
0.2767551247295523,0.12597575118785043,101,50,22.777570714120998,2.35420288334807
0.2780145610456987,0.12597449172647707,101,50,22.777570714120998,2.35420288334807
0.2792739847704421,0.12597323227769533,101,50,22.777570714120998,2.35420288334807
0.2805333959039083,0.12597197284150513,101,50,22.777570714120998,2.35420288334807
0.2817927944462234,0.12597071341790633,101,50,22.777570714120998,2.35420288334807
0.28305218039751306,0.1259694540068988,101,50,22.777570714120998,2.35420288334807
0.28431155375790335,0.12596819460848244,101,50,22.777570714120998,2.35420288334807
0.28557091452752015,0.1259669352226571,101,50,22.777570714120998,2.35420288334807
0.2868302627064893,0.12596567584942264,101,50,22.777570714120998,2.35420288334807
0.28808959829493686,0.12596441648877896,101,50,22.777570714120998,2.35420288334807
0.28934892129298856,0.12596315714072592,101,50,22.777570714120998,2.35420288334807
0.29060823170077044,0.12596189780526343,101,50,22.777570714120998,2.35420288334807
0.2918675295184084,0.1259606384823913,101,50,22.777570714120998,2.35420288334807
0.29312681474602814,0.12595937917210945,101,50,22.777570714120998,2.35420288334807
0.29438608738375566,0.12595811987441774,101,50,22.777570714120998,2.35420288334807
0.29564534743171694,0.12595686058931604,101,50,22.777570714120998,2.35420288334807
0.2969045948900378,0.12595560131680425,101,50,22.777570714120998,2.35420288334807
0.298163829758844,0.12595434205688222,101,50,22.777570714120998,2.35420288334807
0.2994230520382616,0.12595308280954984,101,50,22.777570714120998,2.35420288334807
0.30068226172841633,0.12595182357480694,101,50,22.777570714120998,2.35420288334807
