Vout,Iout,Irradiance,Temperature,MaxVoltage,MaxPower
0.002426026672820454,0.48521,401,30,22.283832787869247,10.315974541645868
0.007278035158932038,0.48521,401,30,22.283832787869247,10.315974541645868
0.012129945004928094,0.48520752545232715,401,30,22.283832787869247,10.315974541645868
0.016981738588784656,0.48520267344384105,401,30,22.283832787869247,10.315974541645868
0.02183341015131856,0.4851978215342425,401,30,22.283832787869247,10.315974541645868
0.026684965349878315,0.48519296974114384,401,30,22.283832787869247,10.315974541645868
0.03153640940672567,0.4851881180700665,401,30,22.283832787869247,10.315974541645868
0.03638774714240443,0.4851832665153531,401,30,22.283832787869247,10.315974541645868
0.041238983006595474,0.48517841507178144,401,30,22.283832787869247,10.315974541645868
0.04609012110665158,0.4851735637345309,401,30,22.283832787869247,10.315974541645868
0.05094116523393662,0.4851687124991519,401,30,22.283832787869247,10.315974541645868
0.05579211888813827,0.48516386136153694,401,30,22.283832787869247,10.315974541645868
0.06064298529971008,0.48515901031789477,401,30,22.283832787869247,10.315974541645868
0.06549376745058667,0.4851541593647257,401,30,22.283832787869247,10.315974541645868
0.07034446809330527,0.4851493084987992,401,30,22.283832787869247,10.315974541645868
0.07519508976865585,0.48514445771713344,401,30,22.283832787869247,10.315974541645868
0.08004563482197333,0.48513960701697584,401,30,22.283832787869247,10.315974541645868
0.08489610541817612,0.48513475639578557,401,30,22.283832787869247,10.315974541645868
0.08974650355564777,0.4851299058512173,401,30,22.283832787869247,10.315974541645868
0.09459683107905031,0.4851250553811062,401,30,22.283832787869247,10.315974541645868
0.09944708969115189,0.48512020498345376,401,30,22.283832787869247,10.315974541645868
0.10429728096374431,0.48511535465641537,401,30,22.283832787869247,10.315974541645868
0.10914740634772048,0.48511050439828834,401,30,22.283832787869247,10.315974541645868
0.1139974671823767,0.4851056542075008,401,30,22.283832787869247,10.315974541645868
0.11884746470399896,0.4851008040826018,401,30,22.283832787869247,10.315974541645868
0.12369740005378879,0.4850959540222522,401,30,22.283832787869247,10.315974541645868
0.1285472742851791,0.48509110402521555,401,30,22.283832787869247,10.315974541645868
0.13339708837058742,0.4850862540903508,401,30,22.283832787869247,10.315974541645868
0.13824684320764916,0.4850814042166044,401,30,22.283832787869247,10.315974541645868
0.14309653962497157,0.48507655440300396,401,30,22.283832787869247,10.315974541645868
0.14794617838744487,0.4850717046486519,401,30,22.283832787869247,10.315974541645868
0.15279576020114466,0.48506685495271956,401,30,22.283832787869247,10.315974541645868
0.15764528571785727,0.48506200531444205,401,30,22.283832787869247,10.315974541645868
0.16249475553925696,0.4850571557331133,401,30,22.283832787869247,10.315974541645868
0.16734417022076137,0.4850523062080816,401,30,22.283832787869247,10.315974541645868
0.17219353027509085,0.48504745673874516,401,30,22.283832787869247,10.315974541645868
0.17704283617555344,0.48504260732454857,401,30,22.283832787869247,10.315974541645868
0.18189208835907747,0.4850377579649792,401,30,22.283832787869247,10.315974541645868
0.18674128722901057,0.48503290865956367,401,30,22.283832787869247,10.315974541645868
0.1915904331577035,0.4850280594078651,401,30,22.283832787869247,10.315974541645868
0.19643952648889493,0.4850232102094801,401,30,22.283832787869247,10.315974541645868
0.2012885675399132,0.48501836106403634,401,30,22.283832787869247,10.315974541645868
0.20613755660370817,0.4850135119711901,401,30,22.283832787869247,10.315974541645868
0.21098649395072674,0.48500866293062395,401,30,22.283832787869247,10.315974541645868
0.21583537983064474,0.48500381394204506,401,30,22.283832787869247,10.315974541645868
0.22068421447396477,0.48499896500518297,401,30,22.283832787869247,10.315974541645868
0.2255329980934915,0.48499411611978793,401,30,22.283832787869247,10.315974541645868
0.23038173088569328,0.4849892672856295,401,30,22.283832787869247,10.315974541645868
0.2352304130319592,0.48498441850249485,401,30,22.283832787869247,10.315974541645868
0.24007904469975933,0.4849795697701876,401,30,22.283832787869247,10.315974541645868
0.24492762604371549,0.4849747210885262,401,30,22.283832787869247,10.315974541645868
0.24977615720659002,0.48496987245734324,401,30,22.283832787869247,10.315974541645868
0.25462463832019827,0.48496502387648416,401,30,22.283832787869247,10.315974541645868
0.25947306950625054,0.48496017534580615,401,30,22.283832787869247,10.315974541645868
0.26432145087713016,0.4849553268651774,401,30,22.283832787869247,10.315974541645868
0.26916978253661056,0.4849504784344762,401,30,22.283832787869247,10.315974541645868
0.27401806458051803,0.48494563005359015,401,30,22.283832787869247,10.315974541645868
0.27886629709734306,0.4849407817224155,401,30,22.283832787869247,10.315974541645868
0.2837144801688049,0.48493593344085645,401,30,22.283832787869247,10.315974541645868
0.2885626138703725,0.48493108520882444,401,30,22.283832787869247,10.315974541645868
0.2934106982717453,0.4849262370262378,401,30,22.283832787869247,10.315974541645868
0.29825873343729725,0.48492138889302105,401,30,22.283832787869247,10.315974541645868
0.3031067194264867,0.4849165408091045,401,30,22.283832787869247,10.315974541645868
0.30795465629423424,0.4849116927744238,401,30,22.283832787869247,10.315974541645868
0.31280254409127206,0.48490684478891943,401,30,22.283832787869247,10.315974541645868
0.3176503828644665,0.4849019968525365,401,30,22.283832787869247,10.315974541645868
0.322498172657115,0.48489714896522423,401,30,22.283832787869247,10.315974541645868
0.3273459135092207,0.4848923011269358,401,30,22.283832787869247,10.315974541645868
0.3321936054577466,0.48488745333762795,401,30,22.283832787869247,10.315974541645868
0.3370412485368486,0.48488260559726065,401,30,22.283832787869247,10.315974541645868
0.341888842778092,0.4848777579057969,401,30,22.283832787869247,10.315974541645868
0.3467363882106507,0.48487291026320256,401,30,22.283832787869247,10.315974541645868
0.3515838848614912,0.4848680626694461,401,30,22.283832787869247,10.315974541645868
0.35643133275554234,0.4848632151244983,401,30,22.283832787869247,10.315974541645868
0.3612787319158523,0.48485836762833223,401,30,22.283832787869247,10.315974541645868
0.3661260823637332,0.4848535201809229,401,30,22.283832787869247,10.315974541645868
0.3709733841188943,0.48484867278224736,401,30,22.283832787869247,10.315974541645868
0.3758206371995661,0.4848438254322842,401,30,22.283832787869247,10.315974541645868
0.38066784162261347,0.4848389781310138,401,30,22.283832787869247,10.315974541645868
0.38551499740364104,0.48483413087841787,401,30,22.283832787869247,10.315974541645868
0.39036210455709014,0.4848292836744795,401,30,22.283832787869247,10.315974541645868
0.39520916309632786,0.4848244365191832,401,30,22.283832787869247,10.315974541645868
0.4000561730337304,0.4848195894125145,401,30,22.283832787869247,10.315974541645868
0.40490313438075903,0.48481474235446,401,30,22.283832787869247,10.315974541645868
0.4097500471480303,0.4848098953450073,401,30,22.283832787869247,10.315974541645868
0.4145969113453812,0.48480504838414495,401,30,22.283832787869247,10.315974541645868
0.41944372698192905,0.4848002014718624,401,30,22.283832787869247,10.315974541645868
0.4242904940661271,0.48479535460814976,401,30,22.283832787869247,10.315974541645868
0.42913721260581533,0.48479050779299787,401,30,22.283832787869247,10.315974541645868
0.4339838826082679,0.48478566102639836,401,30,22.283832787869247,10.315974541645868
0.43883050408023644,0.48478081430834336,401,30,22.283832787869247,10.315974541645868
0.4436770770279903,0.4847759676388256,401,30,22.283832787869247,10.315974541645868
0.4485236014573541,0.4847711210178383,401,30,22.283832787869247,10.315974541645868
0.4533700773737411,0.48476627444537523,401,30,22.283832787869247,10.315974541645868
0.45821650478218556,0.4847614279214305,401,30,22.283832787869247,10.315974541645868
0.46306288368737153,0.4847565814459988,401,30,22.283832787869247,10.315974541645868
0.46790921409366026,0.484751735019075,401,30,22.283832787869247,10.315974541645868
0.47275549600511424,0.48474688864065446,401,30,22.283832787869247,10.315974541645868
0.47760172942552104,0.4847420423107328,401,30,22.283832787869247,10.315974541645868
0.4824479143584139,0.484737196029306,401,30,22.283832787869247,10.315974541645868
0.4872940508070915,0.4847323497963702,401,30,22.283832787869247,10.315974541645868
0.49214013877463575,0.48472750361192196,401,30,22.283832787869247,10.315974541645868
0.49698617826392927,0.4847226574759579,401,30,22.283832787869247,10.315974541645868
0.5018321692776695,0.484717811388475,401,30,22.283832787869247,10.315974541645868
0.506678111818384,0.4847129653494703,401,30,22.283832787869247,10.315974541645868
0.511524005888443,0.48470811935894115,401,30,22.283832787869247,10.315974541645868
0.5163698514900718,0.48470327341688507,401,30,22.283832787869247,10.315974541645868
0.5212156486253614,0.4846984275232996,401,30,22.283832787869247,10.315974541645868
0.5260613972962797,0.48469358167818255,401,30,22.283832787869247,10.315974541645868
0.5309070975046798,0.4846887358815319,401,30,22.283832787869247,10.315974541645868
0.5357527492523098,0.4846838901333455,401,30,22.283832787869247,10.315974541645868
0.5405983525408204,0.4846790444336217,401,30,22.283832787869247,10.315974541645868
0.5454439073717732,0.4846741987823587,401,30,22.283832787869247,10.315974541645868
0.5502894137466461,0.48466935317955473,401,30,22.283832787869247,10.315974541645868
0.5551348716668408,0.4846645076252083,401,30,22.283832787869247,10.315974541645868
0.5599802811336889,0.484659662119318,401,30,22.283832787869247,10.315974541645868
0.5648256421484559,0.48465481666188237,401,30,22.283832787869247,10.315974541645868
0.5696709547123479,0.48464997125290005,401,30,22.283832787869247,10.315974541645868
0.5745162188265152,0.48464512589236985,401,30,22.283832787869247,10.315974541645868
0.5793614344920567,0.4846402805802905,401,30,22.283832787869247,10.315974541645868
0.5842066017100246,0.48463543531666087,401,30,22.283832787869247,10.315974541645868
0.5890517204814267,0.48463059010147985,401,30,22.283832787869247,10.315974541645868
0.593896790807231,0.4846257449347464,401,30,22.283832787869247,10.315974541645868
0.5987418126883678,0.48462089981645956,401,30,22.283832787869247,10.315974541645868
0.6035867861257336,0.48461605474661823,401,30,22.283832787869247,10.315974541645868
0.6084317111201928,0.48461120972522165,401,30,22.283832787869247,10.315974541645868
0.6132765876725808,0.48460636475226876,401,30,22.283832787869247,10.315974541645868
0.6181214157837058,0.4846015198277588,401,30,22.283832787869247,10.315974541645868
0.6229661954543513,0.4845966749516909,401,30,22.283832787869247,10.315974541645868
0.6278109266852775,0.48459183012406426,401,30,22.283832787869247,10.315974541645868
0.6326556094772233,0.48458698534487815,401,30,22.283832787869247,10.315974541645868
0.6375002438309084,0.4845821406141317,401,30,22.283832787869247,10.315974541645868
0.6423448297470342,0.4845772959318242,401,30,22.283832787869247,10.315974541645868
0.6471893672262851,0.484572451297955,401,30,22.283832787869247,10.315974541645868
0.6520338562693305,0.48456760671252336,401,30,22.283832787869247,10.315974541645868
0.6568782968768253,0.48456276217552857,401,30,22.283832787869247,10.315974541645868
0.6617226890494116,0.48455791768697,401,30,22.283832787869247,10.315974541645868
0.6665670327877187,0.48455307324684693,401,30,22.283832787869247,10.315974541645868
0.6714113280923654,0.4845482288551588,401,30,22.283832787869247,10.315974541645868
0.6762555749639597,0.48454338451190493,401,30,22.283832787869247,10.315974541645868
0.6810997734031005,0.4845385402170847,401,30,22.283832787869247,10.315974541645868
0.6859439234103772,0.48453369597069756,401,30,22.283832787869247,10.315974541645868
0.6907880249863719,0.48452885177274285,401,30,22.283832787869247,10.315974541645868
0.6956320781316586,0.48452400762322,401,30,22.283832787869247,10.315974541645868
0.7004760828468047,0.4845191635221284,401,30,22.283832787869247,10.315974541645868
0.7053200391323707,0.48451431946946755,401,30,22.283832787869247,10.315974541645868
0.7101639469889122,0.4845094754652368,401,30,22.283832787869247,10.315974541645868
0.7150078064169779,0.4845046315094357,401,30,22.283832787869247,10.315974541645868
0.7198516174171127,0.4844997876020635,401,30,22.283832787869247,10.315974541645868
0.7246953799898566,0.48449494374311985,401,30,22.283832787869247,10.315974541645868
0.7295390941357447,0.4844900999326041,401,30,22.283832787869247,10.315974541645868
0.7343827598553089,0.48448525617051574,401,30,22.283832787869247,10.315974541645868
0.7392263771490769,0.48448041245685425,401,30,22.283832787869247,10.315974541645868
0.7440699460175735,0.48447556879161907,401,30,22.283832787869247,10.315974541645868
0.7489134664613201,0.48447072517480966,401,30,22.283832787869247,10.315974541645868
0.7537569384808351,0.4844658816064255,401,30,22.283832787869247,10.315974541645868
0.7586003620766343,0.4844610380864661,401,30,22.283832787869247,10.315974541645868
0.7634437372492315,0.484456194614931,401,30,22.283832787869247,10.315974541645868
0.7682870639991377,0.48445135119181953,401,30,22.283832787869247,10.315974541645868
0.7731303423268621,0.4844465078171313,401,30,22.283832787869247,10.315974541645868
0.7779735722329117,0.48444166449086573,401,30,22.283832787869247,10.315974541645868
0.7828167537177921,0.48443682121302234,401,30,22.283832787869247,10.315974541645868
0.7876598867820072,0.4844319779836006,401,30,22.283832787869247,10.315974541645868
0.7925029714260587,0.4844271348026001,401,30,22.283832787869247,10.315974541645868
0.7973460076504477,0.48442229167002016,401,30,22.283832787869247,10.315974541645868
0.8021889954556739,0.48441744858586044,401,30,22.283832787869247,10.315974541645868
0.8070319348422357,0.48441260555012033,401,30,22.283832787869247,10.315974541645868
0.81187482581063,0.48440776256279944,401,30,22.283832787869247,10.315974541645868
0.8167176683613533,0.4844029196238972,401,30,22.283832787869247,10.315974541645868
0.8215604624949008,0.48439807673341306,401,30,22.283832787869247,10.315974541645868
0.8264032082117669,0.48439323389134664,401,30,22.283832787869247,10.315974541645868
0.8312459055124453,0.4843883910976974,401,30,22.283832787869247,10.315974541645868
0.8360885543974288,0.48438354835246483,401,30,22.283832787869247,10.315974541645868
0.8409311548672096,0.48437870565564844,401,30,22.283832787869247,10.315974541645868
0.8457737069222793,0.4843738630072477,401,30,22.283832787869247,10.315974541645868
0.8506162105631286,0.4843690204072622,401,30,22.283832787869247,10.315974541645868
0.8554586657902485,0.4843641778556914,401,30,22.283832787869247,10.315974541645868
0.8603010726041285,0.4843593353525348,401,30,22.283832787869247,10.315974541645868
0.865143431005258,0.4843544928977919,401,30,22.283832787869247,10.315974541645868
0.8699857409941263,0.48434965049146234,401,30,22.283832787869247,10.315974541645868
0.874828002571222,0.4843448081335454,401,30,22.283832787869247,10.315974541645868
0.8796702157370334,0.4843399658240408,401,30,22.283832787869247,10.315974541645868
0.8845123804920487,0.48433512356294794,401,30,22.283832787869247,10.315974541645868
0.8893544968367549,0.48433028135026635,401,30,22.283832787869247,10.315974541645868
0.8941965647716401,0.4843254391859956,401,30,22.283832787869247,10.315974541645868
0.8990385842971909,0.4843205970701351,401,30,22.283832787869247,10.315974541645868
0.9038805554138943,0.4843157550026844,401,30,22.283832787869247,10.315974541645868
0.9087224781222372,0.4843109129836431,401,30,22.283832787869247,10.315974541645868
0.9135643524227057,0.4843060710130106,401,30,22.283832787869247,10.315974541645868
0.9184061783157861,0.48430122909078643,401,30,22.283832787869247,10.315974541645868
0.9232479558019644,0.48429638721697016,401,30,22.283832787869247,10.315974541645868
0.9280896848817265,0.4842915453915613,401,30,22.283832787869247,10.315974541645868
0.9329313655555583,0.4842867036145593,401,30,22.283832787869247,10.315974541645868
0.9377729978239455,0.4842818618859637,401,30,22.283832787869247,10.315974541645868
0.942614581687373,0.48427702020577407,401,30,22.283832787869247,10.315974541645868
0.9474561171463264,0.48427217857398985,401,30,22.283832787869247,10.315974541645868
0.9522976042012913,0.4842673369906106,401,30,22.283832787869247,10.315974541645868
0.9571390428527522,0.48426249545563577,401,30,22.283832787869247,10.315974541645868
0.9619804331011946,0.484257653969065,401,30,22.283832787869247,10.315974541645868
0.9668217749471033,0.4842528125308977,401,30,22.283832787869247,10.315974541645868
0.9716630683909631,0.4842479711411334,401,30,22.283832787869247,10.315974541645868
0.9765043134332585,0.48424312979977163,401,30,22.283832787869247,10.315974541645868
0.9813455100744748,0.4842382885068119,401,30,22.283832787869247,10.315974541645868
0.9861866583150962,0.48423344726225376,401,30,22.283832787869247,10.315974541645868
0.9910277581556074,0.48422860606609663,401,30,22.283832787869247,10.315974541645868
0.9958688095964928,0.4842237649183401,401,30,22.283832787869247,10.315974541645868
1.0007098126382372,0.48421892381898374,401,30,22.283832787869247,10.315974541645868
1.0055507672813246,0.48421408276802697,401,30,22.283832787869247,10.315974541645868
1.01039167352624,0.48420924176546937,401,30,22.283832787869247,10.315974541645868
1.015232531373467,0.4842044008113104,401,30,22.283832787869247,10.315974541645868
1.0200733408234899,0.4841995599055496,401,30,22.283832787869247,10.315974541645868
1.0249141018767933,0.48419471904818645,401,30,22.283832787869247,10.315974541645868
1.0297548145338613,0.4841898782392205,401,30,22.283832787869247,10.315974541645868
1.034595478795178,0.48418503747865127,401,30,22.283832787869247,10.315974541645868
1.0394360946612282,0.4841801967664783,401,30,22.283832787869247,10.315974541645868
1.044276662132495,0.48417535610270107,401,30,22.283832787869247,10.315974541645868
1.0491171812094633,0.48417051548731904,401,30,22.283832787869247,10.315974541645868
1.0539576518926166,0.48416567492033186,401,30,22.283832787869247,10.315974541645868
1.058798074182439,0.48416083440173896,401,30,22.283832787869247,10.315974541645868
1.0636384480794152,0.48415599393153985,401,30,22.283832787869247,10.315974541645868
1.068478773584028,0.4841511535097341,401,30,22.283832787869247,10.315974541645868
1.073319050696763,0.48414631313632117,401,30,22.283832787869247,10.315974541645868
1.0781592794181025,0.4841414728113006,401,30,22.283832787869247,10.315974541645868
1.0829994597485313,0.4841366325346719,401,30,22.283832787869247,10.315974541645868
1.0878395916885333,0.4841317923064346,401,30,22.283832787869247,10.315974541645868
1.0926796752385926,0.4841269521265882,401,30,22.283832787869247,10.315974541645868
1.0975197103991927,0.4841221119951322,401,30,22.283832787869247,10.315974541645868
1.1023596971708176,0.48411727191206616,401,30,22.283832787869247,10.315974541645868
1.107199635553951,0.48411243187738956,401,30,22.283832787869247,10.315974541645868
1.1120395255490774,0.484107591891102,401,30,22.283832787869247,10.315974541645868
1.1168793671566801,0.48410275195320285,401,30,22.283832787869247,10.315974541645868
1.121719160377243,0.4840979120636917,401,30,22.283832787869247,10.315974541645868
1.1265589052112503,0.4840930722225681,401,30,22.283832787869247,10.315974541645868
1.1313986016591853,0.4840882324298315,401,30,22.283832787869247,10.315974541645868
1.136238249721532,0.4840833926854815,401,30,22.283832787869247,10.315974541645868
