Vout,Iout,Irradiance,Temperature,MaxVoltage,MaxPower
0.0025062259016740223,0.50125,401,50,22.843503866967982,10.913178831600291
0.007518631362533095,0.50125,401,50,22.843503866967982,10.913178831600291
0.012530934922446377,0.5012474436490983,401,50,22.843503866967982,10.913178831600291
0.01754311837684365,0.5012424312436374,401,50,22.843503866967982,10.913178831600291
0.022555175776155536,0.5012374189403331,401,50,22.843503866967982,10.913178831600291
0.02756711296475032,0.50123240675738,401,50,22.843503866967982,10.913178831600291
0.03257893533752651,0.5012273947004819,401,50,22.843503866967982,10.913178831600291
0.037590647874384736,0.5012223827637945,401,50,22.843503866967982,10.913178831600291
0.04260225517210277,0.501217370941923,401,50,22.843503866967982,10.913178831600291
0.04761376147381361,0.5012123592298873,401,50,22.843503866967982,10.913178831600291
0.05262517069621551,0.5012073476230908,401,50,22.843503866967982,10.913178831600291
0.05763648645468829,0.5012023361172903,401,50,22.843503866967982,10.913178831600291
0.06264771208647733,0.501197324708569,401,50,22.843503866967982,10.913178831600291
0.06765885067209366,0.5011923133933117,401,50,22.843503866967982,10.913178831600291
0.07266990505506743,0.501187302168181,401,50,22.843503866967982,10.913178831600291
0.07768087786018166,0.5011822910300966,401,50,22.843503866967982,10.913178831600291
0.08269177151030302,0.5011772799762146,401,50,22.843503866967982,10.913178831600291
0.08770258824191747,0.5011722690039107,401,50,22.843503866967982,10.913178831600291
0.09271333011947082,0.5011672581107617,401,50,22.843503866967982,10.913178831600291
0.09772399904860565,0.5011622472945312,401,50,22.843503866967982,10.913178831600291
0.10273459678838001,0.5011572365531547,401,50,22.843503866967982,10.913178831600291
0.10774512496254572,0.5011522258847266,401,50,22.843503866967982,10.913178831600291
0.11275558506995913,0.501147215287488,401,50,22.843503866967982,10.913178831600291
0.11776597849419077,0.5011422047598149,401,50,22.843503866967982,10.913178831600291
0.1227763065123956,0.5011371943002085,401,50,22.843503866967982,10.913178831600291
0.1277865703035008,0.5011321839072853,401,50,22.843503866967982,10.913178831600291
0.13279677095576356,0.5011271735797681,401,50,22.843503866967982,10.913178831600291
0.13780690947374735,0.5011221633164781,401,50,22.843503866967982,10.913178831600291
0.1428169867847615,0.5011171531163269,401,50,22.843503866967982,10.913178831600291
0.14782700374480537,0.5011121429783099,401,50,22.843503866967982,10.913178831600291
0.15283696114405462,0.5011071329014999,401,50,22.843503866967982,10.913178831600291
0.1578468597119263,0.5011021228850409,401,50,22.843503866967982,10.913178831600291
0.16285670012175338,0.5010971129281426,401,50,22.843503866967982,10.913178831600291
0.16786648299510018,0.5010921030300758,401,50,22.843503866967982,10.913178831600291
0.1728762089057452,0.501087093190167,401,50,22.843503866967982,10.913178831600291
0.1778858783833583,0.5010820834077946,401,50,22.843503866967982,10.913178831600291
0.18289549191689405,0.5010770736823849,401,50,22.843503866967982,10.913178831600291
0.18790504995772464,0.5010720640134083,401,50,22.843503866967982,10.913178831600291
0.19291455292253157,0.5010670544003757,401,50,22.843503866967982,10.913178831600291
0.19792400119597467,0.5010620448428359,401,50,22.843503866967982,10.913178831600291
0.20293339513315595,0.501057035340372,401,50,22.843503866967982,10.913178831600291
0.20794273506189384,0.5010520258925996,401,50,22.843503866967982,10.913178831600291
0.21295202128482246,0.5010470164991633,401,50,22.843503866967982,10.913178831600291
0.21796125408132927,0.5010420071597355,401,50,22.843503866967982,10.913178831600291
0.22297043370934377,0.5010369978740135,401,50,22.843503866967982,10.913178831600291
0.22797956040698847,0.5010319886417179,401,50,22.843503866967982,10.913178831600291
0.23298863439410283,0.5010269794625909,401,50,22.843503866967982,10.913178831600291
0.23799765587365015,0.5010219703363942,401,50,22.843503866967982,10.913178831600291
0.24300662503301573,0.501016961262908,401,50,22.843503866967982,10.913178831600291
0.24801554204520593,0.5010119522419293,401,50,22.843503866967982,10.913178831600291
0.253024407069954,0.5010069432732708,401,50,22.843503866967982,10.913178831600291
0.2580332202547417,0.5010019343567595,401,50,22.843503866967982,10.913178831600291
0.26304198173574195,0.5009969254922357,401,50,22.843503866967982,10.913178831600291
0.26805069163868855,0.5009919166795518,401,50,22.843503866967982,10.913178831600291
0.27305935007967996,0.5009869079185717,401,50,22.843503866967982,10.913178831600291
0.27806795716592003,0.5009818992091696,401,50,22.843503866967982,10.913178831600291
0.28307651299640285,0.5009768905512295,401,50,22.843503866967982,10.913178831600291
0.28808501766254446,0.5009718819446441,401,50,22.843503866967982,10.913178831600291
0.2930934712487654,0.5009668733893146,401,50,22.843503866967982,10.913178831600291
0.29810187383302944,0.5009618648851493,401,50,22.843503866967982,10.913178831600291
0.30311022548734023,0.5009568564320639,401,50,22.843503866967982,10.913178831600291
0.3081185262781997,0.5009518480299805,401,50,22.843503866967982,10.913178831600291
0.3131267762670317,0.500946839678827,401,50,22.843503866967982,10.913178831600291
0.31813497551057246,0.500941831378537,401,50,22.843503866967982,10.913178831600291
0.32314312406123147,0.500936823129049,401,50,22.843503866967982,10.913178831600291
0.3281512219674241,0.5009318149303063,401,50,22.843503866967982,10.913178831600291
0.33315926927387907,0.5009268067822564,401,50,22.843503866967982,10.913178831600291
0.3381672660219222,0.5009217986848511,401,50,22.843503866967982,10.913178831600291
0.3431752122497382,0.5009167906380454,401,50,22.843503866967982,10.913178831600291
0.3481831079926122,0.5009117826417981,401,50,22.843503866967982,10.913178831600291
0.35319095328315303,0.5009067746960711,401,50,22.843503866967982,10.913178831600291
0.35819874815149877,0.5009017668008291,401,50,22.843503866967982,10.913178831600291
0.3632064926255075,0.5008967589560394,401,50,22.843503866967982,10.913178831600291
0.3682141867309323,0.5008917511616718,401,50,22.843503866967982,10.913178831600291
0.3732218304915831,0.5008867434176986,401,50,22.843503866967982,10.913178831600291
0.37822942392947645,0.5008817357240939,401,50,22.843503866967982,10.913178831600291
0.3832369670649735,0.500876728080834,401,50,22.843503866967982,10.913178831600291
0.38824445991690726,0.500871720487897,401,50,22.843503866967982,10.913178831600291
0.3932519025027,0.5008667129452622,401,50,22.843503866967982,10.913178831600291
0.3982592948384723,0.500861705452911,401,50,22.843503866967982,10.913178831600291
0.4032666369391426,0.500856698010826,401,50,22.843503866967982,10.913178831600291
0.40827392881852037,0.5008516906189909,401,50,22.843503866967982,10.913178831600291
0.41328117048939084,0.500846683277391,401,50,22.843503866967982,10.913178831600291
0.418288361963594,0.5008416759860124,401,50,22.843503866967982,10.913178831600291
0.4232955032520973,0.5008366687448422,401,50,22.843503866967982,10.913178831600291
0.42830259436506307,0.5008316615538688,401,50,22.843503866967982,10.913178831600291
0.43330963531191,0.500826654413081,401,50,22.843503866967982,10.913178831600291
0.43831662610137084,0.5008216473224688,401,50,22.843503866967982,10.913178831600291
0.4433235667415447,0.5008166402820227,401,50,22.843503866967982,10.913178831600291
0.4483304572399461,0.5008116332917338,401,50,22.843503866967982,10.913178831600291
0.45333729760355,0.5008066263515945,401,50,22.843503866967982,10.913178831600291
0.45834408783883296,0.5008016194615967,401,50,22.843503866967982,10.913178831600291
0.46335082795181204,0.5007966126217338,401,50,22.843503866967982,10.913178831600291
0.46835751794807956,0.5007916058319992,401,50,22.843503866967982,10.913178831600291
0.4733641578328363,0.5007865990923869,401,50,22.843503866967982,10.913178831600291
0.4783707476109211,0.5007815924028913,401,50,22.843503866967982,10.913178831600291
0.4833772872868391,0.5007765857635073,401,50,22.843503866967982,10.913178831600291
0.48838377686478746,0.5007715791742298,401,50,22.843503866967982,10.913178831600291
0.4933902163486787,0.5007665726350545,401,50,22.843503866967982,10.913178831600291
0.4983966057421629,0.5007615661459772,401,50,22.843503866967982,10.913178831600291
0.5034029450486478,0.5007565597069941,401,50,22.843503866967982,10.913178831600291
0.5084092342713177,0.5007515533181012,401,50,22.843503866967982,10.913178831600291
0.5134154734131497,0.5007465469792953,401,50,22.843503866967982,10.913178831600291
0.518421662476931,0.5007415406905733,401,50,22.843503866967982,10.913178831600291
0.5234278014652727,0.5007365344519321,401,50,22.843503866967982,10.913178831600291
0.5284338903806229,0.500731528263369,401,50,22.843503866967982,10.913178831600291
0.5334399292252807,0.5007265221248812,401,50,22.843503866967982,10.913178831600291
0.5384459180014065,0.5007215160364665,401,50,22.843503866967982,10.913178831600291
0.5434518567110328,0.5007165099981224,401,50,22.843503866967982,10.913178831600291
0.5484577453560742,0.500711504009847,401,50,22.843503866967982,10.913178831600291
0.5534635839383366,0.5007064980716379,401,50,22.843503866967982,10.913178831600291
0.5584693724595254,0.5007014921834935,401,50,22.843503866967982,10.913178831600291
0.5634751109212535,0.5006964863454119,401,50,22.843503866967982,10.913178831600291
0.5684807993250478,0.5006914805573912,401,50,22.843503866967982,10.913178831600291
0.5734864376723565,0.5006864748194301,401,50,22.843503866967982,10.913178831600291
0.5784920259645547,0.5006814691315269,401,50,22.843503866967982,10.913178831600291
0.5834975642029503,0.5006764634936801,401,50,22.843503866967982,10.913178831600291
0.5885030523887892,0.5006714579058885,401,50,22.843503866967982,10.913178831600291
0.5935084905232595,0.5006664523681507,401,50,22.843503866967982,10.913178831600291
0.5985138786074967,0.5006614468804654,401,50,22.843503866967982,10.913178831600291
0.6035192166425875,0.5006564414428315,401,50,22.843503866967982,10.913178831600291
0.6085245046295732,0.5006514360552478,401,50,22.843503866967982,10.913178831600291
0.6135297425694535,0.5006464307177132,401,50,22.843503866967982,10.913178831600291
0.61853493046319,0.5006414254302268,401,50,22.843503866967982,10.913178831600291
0.6235400683117083,0.5006364201927874,401,50,22.843503866967982,10.913178831600291
0.6285451561159017,0.5006314150053942,401,50,22.843503866967982,10.913178831600291
0.6335501938766331,0.5006264098680463,401,50,22.843503866967982,10.913178831600291
0.6385551815947375,0.5006214047807426,401,50,22.843503866967982,10.913178831600291
0.6435601192710241,0.5006163997434824,401,50,22.843503866967982,10.913178831600291
0.6485650069062784,0.5006113947562647,401,50,22.843503866967982,10.913178831600291
0.6535698445012638,0.500606389819089,401,50,22.843503866967982,10.913178831600291
0.6585746320567237,0.5006013849319543,401,50,22.843503866967982,10.913178831600291
0.6635793695733825,0.5005963800948597,401,50,22.843503866967982,10.913178831600291
0.6685840570519476,0.5005913753078047,401,50,22.843503866967982,10.913178831600291
0.6735886944931103,0.5005863705707886,401,50,22.843503866967982,10.913178831600291
0.6785932818975472,0.5005813658838105,401,50,22.843503866967982,10.913178831600291
0.6835978192659214,0.5005763612468698,401,50,22.843503866967982,10.913178831600291
0.6886023065988834,0.5005713566599659,401,50,22.843503866967982,10.913178831600291
0.6936067438970722,0.500566352123098,401,50,22.843503866967982,10.913178831600291
0.6986111311611161,0.5005613476362655,401,50,22.843503866967982,10.913178831600291
0.7036154683916331,0.5005563431994677,401,50,22.843503866967982,10.913178831600291
0.7086197555892332,0.5005513388127041,401,50,22.843503866967982,10.913178831600291
0.713623992754517,0.5005463344759741,401,50,22.843503866967982,10.913178831600291
0.7186281798880778,0.5005413301892768,401,50,22.843503866967982,10.913178831600291
0.7236323169905012,0.500536325952612,401,50,22.843503866967982,10.913178831600291
0.7286364040623673,0.5005313217659789,401,50,22.843503866967982,10.913178831600291
0.7336404411042488,0.5005263176293768,401,50,22.843503866967982,10.913178831600291
0.7386444281167135,0.5005213135428054,401,50,22.843503866967982,10.913178831600291
0.743648365100324,0.5005163095062639,401,50,22.843503866967982,10.913178831600291
0.7486522520556379,0.5005113055197519,401,50,22.843503866967982,10.913178831600291
0.7536560889832083,0.5005063015832687,401,50,22.843503866967982,10.913178831600291
0.7586598758835843,0.5005012976968137,401,50,22.843503866967982,10.913178831600291
0.7636636127573116,0.5004962938603866,401,50,22.843503866967982,10.913178831600291
0.7686672996049323,0.5004912900739866,401,50,22.843503866967982,10.913178831600291
0.7736709364269845,0.5004862863376133,401,50,22.843503866967982,10.913178831600291
0.7786745232240041,0.500481282651266,401,50,22.843503866967982,10.913178831600291
0.7836780599965241,0.5004762790149444,401,50,22.843503866967982,10.913178831600291
0.7886815467450748,0.5004712754286477,401,50,22.843503866967982,10.913178831600291
0.7936849834701843,0.5004662718923756,401,50,22.843503866967982,10.913178831600291
0.798688370172379,0.5004612684061274,401,50,22.843503866967982,10.913178831600291
0.8036917068521825,0.5004562649699026,401,50,22.843503866967982,10.913178831600291
0.8086949935101169,0.5004512615837008,401,50,22.843503866967982,10.913178831600291
0.8136982301467024,0.5004462582475213,401,50,22.843503866967982,10.913178831600291
0.8187014167624581,0.5004412549613637,401,50,22.843503866967982,10.913178831600291
0.8237045533579012,0.5004362517252274,401,50,22.843503866967982,10.913178831600291
0.8287076399335482,0.500431248539112,401,50,22.843503866967982,10.913178831600291
0.8337106764899136,0.500426245403017,401,50,22.843503866967982,10.913178831600291
0.8387136630275108,0.5004212423169415,401,50,22.843503866967982,10.913178831600291
0.8437165995468532,0.5004162392808855,401,50,22.843503866967982,10.913178831600291
0.8487194860484519,0.5004112362948482,401,50,22.843503866967982,10.913178831600291
0.8537223225328175,0.5004062333588292,401,50,22.843503866967982,10.913178831600291
0.8587251090004605,0.5004012304728279,401,50,22.843503866967982,10.913178831600291
0.8637278454518895,0.5003962276368438,401,50,22.843503866967982,10.913178831600291
0.8687305318876135,0.5003912248508765,401,50,22.843503866967982,10.913178831600291
0.8737331683081399,0.5003862221149253,401,50,22.843503866967982,10.913178831600291
0.878735754713976,0.5003812194289898,401,50,22.843503866967982,10.913178831600291
0.8837382911056287,0.5003762167930697,401,50,22.843503866967982,10.913178831600291
0.8887407774836038,0.500371214207164,401,50,22.843503866967982,10.913178831600291
0.8937432138484072,0.5003662116712727,401,50,22.843503866967982,10.913178831600291
0.898745600200544,0.500361209185395,401,50,22.843503866967982,10.913178831600291
0.9037479365405188,0.5003562067495304,401,50,22.843503866967982,10.913178831600291
0.9087502228688363,0.5003512043636785,401,50,22.843503866967982,10.913178831600291
0.9137524591860007,0.5003462020278387,401,50,22.843503866967982,10.913178831600291
0.9187546454925154,0.5003411997420107,401,50,22.843503866967982,10.913178831600291
0.9237567817888842,0.5003361975061937,401,50,22.843503866967982,10.913178831600291
0.9287588680756101,0.5003311953203875,401,50,22.843503866967982,10.913178831600291
0.9337609043531966,0.5003261931845914,401,50,22.843503866967982,10.913178831600291
0.9387628906221457,0.5003211910988048,401,50,22.843503866967982,10.913178831600291
0.9437648268829602,0.5003161890630274,401,50,22.843503866967982,10.913178831600291
0.9487667131361425,0.5003111870772587,401,50,22.843503866967982,10.913178831600291
0.9537685493821945,0.5003061851414982,401,50,22.843503866967982,10.913178831600291
0.9587703356216183,0.5003011832557451,401,50,22.843503866967982,10.913178831600291
0.9637720718549154,0.5002961814199993,401,50,22.843503866967982,10.913178831600291
0.9687737580825879,0.5002911796342601,401,50,22.843503866967982,10.913178831600291
0.9737753943051369,0.5002861778985269,401,50,22.843503866967982,10.913178831600291
0.9787769805230642,0.5002811762127994,401,50,22.843503866967982,10.913178831600291
0.9837785167368709,0.5002761745770771,401,50,22.843503866967982,10.913178831600291
0.9887800029470579,0.5002711729913593,401,50,22.843503866967982,10.913178831600291
0.9937814391541263,0.5002661714556457,401,50,22.843503866967982,10.913178831600291
0.9987828253585774,0.5002611699699356,401,50,22.843503866967982,10.913178831600291
1.0037841615609118,0.5002561685342287,401,50,22.843503866967982,10.913178831600291
1.0087854477616307,0.5002511671485244,401,50,22.843503866967982,10.913178831600291
1.013786683961234,0.5002461658128222,401,50,22.843503866967982,10.913178831600291
1.018787870160223,0.5002411645271216,401,50,22.843503866967982,10.913178831600291
1.0237890063590984,0.5002361632914222,401,50,22.843503866967982,10.913178831600291
1.0287900925583602,0.5002311621057233,401,50,22.843503866967982,10.913178831600291
1.0337911287585093,0.5002261609700246,401,50,22.843503866967982,10.913178831600291
1.0387921149600459,0.5002211598843254,401,50,22.843503866967982,10.913178831600291
1.0437930511634705,0.5002161588486254,401,50,22.843503866967982,10.913178831600291
1.0487939373692834,0.5002111578629239,401,50,22.843503866967982,10.913178831600291
1.0537947735779851,0.5002061569272206,401,50,22.843503866967982,10.913178831600291
1.0587955597900753,0.5002011560415149,401,50,22.843503866967982,10.913178831600291
1.0637962960060547,0.5001961552058063,401,50,22.843503866967982,10.913178831600291
1.0687969822264234,0.5001911544200943,401,50,22.843503866967982,10.913178831600291
1.0737976184516815,0.5001861536843784,401,50,22.843503866967982,10.913178831600291
1.078798204682329,0.5001811529986581,401,50,22.843503866967982,10.913178831600291
1.0837987409188665,0.5001761523629329,401,50,22.843503866967982,10.913178831600291
1.0887992271617934,0.5001711517772024,401,50,22.843503866967982,10.913178831600291
1.0937996634116103,0.5001661512414659,401,50,22.843503866967982,10.913178831600291
1.0988000496688166,0.500161150755723,401,50,22.843503866967982,10.913178831600291
1.103800385933913,0.5001561503199733,401,50,22.843503866967982,10.913178831600291
1.1088006722073986,0.500151149934216,401,50,22.843503866967982,10.913178831600291
1.1138009084897744,0.500146149598451,401,50,22.843503866967982,10.913178831600291
1.1188010947815399,0.5001411493126776,401,50,22.843503866967982,10.913178831600291
1.1238012310831949,0.5001361490768952,401,50,22.843503866967982,10.913178831600291
1.1288013173952394,0.5001311488911035,401,50,22.843503866967982,10.913178831600291
1.1338013537181737,0.5001261487553019,401,50,22.843503866967982,10.913178831600291
1.1388013400524968,0.5001211486694899,401,50,22.843503866967982,10.913178831600291
1.1438012763987093,0.5001161486336669,401,50,22.843503866967982,10.913178831600291
1.1488011627573107,0.5001111486478326,401,50,22.843503866967982,10.913178831600291
1.153800999128801,0.5001061487119864,401,50,22.843503866967982,10.913178831600291
1.1588007855136802,0.5001011488261278,401,50,22.843503866967982,10.913178831600291
1.1638005219124476,0.5000961489902563,401,50,22.843503866967982,10.913178831600291
1.168800208325604,0.5000911492043714,401,50,22.843503866967982,10.913178831600291
1.173799844753648,0.5000861494684726,401,50,22.843503866967982,10.913178831600291
1.1787994311970804,0.5000811497825595,401,50,22.843503866967982,10.913178831600291
1.1837989676564,0.5000761501466314,401,50,22.843503866967982,10.913178831600291
