Vout,Iout,Irradiance,Temperature,MaxVoltage,MaxPower
0.009365759944615916,1.8731699999999998,1601,10,20.829961976060847,38.584940213819614
0.02809710665208203,1.8731699999999998,1601,10,20.829961976060847,38.584940213819614
0.04682807255596784,1.8731604469230552,1601,10,20.829961976060847,38.584940213819614
0.06555858962583984,1.8731417155763477,1601,10,20.829961976060847,38.584940213819614
0.08428863562817208,1.873122984611399,1601,10,20.829961976060847,38.584940213819614
0.10301823240335434,1.8731042540962024,1601,10,20.829961976060847,38.584940213819614
0.12174740011210881,1.8730855240520732,1601,10,20.829961976060847,38.584940213819614
0.14047615736431174,1.873066794457171,1601,10,20.829961976060847,38.584940213819614
0.1592045213381102,1.8730480652913353,1601,10,20.829961976060847,38.584940213819614
0.17793250789008166,1.873029336535956,1601,10,20.829961976060847,38.584940213819614
0.1966601316569177,1.8730106081738551,1601,10,20.829961976060847,38.584940213819614
0.21538740614928373,1.872991880189176,1601,10,20.829961976060847,38.584940213819614
0.23411434383845736,1.8729731525672821,1601,10,20.829961976060847,38.584940213819614
0.25284095623630054,1.8729544252946624,1601,10,20.829961976060847,38.584940213819614
0.2715672539690785,1.872935698358846,1601,10,20.829961976060847,38.584940213819614
0.2902932468455989,1.872916971748321,1601,10,20.829961976060847,38.584940213819614
0.30901894392010826,1.872898245452461,1601,10,20.829961976060847,38.584940213819614
0.32774435355034914,1.872879519461457,1601,10,20.829961976060847,38.584940213819614
0.34646948345115036,1.8728607937662551,1601,10,20.829961976060847,38.584940213819614
0.36519434074389356,1.8728420683584974,1601,10,20.829961976060847,38.584940213819614
0.38391893200217414,1.8728233432304693,1601,10,20.829961976060847,38.584940213819614
0.4026432632939487,1.872804618375049,1601,10,20.829961976060847,38.584940213819614
0.42136734022043965,1.8727858937856632,1601,10,20.829961976060847,38.584940213819614
0.44009116795204667,1.872767169456244,1601,10,20.829961976060847,38.584940213819614
0.45881475126149446,1.87274844538119,1601,10,20.829961976060847,38.584940213819614
0.47753809455443114,1.8727297215553307,1601,10,20.829961976060847,38.584940213819614
0.49626120189767103,1.8727109979738938,1601,10,20.829961976060847,38.584940213819614
0.5149840770452654,1.8726922746324732,1601,10,20.829961976060847,38.584940213819614
0.5337067234625671,1.8726735515270023,1601,10,20.829961976060847,38.584940213819614
0.5524291443484429,1.872654828653727,1601,10,20.829961976060847,38.584940213819614
0.571151342655778,1.872636106009182,1601,10,20.829961976060847,38.584940213819614
0.5898733211104018,1.8726173835901685,1601,10,20.829961976060847,38.584940213819614
0.6085950822285581,1.8725986613937333,1601,10,20.829961976060847,38.584940213819614
0.6273166283330308,1.872579939417151,1601,10,20.829961976060847,38.584940213819614
0.6460379615680293,1.8725612176579052,1601,10,20.829961976060847,38.584940213819614
0.6647590839129282,1.8725424961136727,1601,10,20.829961976060847,38.584940213819614
0.6834799971949493,1.87252377478231,1601,10,20.829961976060847,38.584940213819614
0.7022007031008699,1.8725050536618373,1601,10,20.829961976060847,38.584940213819614
0.7209212031878272,1.8724863327504273,1601,10,20.829961976060847,38.584940213819614
0.7396414988932941,1.8724676120463934,1601,10,20.829961976060847,38.584940213819614
0.7583615915442863,1.8724488915481787,1601,10,20.829961976060847,38.584940213819614
0.7770814823658602,1.8724301712543452,1601,10,20.829961976060847,38.584940213819614
0.795801172488959,1.8724114511635663,1601,10,20.829961976060847,38.584940213819614
0.8145206629576524,1.8723927312746167,1601,10,20.829961976060847,38.584940213819614
0.833239954735823,1.8723740115863656,1601,10,20.829961976060847,38.584940213819614
0.8519590487133335,1.872355292097769,1601,10,20.829961976060847,38.584940213819614
0.8706779457117235,1.8723365728078627,1601,10,20.829961976060847,38.584940213819614
0.8893966464894661,1.8723178537157572,1601,10,20.829961976060847,38.584940213819614
0.9081151517468206,1.8722991348206308,1601,10,20.829961976060847,38.584940213819614
0.9268334621303103,1.872280416121725,1601,10,20.829961976060847,38.584940213819614
0.9455515782368589,1.8722616976183395,1601,10,20.829961976060847,38.584940213819614
0.9642695006176047,1.8722429793098279,1601,10,20.829961976060847,38.584940213819614
0.9829872297814256,1.8722242611955933,1601,10,20.829961976060847,38.584940213819614
1.0017047661981886,1.8722055432750841,1601,10,20.829961976060847,38.584940213819614
1.0204221103017532,1.8721868255477923,1601,10,20.829961976060847,38.584940213819614
1.0391392624927402,1.8721681080132473,1601,10,20.829961976060847,38.584940213819614
1.0578562231410906,1.8721493906710154,1601,10,20.829961976060847,38.584940213819614
1.076572992588425,1.8721306735206962,1601,10,20.829961976060847,38.584940213819614
1.0952895711502235,1.8721119565619195,1601,10,20.829961976060847,38.584940213819614
1.1140059591178362,1.872093239794344,1601,10,20.829961976060847,38.584940213819614
1.1327221567603405,1.8720745232176539,1601,10,20.829961976060847,38.584940213819614
1.1514381643262546,1.872055806831558,1601,10,20.829961976060847,38.584940213819614
1.1701539820451181,1.872037090635787,1601,10,20.829961976060847,38.584940213819614
1.1888696101289553,1.872018374630093,1601,10,20.829961976060847,38.584940213819614
1.2075850487736193,1.8719996588142456,1601,10,20.829961976060847,38.584940213819614
1.2263002981600386,1.8719809431880334,1601,10,20.829961976060847,38.584940213819614
1.245015358455365,1.8719622277512602,1601,10,20.829961976060847,38.584940213819614
1.2637302298140325,1.8719435125037454,1601,10,20.829961976060847,38.584940213819614
1.2824449123787367,1.8719247974453217,1601,10,20.829961976060847,38.584940213819614
1.3011594062813385,1.8719060825758345,1601,10,20.829961976060847,38.584940213819614
1.319873711643697,1.8718873678951413,1601,10,20.829961976060847,38.584940213819614
1.3385878285784383,1.8718686534031101,1601,10,20.829961976060847,38.584940213819614
1.3573017571896684,1.8718499390996193,1601,10,20.829961976060847,38.584940213819614
1.3760154975736254,1.871831224984556,1601,10,20.829961976060847,38.584940213819614
1.3947290498192877,1.871812511057816,1601,10,20.829961976060847,38.584940213819614
1.413442414008931,1.8717937973193037,1601,10,20.829961976060847,38.584940213819614
1.432155590218645,1.8717750837689293,1601,10,20.829961976060847,38.584940213819614
1.4508685785188078,1.8717563704066111,1601,10,20.829961976060847,38.584940213819614
1.4695813789745276,1.8717376572322728,1601,10,20.829961976060847,38.584940213819614
1.4882939916460463,1.871718944245844,1601,10,20.829961976060847,38.584940213819614
1.5070064165891142,1.8717002314472595,1601,10,20.829961976060847,38.584940213819614
1.5257186538553362,1.8716815188364593,1601,10,20.829961976060847,38.584940213819614
1.5444307034924922,1.8716628064133876,1601,10,20.829961976060847,38.584940213819614
1.5631425655448274,1.8716440941779926,1601,10,20.829961976060847,38.584940213819614
1.581854240053328,1.8716253821302267,1601,10,20.829961976060847,38.584940213819614
1.6005657270559697,1.8716066702700456,1601,10,20.829961976060847,38.584940213819614
1.6192770265879501,1.8715879585974082,1601,10,20.829961976060847,38.584940213819614
1.637988138681904,1.8715692471122767,1601,10,20.829961976060847,38.584940213819614
1.656699063368097,1.871550535814616,1601,10,20.829961976060847,38.584940213819614
1.6754098006746119,1.871531824704393,1601,10,20.829961976060847,38.584940213819614
1.6941203506275133,1.8715131137815781,1601,10,20.829961976060847,38.584940213819614
1.7128307132510046,1.8714944030461427,1601,10,20.829961976060847,38.584940213819614
1.731540888567571,1.871475692498061,1601,10,20.829961976060847,38.584940213819614
1.7502508765981117,1.8714569821373084,1601,10,20.829961976060847,38.584940213819614
1.7689606773620612,1.871438271963863,1601,10,20.829961976060847,38.584940213819614
1.7876702908775026,1.8714195619777034,1601,10,20.829961976060847,38.584940213819614
1.8063797171612719,1.8714008521788106,1601,10,20.829961976060847,38.584940213819614
1.8250889562290535,1.8713821425671662,1601,10,20.829961976060847,38.584940213819614
1.8437980080954686,1.8713634331427533,1601,10,20.829961976060847,38.584940213819614
1.8625068727741578,1.8713447239055565,1601,10,20.829961976060847,38.584940213819614
1.8812155502778558,1.871326014855561,1601,10,20.829961976060847,38.584940213819614
1.899924040618461,1.8713073059927532,1601,10,20.829961976060847,38.584940213819614
1.9186323438071007,1.8712885973171205,1601,10,20.829961976060847,38.584940213819614
1.9373404598541895,1.8712698888286508,1601,10,20.829961976060847,38.584940213819614
1.9560483887694848,1.8712511805273329,1601,10,20.829961976060847,38.584940213819614
1.9747561305621364,1.8712324724131566,1601,10,20.829961976060847,38.584940213819614
1.9934636852407355,1.8712137644861122,1601,10,20.829961976060847,38.584940213819614
2.012171052813355,1.8711950567461904,1601,10,20.829961976060847,38.584940213819614
2.03087823328759,1.8711763491933826,1601,10,20.829961976060847,38.584940213819614
2.0495852266705965,1.8711576418276807,1601,10,20.829961976060847,38.584940213819614
2.0682920329691235,1.8711389346490772,1601,10,20.829961976060847,38.584940213819614
2.0869986521895427,1.871120227657565,1601,10,20.829961976060847,38.584940213819614
2.1057050843378824,1.8711015208531372,1601,10,20.829961976060847,38.584940213819614
2.124411329419848,1.8710828142357874,1601,10,20.829961976060847,38.584940213819614
2.1431173874408525,1.87106410780551,1601,10,20.829961976060847,38.584940213819614
2.1618232584060335,1.8710454015622986,1601,10,20.829961976060847,38.584940213819614
2.180528942320279,1.871026695506148,1601,10,20.829961976060847,38.584940213819614
2.199234439188245,1.8710079896370535,1601,10,20.829961976060847,38.584940213819614
2.2179397490143704,1.87098928395501,1601,10,20.829961976060847,38.584940213819614
2.2366448718029006,1.8709705784600126,1601,10,20.829961976060847,38.584940213819614
2.2553498075578946,1.870951873152057,1601,10,20.829961976060847,38.584940213819614
2.2740545562832453,1.870933168031139,1601,10,20.829961976060847,38.584940213819614
2.292759117982688,1.8709144630972545,1601,10,20.829961976060847,38.584940213819614
2.311463492659816,1.8708957583503998,1601,10,20.829961976060847,38.584940213819614
2.3301676803180884,1.8708770537905708,1601,10,20.829961976060847,38.584940213819614
2.3488716809608436,1.8708583494177642,1601,10,20.829961976060847,38.584940213819614
2.367575494591306,1.8708396452319762,1601,10,20.829961976060847,38.584940213819614
2.386279121212597,1.870820941233204,1601,10,20.829961976060847,38.584940213819614
2.4049825608277384,1.870802237421444,1601,10,20.829961976060847,38.584940213819614
2.4236858134396666,1.8707835337966932,1601,10,20.829961976060847,38.584940213819614
2.4423888790512356,1.8707648303589484,1601,10,20.829961976060847,38.584940213819614
2.461091757665222,1.8707461271082066,1601,10,20.829961976060847,38.584940213819614
2.479794449284334,1.8707274240444656,1601,10,20.829961976060847,38.584940213819614
2.4984969539112143,1.8707087211677218,1601,10,20.829961976060847,38.584940213819614
2.5171992715484457,1.8706900184779731,1601,10,20.829961976060847,38.584940213819614
2.535901402198559,1.8706713159752164,1601,10,20.829961976060847,38.584940213819614
2.554603345864029,1.8706526136594495,1601,10,20.829961976060847,38.584940213819614
2.57330510254729,1.8706339115306696,1601,10,20.829961976060847,38.584940213819614
2.5920066722507276,1.8706152095888744,1601,10,20.829961976060847,38.584940213819614
2.610708054976691,1.8705965078340614,1601,10,20.829961976060847,38.584940213819614
2.6294092507274893,1.8705778062662282,1601,10,20.829961976060847,38.584940213819614
2.6481102595054016,1.8705591048853722,1601,10,20.829961976060847,38.584940213819614
2.666811081312673,1.8705404036914917,1601,10,20.829961976060847,38.584940213819614
2.68551171615152,1.870521702684584,1601,10,20.829961976060847,38.584940213819614
2.7042121640241317,1.8705030018646467,1601,10,20.829961976060847,38.584940213819614
2.7229124249326735,1.870484301231678,1601,10,20.829961976060847,38.584940213819614
2.7416124988792894,1.8704656007856755,1601,10,20.829961976060847,38.584940213819614
2.7603123858660994,1.870446900526637,1601,10,20.829961976060847,38.584940213819614
2.779012085895206,1.8704282004545605,1601,10,20.829961976060847,38.584940213819614
2.797711598968693,1.8704095005694437,1601,10,20.829961976060847,38.584940213819614
2.816410925088627,1.8703908008712846,1601,10,20.829961976060847,38.584940213819614
2.8351100642570617,1.870372101360081,1601,10,20.829961976060847,38.584940213819614
2.8538090164760335,1.870353402035831,1601,10,20.829961976060847,38.584940213819614
2.8725077817475695,1.8703347028985327,1601,10,20.829961976060847,38.584940213819614
2.8912063600736815,1.8703160039481836,1601,10,20.829961976060847,38.584940213819614
2.9099047514563705,1.870297305184782,1601,10,20.829961976060847,38.584940213819614
2.9286029558976305,1.8702786066083257,1601,10,20.829961976060847,38.584940213819614
2.9473009733994417,1.870259908218813,1601,10,20.829961976060847,38.584940213819614
2.965998803963779,1.8702412100162416,1601,10,20.829961976060847,38.584940213819614
2.9846964475926065,1.8702225120006095,1601,10,20.829961976060847,38.584940213819614
3.0033939042878837,1.870203814171915,1601,10,20.829961976060847,38.584940213819614
3.022091174051559,1.870185116530156,1601,10,20.829961976060847,38.584940213819614
3.04078825688558,1.8701664190753304,1601,10,20.829961976060847,38.584940213819614
3.059485152791885,1.8701477218074365,1601,10,20.829961976060847,38.584940213819614
3.078181861772407,1.8701290247264724,1601,10,20.829961976060847,38.584940213819614
3.096878383829074,1.8701103278324358,1601,10,20.829961976060847,38.584940213819614
3.1155747189638117,1.8700916311253248,1601,10,20.829961976060847,38.584940213819614
3.1342708671785373,1.870072934605138,1601,10,20.829961976060847,38.584940213819614
3.152966828475168,1.8700542382718728,1601,10,20.829961976060847,38.584940213819614
3.171662602855616,1.8700355421255277,1601,10,20.829961976060847,38.584940213819614
3.1903581903217892,1.8700168461661009,1601,10,20.829961976060847,38.584940213819614
3.209053590875594,1.8699981503935899,1601,10,20.829961976060847,38.584940213819614
3.227748804518933,1.8699794548079933,1601,10,20.829961976060847,38.584940213819614
3.2464438312537065,1.869960759409309,1601,10,20.829961976060847,38.584940213819614
3.2651386710818104,1.8699420641975353,1601,10,20.829961976060847,38.584940213819614
3.2838333240051423,1.8699233691726702,1601,10,20.829961976060847,38.584940213819614
3.302527790025595,1.8699046743347116,1601,10,20.829961976060847,38.584940213819614
3.3212220691450587,1.8698859796836578,1601,10,20.829961976060847,38.584940213819614
3.339916161365425,1.8698672852195068,1601,10,20.829961976060847,38.584940213819614
3.358610066688581,1.8698485909422569,1601,10,20.829961976060847,38.584940213819614
3.3773037851164127,1.8698298968519058,1601,10,20.829961976060847,38.584940213819614
3.395997316650806,1.8698112029484522,1601,10,20.829961976060847,38.584940213819614
3.414690661293644,1.8697925092318937,1601,10,20.829961976060847,38.584940213819614
3.43338381904681,1.8697738157022288,1601,10,20.829961976060847,38.584940213819614
3.452076789912185,1.8697551223594553,1601,10,20.829961976060847,38.584940213819614
3.47076957389165,1.8697364292035714,1601,10,20.829961976060847,38.584940213819614
3.489462170987084,1.8697177362345754,1601,10,20.829961976060847,38.584940213819614
3.508154581200366,1.8696990434524652,1601,10,20.829961976060847,38.584940213819614
3.526846804533373,1.869680350857239,1601,10,20.829961976060847,38.584940213819614
3.5455388409879824,1.869661658448895,1601,10,20.829961976060847,38.584940213819614
3.564230690566072,1.8696429662274314,1601,10,20.829961976060847,38.584940213819614
3.582922353269516,1.869624274192846,1601,10,20.829961976060847,38.584940213819614
3.60161382910019,1.8696055823451372,1601,10,20.829961976060847,38.584940213819614
3.620305118059969,1.869586890684303,1601,10,20.829961976060847,38.584940213819614
3.6389962201507267,1.8695681992103415,1601,10,20.829961976060847,38.584940213819614
3.6576871353743368,1.8695495079232507,1601,10,20.829961976060847,38.584940213819614
3.6763778637326725,1.8695308168230291,1601,10,20.829961976060847,38.584940213819614
3.695068405227607,1.8695121259096747,1601,10,20.829961976060847,38.584940213819614
3.7137587598610127,1.8694934351831853,1601,10,20.829961976060847,38.584940213819614
3.732448927634761,1.8694747446435596,1601,10,20.829961976060847,38.584940213819614
3.751138908550725,1.8694560542907952,1601,10,20.829961976060847,38.584940213819614
3.769828702610775,1.8694373641248905,1601,10,20.829961976060847,38.584940213819614
3.7885183098167827,1.8694186741458436,1601,10,20.829961976060847,38.584940213819614
3.8072077301706186,1.8693999843536526,1601,10,20.829961976060847,38.584940213819614
3.825896963674154,1.8693812947483155,1601,10,20.829961976060847,38.584940213819614
3.844586010329259,1.8693626053298307,1601,10,20.829961976060847,38.584940213819614
3.8632748701378046,1.8693439160981962,1601,10,20.829961976060847,38.584940213819614
3.8819635431016595,1.86932522705341,1601,10,20.829961976060847,38.584940213819614
3.900652029222695,1.8693065381954703,1601,10,20.829961976060847,38.584940213819614
3.9193403285027792,1.8692878495243754,1601,10,20.829961976060847,38.584940213819614
3.9380284409437833,1.8692691610401233,1601,10,20.829961976060847,38.584940213819614
3.956716366547577,1.869250472742712,1601,10,20.829961976060847,38.584940213819614
3.9754041053160276,1.8692317846321398,1601,10,20.829961976060847,38.584940213819614
3.9940916572510066,1.8692130967084049,1601,10,20.829961976060847,38.584940213819614
4.0127790223543816,1.8691944089715054,1601,10,20.829961976060847,38.584940213819614
4.031466200628022,1.869175721421439,1601,10,20.829961976060847,38.584940213819614
4.050153192073796,1.8691570340582044,1601,10,20.829961976060847,38.584940213819614
4.068839996693573,1.8691383468817997,1601,10,20.829961976060847,38.584940213819614
4.087526614489221,1.8691196598922226,1601,10,20.829961976060847,38.584940213819614
4.106213045462611,1.8691009730894714,1601,10,20.829961976060847,38.584940213819614
4.124899289615609,1.8690822864735446,1601,10,20.829961976060847,38.584940213819614
4.143585346950085,1.8690636000444398,1601,10,20.829961976060847,38.584940213819614
4.1622712174679055,1.8690449138021554,1601,10,20.829961976060847,38.584940213819614
4.180956901170941,1.8690262277466896,1601,10,20.829961976060847,38.584940213819614
4.199642398061058,1.8690075418780405,1601,10,20.829961976060847,38.584940213819614
4.218327708140126,1.868988856196206,1601,10,20.829961976060847,38.584940213819614
4.237012831410011,1.8689701707011845,1601,10,20.829961976060847,38.584940213819614
4.255697767872583,1.868951485392974,1601,10,20.829961976060847,38.584940213819614
4.274382517529709,1.8689328002715726,1601,10,20.829961976060847,38.584940213819614
4.293067080383259,1.8689141153369786,1601,10,20.829961976060847,38.584940213819614
4.3117514564351,1.86889543058919,1601,10,20.829961976060847,38.584940213819614
4.330435645687097,1.868876746028205,1601,10,20.829961976060847,38.584940213819614
4.349119648141121,1.8688580616540216,1601,10,20.829961976060847,38.584940213819614
4.3678034637990395,1.868839377466638,1601,10,20.829961976060847,38.584940213819614
4.38648709266272,1.8688206934660525,1601,10,20.829961976060847,38.584940213819614
4.405170534734029,1.868802009652263,1601,10,20.829961976060847,38.584940213819614
