Vout,Iout,Irradiance,Temperature,MaxVoltage,MaxPower
0.007705425909366256,1.5411,1401,-25,18.264344314690565,27.814148118122837
0.023116135247480803,1.5411,1401,-25,18.264344314690565,27.814148118122837
0.03852653128973988,1.5410921404640905,1401,-25,18.264344314690565,27.814148118122837
0.05393655806594264,1.5410767297547525,1401,-25,18.264344314690565,27.814148118122837
0.06934619728405644,1.5410613193594962,1401,-25,18.264344314690565,27.814148118122837
0.08475546691267175,1.541045909334261,1401,-25,18.264344314690565,27.814148118122837
0.10016438353847802,1.541030499696584,1401,-25,18.264344314690565,27.814148118122837
0.11557296247224802,1.5410150904284963,1401,-25,18.264344314690565,27.814148118122837
0.13098121784683806,1.5409996815134115,1401,-25,18.264344314690565,27.814148118122837
0.14638916270781877,1.5409842729360186,1401,-25,18.264344314690565,27.814148118122837
0.1617968090971326,1.5409688646821849,1401,-25,18.264344314690565,27.814148118122837
0.17720416813031448,1.5409534567388647,1401,-25,18.264344314690565,27.814148118122837
0.19261125006777105,1.5409380490940163,1401,-25,18.264344314690565,27.814148118122837
0.20801806438057563,1.5409226417365238,1401,-25,18.264344314690565,27.814148118122837
0.2234246198112008,1.5409072346561272,1401,-25,18.264344314690565,27.814148118122837
0.238830924429578,1.5408918278433552,1401,-25,18.264344314690565,27.814148118122837
0.2542369856848438,1.5408764212894652,1401,-25,18.264344314690565,27.814148118122837
0.2696428104531053,1.5408610149863875,1401,-25,18.264344314690565,27.814148118122837
0.2850484050815291,1.5408456089266729,1401,-25,18.264344314690565,27.814148118122837
0.3004537754290397,1.5408302031034453,1401,-25,18.264344314690565,27.814148118122837
0.3158589269038852,1.5408147975103574,1401,-25,18.264344314690565,27.814148118122837
0.33126386449831263,1.5407993921415506,1401,-25,18.264344314690565,27.814148118122837
0.3466685928205766,1.5407839869916162,1401,-25,18.264344314690565,27.814148118122837
0.3620731161244837,1.5407685820555623,1401,-25,18.264344314690565,27.814148118122837
0.3774774383366641,1.5407531773287806,1401,-25,18.264344314690565,27.814148118122837
0.39288156308174577,1.5407377728070173,1401,-25,18.264344314690565,27.814148118122837
0.40828549370559036,1.5407223684863456,1401,-25,18.264344314690565,27.814148118122837
0.42368923329674224,1.5407069643631408,1401,-25,18.264344314690565,27.814148118122837
0.4390927847062265,1.5406915604340574,1401,-25,18.264344314690565,27.814148118122837
0.45449615056582454,1.5406761566960068,1401,-25,18.264344314690565,27.814148118122837
0.4698993333049427,1.5406607531461376,1401,-25,18.264344314690565,27.814148118122837
0.48530233516618365,1.5406453497818184,1401,-25,18.264344314690565,27.814148118122837
0.5007051582197188,1.5406299466006197,1401,-25,18.264344314690565,27.814148118122837
0.5161078043765562,1.5406145436002987,1401,-25,18.264344314690565,27.814148118122837
0.5315102754007859,1.5405991407787856,1401,-25,18.264344314690565,27.814148118122837
0.5469125729208847,1.540583738134169,1401,-25,18.264344314690565,27.814148118122837
0.5623146984401504,1.540568335664685,1401,-25,18.264344314690565,27.814148118122837
0.5777166533463332,1.5405529333687051,1401,-25,18.264344314690565,27.814148118122837
0.5931184389205254,1.5405375312447263,1401,-25,18.264344314690565,27.814148118122837
0.6085200563453698,1.5405221292913602,1401,-25,18.264344314690565,27.814148118122837
0.6239215067126317,1.5405067275073263,1401,-25,18.264344314690565,27.814148118122837
0.6393227910301936,1.5404913258914417,1401,-25,18.264344314690565,27.814148118122837
0.6547239102285085,1.5404759244426145,1401,-25,18.264344314690565,27.814148118122837
0.6701248651665567,1.5404605231598372,1401,-25,18.264344314690565,27.814148118122837
0.6855256566373461,1.5404451220421789,1401,-25,18.264344314690565,27.814148118122837
0.7009262853729874,1.540429721088781,1401,-25,18.264344314690565,27.814148118122837
0.7163267520493803,1.5404143202988503,1401,-25,18.264344314690565,27.814148118122837
0.731727057290538,1.5403989196716548,1401,-25,18.264344314690565,27.814148118122837
0.7471272016725795,1.5403835192065185,1401,-25,18.264344314690565,27.814148118122837
0.7625271857274151,1.5403681189028173,1401,-25,18.264344314690565,27.814148118122837
0.7779270099461468,1.5403527187599755,1401,-25,18.264344314690565,27.814148118122837
0.7933266747822093,1.5403373187774607,1401,-25,18.264344314690565,27.814148118122837
0.8087261806542682,1.5403219189547819,1401,-25,18.264344314690565,27.814148118122837
0.8241255279488937,1.5403065192914858,1401,-25,18.264344314690565,27.814148118122837
0.839524717023032,1.5402911197871538,1401,-25,18.264344314690565,27.814148118122837
0.8549237482062828,1.540275720441399,1401,-25,18.264344314690565,27.814148118122837
0.8703226218030053,1.5402603212538648,1401,-25,18.264344314690565,27.814148118122837
0.8857213380942589,1.5402449222242216,1401,-25,18.264344314690565,27.814148118122837
0.9011198973395956,1.5402295233521648,1401,-25,18.264344314690565,27.814148118122837
0.9165182997787163,1.5402141246374135,1401,-25,18.264344314690565,27.814148118122837
0.9319165456329972,1.540198726079708,1401,-25,18.264344314690565,27.814148118122837
0.9473146351068997,1.5401833276788088,1401,-25,18.264344314690565,27.814148118122837
0.9627125683892718,1.5401679294344943,1401,-25,18.264344314690565,27.814148118122837
0.9781103456545501,1.5401525313465603,1401,-25,18.264344314690565,27.814148118122837
0.9935079670638679,1.5401371334148177,1401,-25,18.264344314690565,27.814148118122837
1.0089054327660794,1.5401217356390922,1401,-25,18.264344314690565,27.814148118122837
1.0243027428987033,1.5401063380192228,1401,-25,18.264344314690565,27.814148118122837
1.0396998975887966,1.5400909405550602,1401,-25,18.264344314690565,27.814148118122837
1.0550968969537586,1.5400755432464674,1401,-25,18.264344314690565,27.814148118122837
1.0704937411020738,1.540060146093317,1401,-25,18.264344314690565,27.814148118122837
1.0858904301339989,1.5400447490954918,1401,-25,18.264344314690565,27.814148118122837
1.1012869641421936,1.5400293522528832,1401,-25,18.264344314690565,27.814148118122837
1.1166833432123084,1.5400139555653911,1401,-25,18.264344314690565,27.814148118122837
1.1320795674235204,1.5399985590329226,1401,-25,18.264344314690565,27.814148118122837
1.1474756368490346,1.5399831626553921,1401,-25,18.264344314690565,27.814148118122837
1.1628715515565409,1.5399677664327205,1401,-25,18.264344314690565,27.814148118122837
1.1782673116086395,1.5399523703648346,1401,-25,18.264344314690565,27.814148118122837
1.1936629170632331,1.5399369744516667,1401,-25,18.264344314690565,27.814148118122837
1.209058367973887,1.5399215786931542,1401,-25,18.264344314690565,27.814148118122837
1.2244536643901638,1.5399061830892393,1401,-25,18.264344314690565,27.814148118122837
1.2398488063579307,1.5398907876398682,1401,-25,18.264344314690565,27.814148118122837
1.2552437939196448,1.5398753923449915,1401,-25,18.264344314690565,27.814148118122837
1.2706386271146142,1.5398599972045632,1401,-25,18.264344314690565,27.814148118122837
1.2860333059792415,1.539844602218541,1401,-25,18.264344314690565,27.814148118122837
1.3014278305472464,1.5398292073868856,1401,-25,18.264344314690565,27.814148118122837
1.3168222008498731,1.5398138127095604,1401,-25,18.264344314690565,27.814148118122837
1.332216416916079,1.5397984181865318,1401,-25,18.264344314690565,27.814148118122837
1.3476104787727137,1.5397830238177688,1401,-25,18.264344314690565,27.814148118122837
1.3630043864446773,1.539767629603242,1401,-25,18.264344314690565,27.814148118122837
1.3783981399550744,1.5397522355429247,1401,-25,18.264344314690565,27.814148118122837
1.3937917393253485,1.5397368416367923,1401,-25,18.264344314690565,27.814148118122837
1.4091851845754124,1.5397214478848213,1401,-25,18.264344314690565,27.814148118122837
1.4245784757237654,1.5397060542869905,1401,-25,18.264344314690565,27.814148118122837
1.4399716127876019,1.5396906608432797,1401,-25,18.264344314690565,27.814148118122837
1.4553645957829104,1.5396752675536707,1401,-25,18.264344314690565,27.814148118122837
1.4707574247245692,1.5396598744181462,1401,-25,18.264344314690565,27.814148118122837
1.4861500996264287,1.5396444814366903,1401,-25,18.264344314690565,27.814148118122837
1.5015426205013938,1.5396290886092878,1401,-25,18.264344314690565,27.814148118122837
1.516934987361493,1.5396136959359255,1401,-25,18.264344314690565,27.814148118122837
1.532327200217949,1.5395983034165897,1401,-25,18.264344314690565,27.814148118122837
1.5477192590812388,1.5395829110512689,1401,-25,18.264344314690565,27.814148118122837
1.563111163961152,1.5395675188399516,1401,-25,18.264344314690565,27.814148118122837
1.5785029148668421,1.5395521267826275,1401,-25,18.264344314690565,27.814148118122837
1.5938945118068788,1.5395367348792868,1401,-25,18.264344314690565,27.814148118122837
1.609285954789289,1.5395213431299204,1401,-25,18.264344314690565,27.814148118122837
1.6246772438216013,1.5395059515345195,1401,-25,18.264344314690565,27.814148118122837
1.6400683789108823,1.5394905600930764,1401,-25,18.264344314690565,27.814148118122837
1.655459360063775,1.5394751688055832,1401,-25,18.264344314690565,27.814148118122837
1.670850187286528,1.5394597776720331,1401,-25,18.264344314690565,27.814148118122837
1.6862408605850279,1.5394443866924192,1401,-25,18.264344314690565,27.814148118122837
1.7016313799648273,1.5394289958667355,1401,-25,18.264344314690565,27.814148118122837
1.7170217454311698,1.5394136051949763,1401,-25,18.264344314690565,27.814148118122837
1.7324119569890133,1.5393982146771354,1401,-25,18.264344314690565,27.814148118122837
1.7478020146430528,1.5393828243132082,1401,-25,18.264344314690565,27.814148118122837
1.7631919183977411,1.5393674341031893,1401,-25,18.264344314690565,27.814148118122837
1.7785816682573055,1.5393520440470745,1401,-25,18.264344314690565,27.814148118122837
1.7939712642257677,1.5393366541448588,1401,-25,18.264344314690565,27.814148118122837
1.8093607063069572,1.5393212643965382,1401,-25,18.264344314690565,27.814148118122837
1.824749994504528,1.5393058748021087,1401,-25,18.264344314690565,27.814148118122837
1.8401391288219706,1.5392904853615665,1401,-25,18.264344314690565,27.814148118122837
1.8555281092626257,1.539275096074908,1401,-25,18.264344314690565,27.814148118122837
1.870916935829695,1.5392597069421294,1401,-25,18.264344314690565,27.814148118122837
1.8863056085262533,1.5392443179632276,1401,-25,18.264344314690565,27.814148118122837
1.901694127355255,1.5392289291381995,1401,-25,18.264344314690565,27.814148118122837
1.917082492319548,1.539213540467042,1401,-25,18.264344314690565,27.814148118122837
1.932470703421877,1.5391981519497517,1401,-25,18.264344314690565,27.814148118122837
1.9478587606648958,1.5391827635863262,1401,-25,18.264344314690565,27.814148118122837
1.9632466640511714,1.5391673753767627,1401,-25,18.264344314690565,27.814148118122837
1.978634413583192,1.5391519873210586,1401,-25,18.264344314690565,27.814148118122837
1.994022009263372,1.5391365994192112,1401,-25,18.264344314690565,27.814148118122837
2.009409451094059,1.539121211671218,1401,-25,18.264344314690565,27.814148118122837
2.024796739077539,1.5391058240770765,1401,-25,18.264344314690565,27.814148118122837
2.040183873216038,1.5390904366367848,1401,-25,18.264344314690565,27.814148118122837
2.0555708535117323,1.53907504935034,1401,-25,18.264344314690565,27.814148118122837
2.070957679966746,1.5390596622177402,1401,-25,18.264344314690565,27.814148118122837
2.08634435258316,1.5390442752389832,1401,-25,18.264344314690565,27.814148118122837
2.101730871363013,1.539028888414067,1401,-25,18.264344314690565,27.814148118122837
2.117117236308306,1.5390135017429891,1401,-25,18.264344314690565,27.814148118122837
2.1325034474210014,1.5389981152257481,1401,-25,18.264344314690565,27.814148118122837
2.1478895047030324,1.5389827288623414,1401,-25,18.264344314690565,27.814148118122837
2.163275408156299,1.5389673426527675,1401,-25,18.264344314690565,27.814148118122837
2.178661157782676,1.538951956597024,1401,-25,18.264344314690565,27.814148118122837
2.194046753584011,1.5389365706951093,1401,-25,18.264344314690565,27.814148118122837
2.209432195562126,1.5389211849470217,1401,-25,18.264344314690565,27.814148118122837
2.2248174837188244,1.5389057993527588,1401,-25,18.264344314690565,27.814148118122837
2.2402026180558865,1.5388904139123194,1401,-25,18.264344314690565,27.814148118122837
2.255587598575076,1.5388750286257011,1401,-25,18.264344314690565,27.814148118122837
2.2709724252781367,1.5388596434929027,1401,-25,18.264344314690565,27.814148118122837
2.2863570981667984,1.538844258513922,1401,-25,18.264344314690565,27.814148118122837
2.301741617242777,1.5388288736887574,1401,-25,18.264344314690565,27.814148118122837
2.317125982507773,1.5388134890174072,1401,-25,18.264344314690565,27.814148118122837
2.3325101939634734,1.5387981044998698,1401,-25,18.264344314690565,27.814148118122837
2.3478942516115553,1.5387827201361433,1401,-25,18.264344314690565,27.814148118122837
2.3632781554536857,1.538767335926226,1401,-25,18.264344314690565,27.814148118122837
2.37866190549152,1.5387519518701163,1401,-25,18.264344314690565,27.814148118122837
2.3940455017267057,1.5387365679678127,1401,-25,18.264344314690565,27.814148118122837
2.4094289441608816,1.5387211842193131,1401,-25,18.264344314690565,27.814148118122837
2.4248122327956776,1.5387058006246164,1401,-25,18.264344314690565,27.814148118122837
2.440195367632719,1.5386904171837206,1401,-25,18.264344314690565,27.814148118122837
2.455578348673621,1.5386750338966242,1401,-25,18.264344314690565,27.814148118122837
2.4709611759199954,1.5386596507633254,1401,-25,18.264344314690565,27.814148118122837
2.4863438493734464,1.5386442677838228,1401,-25,18.264344314690565,27.814148118122837
2.5017263690355755,1.538628884958115,1401,-25,18.264344314690565,27.814148118122837
2.5171087349079775,1.5386135022861998,1401,-25,18.264344314690565,27.814148118122837
2.532490946992242,1.5385981197680758,1401,-25,18.264344314690565,27.814148118122837
2.5478730052899565,1.5385827374037417,1401,-25,18.264344314690565,27.814148118122837
2.563254909802704,1.5385673551931958,1401,-25,18.264344314690565,27.814148118122837
2.5786366605320636,1.5385519731364363,1401,-25,18.264344314690565,27.814148118122837
2.5940182574796116,1.5385365912334616,1401,-25,18.264344314690565,27.814148118122837
2.6093997006469203,1.5385212094842706,1401,-25,18.264344314690565,27.814148118122837
2.624780990035561,1.5385058278888613,1401,-25,18.264344314690565,27.814148118122837
2.6401621256471013,1.538490446447232,1401,-25,18.264344314690565,27.814148118122837
2.6555431074831066,1.5384750651593815,1401,-25,18.264344314690565,27.814148118122837
2.67092393554514,1.5384596840253082,1401,-25,18.264344314690565,27.814148118122837
2.6863046098347625,1.5384443030450103,1401,-25,18.264344314690565,27.814148118122837
2.701685130353533,1.5384289222184864,1401,-25,18.264344314690565,27.814148118122837
2.717065497103012,1.538413541545735,1401,-25,18.264344314690565,27.814148118122837
2.7324457100847512,1.538398161026754,1401,-25,18.264344314690565,27.814148118122837
2.747825769300309,1.5383827806615427,1401,-25,18.264344314690565,27.814148118122837
2.763205674751237,1.5383674004500991,1401,-25,18.264344314690565,27.814148118122837
2.778585426439088,1.5383520203924215,1401,-25,18.264344314690565,27.814148118122837
2.793965024365413,1.5383366404885086,1401,-25,18.264344314690565,27.814148118122837
2.8093444685317612,1.5383212607383587,1401,-25,18.264344314690565,27.814148118122837
2.824723758939681,1.5383058811419705,1401,-25,18.264344314690565,27.814148118122837
2.8401028955907215,1.538290501699342,1401,-25,18.264344314690565,27.814148118122837
2.85548187848643,1.538275122410472,1401,-25,18.264344314690565,27.814148118122837
2.8708607076283514,1.538259743275359,1401,-25,18.264344314690565,27.814148118122837
2.8862393830180317,1.5382443642940014,1401,-25,18.264344314690565,27.814148118122837
2.901617904657017,1.5382289854663973,1401,-25,18.264344314690565,27.814148118122837
2.9169962725468506,1.5382136067925454,1401,-25,18.264344314690565,27.814148118122837
2.932374486689077,1.5381982282724445,1401,-25,18.264344314690565,27.814148118122837
2.9477525470852375,1.5381828499060923,1401,-25,18.264344314690565,27.814148118122837
2.9631304537368774,1.538167471693488,1401,-25,18.264344314690565,27.814148118122837
2.9785082066455377,1.5381520936346298,1401,-25,18.264344314690565,27.814148118122837
2.9938858058127606,1.5381367157295158,1401,-25,18.264344314690565,27.814148118122837
3.009263251240088,1.538121337978145,1401,-25,18.264344314690565,27.814148118122837
3.02464054292906,1.5381059603805156,1401,-25,18.264344314690565,27.814148118122837
3.0400176808812187,1.538090582936626,1401,-25,18.264344314690565,27.814148118122837
3.0553946650981034,1.5380752056464748,1401,-25,18.264344314690565,27.814148118122837
3.0707714955812544,1.5380598285100604,1401,-25,18.264344314690565,27.814148118122837
3.0861481723322126,1.5380444515273812,1401,-25,18.264344314690565,27.814148118122837
3.101524695352517,1.5380290746984357,1401,-25,18.264344314690565,27.814148118122837
3.1169010646437068,1.5380136980232226,1401,-25,18.264344314690565,27.814148118122837
3.132277280207322,1.5379983215017399,1401,-25,18.264344314690565,27.814148118122837
3.1476533420449018,1.5379829451339864,1401,-25,18.264344314690565,27.814148118122837
3.163029250157983,1.5379675689199603,1401,-25,18.264344314690565,27.814148118122837
3.178405004548108,1.5379521928596604,1401,-25,18.264344314690565,27.814148118122837
3.1937806052168116,1.537936816953085,1401,-25,18.264344314690565,27.814148118122837
3.209156052165635,1.5379214412002324,1401,-25,18.264344314690565,27.814148118122837
3.224531345396115,1.5379060656011014,1401,-25,18.264344314690565,27.814148118122837
3.23990648490979,1.5378906901556901,1401,-25,18.264344314690565,27.814148118122837
3.2552814707081987,1.5378753148639972,1401,-25,18.264344314690565,27.814148118122837
3.2706563027928786,1.537859939726021,1401,-25,18.264344314690565,27.814148118122837
3.286030981165368,1.5378445647417602,1401,-25,18.264344314690565,27.814148118122837
3.301405505827204,1.537829189911213,1401,-25,18.264344314690565,27.814148118122837
3.3167798767799255,1.537813815234378,1401,-25,18.264344314690565,27.814148118122837
3.332154094025068,1.5377984407112537,1401,-25,18.264344314690565,27.814148118122837
3.3475281575641698,1.5377830663418384,1401,-25,18.264344314690565,27.814148118122837
3.362902067398769,1.5377676921261307,1401,-25,18.264344314690565,27.814148118122837
3.3782758235304016,1.537752318064129,1401,-25,18.264344314690565,27.814148118122837
3.3936494259606054,1.537736944155832,1401,-25,18.264344314690565,27.814148118122837
3.4090228746909177,1.5377215704012377,1401,-25,18.264344314690565,27.814148118122837
3.4243961697228764,1.537706196800345,1401,-25,18.264344314690565,27.814148118122837
3.4397693110580185,1.5376908233531519,1401,-25,18.264344314690565,27.814148118122837
3.4551422986978797,1.5376754500596574,1401,-25,18.264344314690565,27.814148118122837
3.4705151326439987,1.5376600769198596,1401,-25,18.264344314690565,27.814148118122837
3.4858878128979116,1.537644703933757,1401,-25,18.264344314690565,27.814148118122837
3.5012603394611546,1.5376293311013483,1401,-25,18.264344314690565,27.814148118122837
3.5166327123352654,1.5376139584226316,1401,-25,18.264344314690565,27.814148118122837
3.53200493152178,1.5375985858976056,1401,-25,18.264344314690565,27.814148118122837
3.547376997022237,1.5375832135262688,1401,-25,18.264344314690565,27.814148118122837
3.562748908838172,1.5375678413086196,1401,-25,18.264344314690565,27.814148118122837
3.5781206669711216,1.5375524692446563,1401,-25,18.264344314690565,27.814148118122837
