Vout,Iout,Irradiance,Temperature,MaxVoltage,MaxPower
0.005655595619272892,1.13113,1001,-10,19.356959949502503,21.52097437325186
0.016966682280502864,1.13113,1001,-10,19.356959949502503,21.52097437325186
0.0282775389901781,1.1311242312913807,1001,-10,19.356959949502503,21.52097437325186
0.03958812466752949,1.1311129202047194,1001,-10,19.356959949502503,21.52097437325186
0.050898425886649,1.1311016093485866,1001,-10,19.356959949502503,21.52097437325186
0.06220845583604595,1.1310902987640403,1001,-10,19.356959949502503,21.52097437325186
0.07351822668994788,1.1310789884639525,1001,-10,19.356959949502503,21.52097437325186
0.0848277496860904,1.1310676784351341,1001,-10,19.356959949502503,21.52097437325186
0.0961370351976471,1.1310563686654111,1001,-10,19.356959949502503,21.52097437325186
0.10744609279975022,1.1310450591435461,1001,-10,19.356959949502503,21.52097437325186
0.11875493133089329,1.1310337498591654,1001,-10,19.356959949502503,21.52097437325186
0.13006355894960914,1.1310224408026943,1001,-10,19.356959949502503,21.52097437325186
0.1413719831867873,1.131011131965294,1001,-10,19.356959949502503,21.52097437325186
0.1526802109939657,1.1309998233388063,1001,-10,19.356959949502503,21.52097437325186
0.16398824878790705,1.1309885149157,1001,-10,19.356959949502503,21.52097437325186
0.17529610249174518,1.1309772066890236,1001,-10,19.356959949502503,21.52097437325186
0.18660377757296565,1.1309658986523605,1001,-10,19.356959949502503,21.52097437325186
0.197911279078464,1.1309545907997876,1001,-10,19.356959949502503,21.52097437325186
0.20921861166690678,1.130943283125837,1001,-10,19.356959949502503,21.52097437325186
0.22052577963860212,1.1309319756254623,1001,-10,19.356959949502503,21.52097437325186
0.23183278696307286,1.1309206682940047,1001,-10,19.356959949502503,21.52097437325186
0.24313963730450738,1.130909361127164,1001,-10,19.356959949502503,21.52097437325186
0.2544463340452525,1.13089805412097,1001,-10,19.356959949502503,21.52097437325186
0.2657528803074993,1.1308867472717594,1001,-10,19.356959949502503,21.52097437325186
0.27705927897329874,1.1308754405761492,1001,-10,19.356959949502503,21.52097437325186
0.28836553270303994,1.1308641340310177,1001,-10,19.356959949502503,21.52097437325186
0.29967164395250423,1.1308528276334826,1001,-10,19.356959949502503,21.52097437325186
0.31097761498860804,1.1308415213808836,1001,-10,19.356959949502503,21.52097437325186
0.32228344790393465,1.1308302152707648,1001,-10,19.356959949502503,21.52097437325186
0.3335891446301478,1.1308189093008592,1001,-10,19.356959949502503,21.52097437325186
0.34489470695037283,1.1308076034690746,1001,-10,19.356959949502503,21.52097437325186
0.3562001365106255,1.130796297773479,1001,-10,19.356959949502503,21.52097437325186
0.36750543483036163,1.1307849922122892,1001,-10,19.356959949502503,21.52097437325186
0.37881060331221444,1.1307736867838596,1001,-10,19.356959949502503,21.52097437325186
0.39011564325098336,1.1307623814866703,1001,-10,19.356959949502503,21.52097437325186
0.40142055584193104,1.1307510763193191,1001,-10,19.356959949502503,21.52097437325186
0.41272534218844137,1.1307397712805107,1001,-10,19.356959949502503,21.52097437325186
0.42403000330908924,1.1307284663690504,1001,-10,19.356959949502503,21.52097437325186
0.43533454014416567,1.1307171615838345,1001,-10,19.356959949502503,21.52097437325186
0.44663895356170114,1.1307058569238442,1001,-10,19.356959949502503,21.52097437325186
0.4579432443630255,1.1306945523881395,1001,-10,19.356959949502503,21.52097437325186
0.46924741328790004,1.1306832479758526,1001,-10,19.356959949502503,21.52097437325186
0.4805514610192541,1.1306719436861816,1001,-10,19.356959949502503,21.52097437325186
0.49185538818755886,1.1306606395183874,1001,-10,19.356959949502503,21.52097437325186
0.5031591953748628,1.1306493354717864,1001,-10,19.356959949502503,21.52097437325186
0.5144628831185172,1.1306380315457485,1001,-10,19.356959949502503,21.52097437325186
0.5257664519146162,1.1306267277396915,1001,-10,19.356959949502503,21.52097437325186
0.5370699022211705,1.1306154240530784,1001,-10,19.356959949502503,21.52097437325186
0.5483732344610374,1.1306041204854125,1001,-10,19.356959949502503,21.52097437325186
0.5596764490246257,1.1305928170362365,1001,-10,19.356959949502503,21.52097437325186
0.5709795462723928,1.130581513705127,1001,-10,19.356959949502503,21.52097437325186
0.582282526537149,1.1305702104916937,1001,-10,19.356959949502503,21.52097437325186
0.5935853901261839,1.1305589073955762,1001,-10,19.356959949502503,21.52097437325186
0.6048881373232313,1.1305476044164418,1001,-10,19.356959949502503,21.52097437325186
0.6161907683902809,1.130536301553983,1001,-10,19.356959949502503,21.52097437325186
0.6274932835692509,1.1305249988079162,1001,-10,19.356959949502503,21.52097437325186
0.6387956830835334,1.1305136961779796,1001,-10,19.356959949502503,21.52097437325186
0.6500979671394193,1.130502393663931,1001,-10,19.356959949502503,21.52097437325186
0.6614001359274135,1.1304910912655468,1001,-10,19.356959949502503,21.52097437325186
0.6727021896234506,1.1304797889826212,1001,-10,19.356959949502503,21.52097437325186
0.6840041283900152,1.1304684868149635,1001,-10,19.356959949502503,21.52097437325186
0.6953059523771773,1.1304571847623976,1001,-10,19.356959949502503,21.52097437325186
0.7066076617235464,1.1304458828247612,1001,-10,19.356959949502503,21.52097437325186
0.7179092565571551,1.1304345810019043,1001,-10,19.356959949502503,21.52097437325186
0.729210736996271,1.1304232792936881,1001,-10,19.356959949502503,21.52097437325186
0.7405121031501496,1.1304119776999848,1001,-10,19.356959949502503,21.52097437325186
0.7518133551197264,1.1304006762206757,1001,-10,19.356959949502503,21.52097437325186
0.7631144929982583,1.130389374855652,1001,-10,19.356959949502503,21.52097437325186
0.7744155168719131,1.1303780736048126,1001,-10,19.356959949502503,21.52097437325186
0.7857164268203161,1.1303667724680642,1001,-10,19.356959949502503,21.52097437325186
0.7970172229170528,1.1303554714453208,1001,-10,19.356959949502503,21.52097437325186
0.8083179052301339,1.1303441705365025,1001,-10,19.356959949502503,21.52097437325186
0.8196184738224244,1.1303328697415358,1001,-10,19.356959949502503,21.52097437325186
0.8309189287520383,1.1303215690603527,1001,-10,19.356959949502503,21.52097437325186
0.8422192700727066,1.1303102684928905,1001,-10,19.356959949502503,21.52097437325186
0.8535194978341119,1.1302989680390911,1001,-10,19.356959949502503,21.52097437325186
0.8648196120822013,1.1302876676989004,1001,-10,19.356959949502503,21.52097437325186
0.8761196128594737,1.1302763674722691,1001,-10,19.356959949502503,21.52097437325186
0.8874195002052448,1.130265067359151,1001,-10,19.356959949502503,21.52097437325186
0.8987192741558925,1.1302537673595037,1001,-10,19.356959949502503,21.52097437325186
0.9100189347450821,1.130242467473288,1001,-10,19.356959949502503,21.52097437325186
0.9213184820039763,1.1302311677004673,1001,-10,19.356959949502503,21.52097437325186
0.9326179159614262,1.130219868041008,1001,-10,19.356959949502503,21.52097437325186
0.9439172366441502,1.1302085684948793,1001,-10,19.356959949502503,21.52097437325186
0.9552164440768979,1.1301972690620516,1001,-10,19.356959949502503,21.52097437325186
0.9665155382826016,1.130185969742499,1001,-10,19.356959949502503,21.52097437325186
0.9778145192825157,1.1301746705361961,1001,-10,19.356959949502503,21.52097437325186
0.9891133870963468,1.1301633714431203,1001,-10,19.356959949502503,21.52097437325186
1.0004121417423713,1.1301520724632503,1001,-10,19.356959949502503,21.52097437325186
1.0117107832375472,1.1301407735965665,1001,-10,19.356959949502503,21.52097437325186
1.023009311597613,1.1301294748430504,1001,-10,19.356959949502503,21.52097437325186
1.0343077268371856,1.130118176202685,1001,-10,19.356959949502503,21.52097437325186
1.045606028969842,1.1301068776754548,1001,-10,19.356959949502503,21.52097437325186
1.0569042180082022,1.1300955792613452,1001,-10,19.356959949502503,21.52097437325186
1.0682022939640023,1.1300842809603424,1001,-10,19.356959949502503,21.52097437325186
1.0795002568481618,1.1300729827724338,1001,-10,19.356959949502503,21.52097437325186
1.0907981066708474,1.130061684697608,1001,-10,19.356959949502503,21.52097437325186
1.1020958434415302,1.1300503867358536,1001,-10,19.356959949502503,21.52097437325186
1.1133934671690393,1.1300390888871608,1001,-10,19.356959949502503,21.52097437325186
1.1246909778616117,1.1300277911515197,1001,-10,19.356959949502503,21.52097437325186
1.1359883755269373,1.130016493528922,1001,-10,19.356959949502503,21.52097437325186
1.147285660172201,1.1300051960193593,1001,-10,19.356959949502503,21.52097437325186
1.1585828318041218,1.1299938986228237,1001,-10,19.356959949502503,21.52097437325186
1.1698798904289898,1.1299826013393082,1001,-10,19.356959949502503,21.52097437325186
1.181176836052696,1.129971304168806,1001,-10,19.356959949502503,21.52097437325186
1.1924736686807662,1.129960007111311,1001,-10,19.356959949502503,21.52097437325186
1.203770388318388,1.1299487101668169,1001,-10,19.356959949502503,21.52097437325186
1.2150669949704362,1.1299374133353184,1001,-10,19.356959949502503,21.52097437325186
1.2263634886414974,1.1299261166168106,1001,-10,19.356959949502503,21.52097437325186
1.2376598693358924,1.1299148200112883,1001,-10,19.356959949502503,21.52097437325186
1.2489561370576967,1.129903523518747,1001,-10,19.356959949502503,21.52097437325186
1.2602522918107588,1.129892227139182,1001,-10,19.356959949502503,21.52097437325186
1.271548333598718,1.12988093087259,1001,-10,19.356959949502503,21.52097437325186
1.2828442624250198,1.1298696347189665,1001,-10,19.356959949502503,21.52097437325186
1.294140078292933,1.129858338678308,1001,-10,19.356959949502503,21.52097437325186
1.3054357812055597,1.1298470427506115,1001,-10,19.356959949502503,21.52097437325186
1.3167313711658521,1.129835746935873,1001,-10,19.356959949502503,21.52097437325186
1.3280268481766209,1.12982445123409,1001,-10,19.356959949502503,21.52097437325186
1.3393222122405477,1.1298131556452595,1001,-10,19.356959949502503,21.52097437325186
1.350617463360195,1.1298018601693782,1001,-10,19.356959949502503,21.52097437325186
1.3619126015380152,1.129790564806444,1001,-10,19.356959949502503,21.52097437325186
1.3732076267763573,1.1297792695564537,1001,-10,19.356959949502503,21.52097437325186
1.3845025390774781,1.1297679744194056,1001,-10,19.356959949502503,21.52097437325186
1.3957973384435471,1.1297566793952967,1001,-10,19.356959949502503,21.52097437325186
1.4070920248766536,1.129745384484125,1001,-10,19.356959949502503,21.52097437325186
1.4183865983788126,1.1297340896858885,1001,-10,19.356959949502503,21.52097437325186
1.429681058951972,1.1297227950005848,1001,-10,19.356959949502503,21.52097437325186
1.4409754065980158,1.1297115004282121,1001,-10,19.356959949502503,21.52097437325186
1.4522696413187701,1.1297002059687684,1001,-10,19.356959949502503,21.52097437325186
1.4635637631160072,1.129688911622252,1001,-10,19.356959949502503,21.52097437325186
1.4748577719914502,1.1296776173886607,1001,-10,19.356959949502503,21.52097437325186
1.4861516679467761,1.1296663232679929,1001,-10,19.356959949502503,21.52097437325186
1.4974454509836204,1.1296550292602467,1001,-10,19.356959949502503,21.52097437325186
1.5087391211035794,1.129643735365421,1001,-10,19.356959949502503,21.52097437325186
1.5200326783082123,1.1296324415835135,1001,-10,19.356959949502503,21.52097437325186
1.5313261225990464,1.1296211479145228,1001,-10,19.356959949502503,21.52097437325186
1.5426194539775786,1.1296098543584476,1001,-10,19.356959949502503,21.52097437325186
1.5539126724452759,1.129598560915286,1001,-10,19.356959949502503,21.52097437325186
1.5652057780035804,1.129587267585037,1001,-10,19.356959949502503,21.52097437325186
1.5764987706539104,1.1295759743676985,1001,-10,19.356959949502503,21.52097437325186
1.5877916503976612,1.1295646812632696,1001,-10,19.356959949502503,21.52097437325186
1.5990844172362075,1.1295533882717486,1001,-10,19.356959949502503,21.52097437325186
1.6103770711709056,1.129542095393134,1001,-10,19.356959949502503,21.52097437325186
1.6216696122030942,1.129530802627425,1001,-10,19.356959949502503,21.52097437325186
1.6329620403340954,1.1295195099746196,1001,-10,19.356959949502503,21.52097437325186
1.644254355565217,1.1295082174347166,1001,-10,19.356959949502503,21.52097437325186
1.6555465578977526,1.129496925007715,1001,-10,19.356959949502503,21.52097437325186
1.6668386473329828,1.129485632693613,1001,-10,19.356959949502503,21.52097437325186
1.6781306238721772,1.1294743404924097,1001,-10,19.356959949502503,21.52097437325186
1.6894224875165949,1.1294630484041037,1001,-10,19.356959949502503,21.52097437325186
1.7007142382674827,1.1294517564286937,1001,-10,19.356959949502503,21.52097437325186
1.7120058761260812,1.1294404645661786,1001,-10,19.356959949502503,21.52097437325186
1.723297401093621,1.1294291728165569,1001,-10,19.356959949502503,21.52097437325186
1.7345888131713243,1.1294178811798274,1001,-10,19.356959949502503,21.52097437325186
1.745880112360407,1.129406589655989,1001,-10,19.356959949502503,21.52097437325186
1.7571712986620784,1.1293952982450406,1001,-10,19.356959949502503,21.52097437325186
1.7684623720775412,1.1293840069469805,1001,-10,19.356959949502503,21.52097437325186
1.7797533326079915,1.129372715761808,1001,-10,19.356959949502503,21.52097437325186
1.791044180254622,1.1293614246895218,1001,-10,19.356959949502503,21.52097437325186
1.8023349150186185,1.1293501337301204,1001,-10,19.356959949502503,21.52097437325186
1.8136255369011642,1.1293388428836029,1001,-10,19.356959949502503,21.52097437325186
1.8249160459034373,1.129327552149968,1001,-10,19.356959949502503,21.52097437325186
1.836206442026611,1.1293162615292145,1001,-10,19.356959949502503,21.52097437325186
1.8474967252718577,1.1293049710213414,1001,-10,19.356959949502503,21.52097437325186
1.858786895640344,1.1292936806263472,1001,-10,19.356959949502503,21.52097437325186
1.8700769531332349,1.129282390344231,1001,-10,19.356959949502503,21.52097437325186
1.8813668977516917,1.1292711001749915,1001,-10,19.356959949502503,21.52097437325186
1.8926567294968741,1.1292598101186277,1001,-10,19.356959949502503,21.52097437325186
1.9039464483699386,1.1292485201751383,1001,-10,19.356959949502503,21.52097437325186
1.9152360543720397,1.1292372303445222,1001,-10,19.356959949502503,21.52097437325186
1.9265255475043304,1.129225940626778,1001,-10,19.356959949502503,21.52097437325186
1.937814927767961,1.129214651021905,1001,-10,19.356959949502503,21.52097437325186
1.9491041951640813,1.1292033615299015,1001,-10,19.356959949502503,21.52097437325186
1.9603933496938375,1.129192072150767,1001,-10,19.356959949502503,21.52097437325186
1.971682391358376,1.1291807828844997,1001,-10,19.356959949502503,21.52097437325186
1.9829713201588415,1.129169493731099,1001,-10,19.356959949502503,21.52097437325186
1.9942601360963779,1.1291582046905633,1001,-10,19.356959949502503,21.52097437325186
2.0055488391721266,1.1291469157628917,1001,-10,19.356959949502503,21.52097437325186
2.016837429387228,1.1291356269480832,1001,-10,19.356959949502503,21.52097437325186
2.028125906742824,1.1291243382461362,1001,-10,19.356959949502503,21.52097437325186
2.0394142712400525,1.12911304965705,1001,-10,19.356959949502503,21.52097437325186
2.050702522880052,1.1291017611808234,1001,-10,19.356959949502503,21.52097437325186
2.0619906616639603,1.129090472817455,1001,-10,19.356959949502503,21.52097437325186
2.0732786875929143,1.129079184566944,1001,-10,19.356959949502503,21.52097437325186
2.08456660066805,1.1290678964292886,1001,-10,19.356959949502503,21.52097437325186
2.095854400890503,1.1290566084044886,1001,-10,19.356959949502503,21.52097437325186
2.107142088261408,1.1290453204925424,1001,-10,19.356959949502503,21.52097437325186
2.118429662781899,1.1290340326934487,1001,-10,19.356959949502503,21.52097437325186
2.1297171244531117,1.1290227450072066,1001,-10,19.356959949502503,21.52097437325186
2.141004473276178,1.1290114574338148,1001,-10,19.356959949502503,21.52097437325186
2.152291709252231,1.1290001699732723,1001,-10,19.356959949502503,21.52097437325186
2.1635788323824046,1.128988882625578,1001,-10,19.356959949502503,21.52097437325186
2.17486584266783,1.1289775953907308,1001,-10,19.356959949502503,21.52097437325186
2.1861527401096397,1.1289663082687293,1001,-10,19.356959949502503,21.52097437325186
2.1974395247089653,1.1289550212595727,1001,-10,19.356959949502503,21.52097437325186
2.2087261964669382,1.1289437343632596,1001,-10,19.356959949502503,21.52097437325186
2.2200127553846896,1.1289324475797888,1001,-10,19.356959949502503,21.52097437325186
2.2312992014633504,1.1289211609091596,1001,-10,19.356959949502503,21.52097437325186
2.2425855347040518,1.1289098743513706,1001,-10,19.356959949502503,21.52097437325186
2.253871755107923,1.1288985879064206,1001,-10,19.356959949502503,21.52097437325186
2.2651578626760953,1.1288873015743084,1001,-10,19.356959949502503,21.52097437325186
2.2764438574096997,1.1288760153550332,1001,-10,19.356959949502503,21.52097437325186
2.2877297393098646,1.1288647292485938,1001,-10,19.356959949502503,21.52097437325186
2.2990155083777193,1.1288534432549888,1001,-10,19.356959949502503,21.52097437325186
2.310301164614395,1.1288421573742171,1001,-10,19.356959949502503,21.52097437325186
2.321586708021021,1.1288308716062778,1001,-10,19.356959949502503,21.52097437325186
2.3328721385987254,1.1288195859511698,1001,-10,19.356959949502503,21.52097437325186
2.3441574563486394,1.1288083004088918,1001,-10,19.356959949502503,21.52097437325186
2.35544266127189,1.1287970149794426,1001,-10,19.356959949502503,21.52097437325186
2.366727753369609,1.1287857296628212,1001,-10,19.356959949502503,21.52097437325186
2.3780127326429223,1.1287744444590266,1001,-10,19.356959949502503,21.52097437325186
2.3892975990929606,1.1287631593680574,1001,-10,19.356959949502503,21.52097437325186
2.4005823527208525,1.1287518743899125,1001,-10,19.356959949502503,21.52097437325186
2.4118669935277266,1.128740589524591,1001,-10,19.356959949502503,21.52097437325186
2.4231515215147117,1.1287293047720917,1001,-10,19.356959949502503,21.52097437325186
2.4344359366829362,1.1287180201324132,1001,-10,19.356959949502503,21.52097437325186
2.445720239033528,1.1287067356055547,1001,-10,19.356959949502503,21.52097437325186
2.4570044285676174,1.128695451191515,1001,-10,19.356959949502503,21.52097437325186
2.468288505286331,1.128684166890293,1001,-10,19.356959949502503,21.52097437325186
2.4795724691907974,1.1286728827018873,1001,-10,19.356959949502503,21.52097437325186
2.490856320282146,1.128661598626297,1001,-10,19.356959949502503,21.52097437325186
2.5021400585615043,1.128650314663521,1001,-10,19.356959949502503,21.52097437325186
2.5134236840300006,1.1286390308135579,1001,-10,19.356959949502503,21.52097437325186
2.5247071966887624,1.128627747076407,1001,-10,19.356959949502503,21.52097437325186
2.535990596538919,1.1286164634520668,1001,-10,19.356959949502503,21.52097437325186
2.5472738835815987,1.1286051799405366,1001,-10,19.356959949502503,21.52097437325186
2.5585570578179286,1.1285938965418147,1001,-10,19.356959949502503,21.52097437325186
2.5698401192490365,1.1285826132559005,1001,-10,19.356959949502503,21.52097437325186
2.5811230678760517,1.1285713300827924,1001,-10,19.356959949502503,21.52097437325186
2.592405903700102,1.1285600470224897,1001,-10,19.356959949502503,21.52097437325186
2.6036886267223145,1.128548764074991,1001,-10,19.356959949502503,21.52097437325186
2.614971236943817,1.128537481240295,1001,-10,19.356959949502503,21.52097437325186
2.6262537343657386,1.1285261985184012,1001,-10,19.356959949502503,21.52097437325186
2.6375361189892064,1.128514915909308,1001,-10,19.356959949502503,21.52097437325186
2.6488183908153475,1.1285036334130143,1001,-10,19.356959949502503,21.52097437325186
