Vout,Iout,Irradiance,Temperature,MaxVoltage,MaxPower
0.0011557388871260852,0.23114999999999997,201,0,20.077277593484723,4.23784995303431
0.0034671952906723687,0.23114999999999997,201,0,20.077277593484723,4.23784995303431
0.0057786047028897366,0.23114882114611285,201,0,20.077277593484723,4.23784995303431
0.008089958728792836,0.2311465096897093,201,0,20.077277593484723,4.23784995303431
0.010401254624754816,0.23114419828041496,201,0,20.077277593484723,4.23784995303431
0.01271249508588935,0.23114188692662022,201,0,20.077277593484723,4.23784995303431
0.015023682600038413,0.23113957563095539,201,0,20.077277593484723,4.23784995303431
0.017334819463668893,0.23113726439072538,201,0,20.077277593484723,4.23784995303431
0.01964590779657168,0.23113495320344238,201,0,20.077277593484723,4.23784995303431
0.0219569495554554,0.23113264206680986,201,0,20.077277593484723,4.23784995303431
0.024267946546494196,0.23113033097870808,201,0,20.077277593484723,4.23784995303431
0.026578900436910125,0.2311280199371803,201,0,20.077277593484723,4.23784995303431
0.028889812765664314,0.23112570894042037,201,0,20.077277593484723,4.23784995303431
0.03120068495332559,0.23112339798676107,201,0,20.077277593484723,4.23784995303431
0.033511518311179725,0.23112108707466342,201,0,20.077277593484723,4.23784995303431
0.0358223140496379,0.23111877620270685,201,0,20.077277593484723,4.23784995303431
0.03813307328599809,0.23111646536958008,201,0,20.077277593484723,4.23784995303431
0.04044379705160943,0.23111415457407272,201,0,20.077277593484723,4.23784995303431
0.042754486298485155,0.23111184381506744,201,0,20.077277593484723,4.23784995303431
0.04506514190540689,0.2311095330915329,201,0,20.077277593484723,4.23784995303431
0.04737576468355919,0.2311072224025171,201,0,20.077277593484723,4.23784995303431
0.04968635538173058,0.23110491174714126,201,0,20.077277593484723,4.23784995303431
0.05199691469111433,0.23110260112459416,201,0,20.077277593484723,4.23784995303431
0.05430744324974006,0.23110029053412706,201,0,20.077277593484723,4.23784995303431
0.05661794164656409,0.23109797997504875,201,0,20.077277593484723,4.23784995303431
0.058928410425245305,0.23109566944672116,201,0,20.077277593484723,4.23784995303431
0.061238850087630414,0.2310933589485554,201,0,20.077277593484723,4.23784995303431
0.06354926109697095,0.23109104848000778,201,0,20.077277593484723,4.23784995303431
0.06585964388089302,0.23108873804057645,201,0,20.077277593484723,4.23784995303431
0.06816999883413817,0.23108642762979814,201,0,20.077277593484723,4.23784995303431
0.0704803263210937,0.23108411724724526,201,0,20.077277593484723,4.23784995303431
0.07279062667812819,0.23108180689252306,201,0,20.077277593484723,4.23784995303431
0.07510090021574721,0.23107949656526716,201,0,20.077277593484723,4.23784995303431
0.07741114722058333,0.23107718626514115,201,0,20.077277593484723,4.23784995303431
0.07972136795723292,0.23107487599183457,201,0,20.077277593484723,4.23784995303431
0.08203156266995164,0.23107256574506077,201,0,20.077277593484723,4.23784995303431
0.08434173158421954,0.23107025552455512,201,0,20.077277593484723,4.23784995303431
0.08665187490818564,0.23106794533007344,201,0,20.077277593484723,4.23784995303431
0.08896199283400134,0.2310656351613902,201,0,20.077277593484723,4.23784995303431
0.09127208553905145,0.23106332501829724,201,0,20.077277593484723,4.23784995303431
0.09358215318709025,0.23106101490060246,201,0,20.077277593484723,4.23784995303431
0.09589219592929027,0.2310587048081284,201,0,20.077277593484723,4.23784995303431
0.09820221390521036,0.23105639474071138,201,0,20.077277593484723,4.23784995303431
0.10051220724368926,0.23105408469820019,201,0,20.077277593484723,4.23784995303431
0.10282217606367043,0.2310517746804553,201,0,20.077277593484723,4.23784995303431
0.10513212047496333,0.2310494646873478,201,0,20.077277593484723,4.23784995303431
0.10744204057894632,0.23104715471875883,201,0,20.077277593484723,4.23784995303431
0.10975193646921537,0.23104484477457854,201,0,20.077277593484723,4.23784995303431
0.11206180823218266,0.23104253485470555,201,0,20.077277593484723,4.23784995303431
0.11437165594762955,0.23104022495904628,201,0,20.077277593484723,4.23784995303431
0.11668147968921663,0.2310379150875143,201,0,20.077277593484723,4.23784995303431
0.11899127952495465,0.23103560524002983,201,0,20.077277593484723,4.23784995303431
0.12130105551763935,0.23103329541651924,201,0,20.077277593484723,4.23784995303431
0.12361080772525253,0.23103098561691449,201,0,20.077277593484723,4.23784995303431
0.12592053620133262,0.23102867584115278,201,0,20.077277593484723,4.23784995303431
0.12823024099531644,0.23102636608917615,201,0,20.077277593484723,4.23784995303431
0.13053992215285481,0.23102405636093104,201,0,20.077277593484723,4.23784995303431
0.13284957971610398,0.23102174665636804,201,0,20.077277593484723,4.23784995303431
0.1351592137239942,0.23101943697544147,201,0,20.077277593484723,4.23784995303431
0.13746882421247825,0.2310171273181092,201,0,20.077277593484723,4.23784995303431
0.1397784112147604,0.23101481768433227,201,0,20.077277593484723,4.23784995303431
0.14208797476150786,0.23101250807407475,201,0,20.077277593484723,4.23784995303431
0.14439751488104607,0.23101019848730345,201,0,20.077277593484723,4.23784995303431
0.14670703159953874,0.23100788892398766,201,0,20.077277593484723,4.23784995303431
0.14901652494115433,0.23100557938409907,201,0,20.077277593484723,4.23784995303431
0.15132599492821952,0.23100326986761155,201,0,20.077277593484723,4.23784995303431
0.1536354415813608,0.23100096037450088,201,0,20.077277593484723,4.23784995303431
0.15594486491963547,0.23099865090474475,201,0,20.077277593484723,4.23784995303431
0.15825426496065223,0.23099634145832257,201,0,20.077277593484723,4.23784995303431
0.16056364172068274,0.23099403203521524,201,0,20.077277593484723,4.23784995303431
0.16287299521476453,0.23099172263540516,201,0,20.077277593484723,4.23784995303431
0.1651823254567957,0.2309894132588761,201,0,20.077277593484723,4.23784995303431
0.16749163245962287,0.23098710390561294,201,0,20.077277593484723,4.23784995303431
0.16980091623512197,0.23098479457560184,201,0,20.077277593484723,4.23784995303431
0.17211017679427293,0.23098248526882995,201,0,20.077277593484723,4.23784995303431
0.17441941414722867,0.2309801759852854,201,0,20.077277593484723,4.23784995303431
0.1767286283033786,0.23097786672495715,201,0,20.077277593484723,4.23784995303431
0.1790378192714075,0.23097555748783513,201,0,20.077277593484723,4.23784995303431
0.18134698705934965,0.23097324827390991,201,0,20.077277593484723,4.23784995303431
0.18365613167463893,0.23097093908317282,201,0,20.077277593484723,4.23784995303431
0.18596525312415504,0.2309686299156158,201,0,20.077277593484723,4.23784995303431
0.18827435141426607,0.23096632077123141,201,0,20.077277593484723,4.23784995303431
0.19058342655086793,0.23096401165001282,201,0,20.077277593484723,4.23784995303431
0.1928924785394207,0.2309617025519536,201,0,20.077277593484723,4.23784995303431
0.19520150738498188,0.23095939347704794,201,0,20.077277593484723,4.23784995303431
0.1975105130922378,0.23095708442529028,201,0,20.077277593484723,4.23784995303431
0.19981949566553192,0.23095477539667564,201,0,20.077277593484723,4.23784995303431
0.2021284551088913,0.2309524663911993,201,0,20.077277593484723,4.23784995303431
0.20443739142605077,0.23095015740885688,201,0,20.077277593484723,4.23784995303431
0.20674630462047572,0.23094784844964444,201,0,20.077277593484723,4.23784995303431
0.20905519469538253,0.23094553951355817,201,0,20.077277593484723,4.23784995303431
0.21136406165375793,0.23094323060059466,201,0,20.077277593484723,4.23784995303431
0.21367290549837661,0.23094092171075065,201,0,20.077277593484723,4.23784995303431
0.2159817262318175,0.23093861284402314,201,0,20.077277593484723,4.23784995303431
0.21829052385647882,0.23093630400040943,201,0,20.077277593484723,4.23784995303431
0.22059929837459216,0.23093399517990687,201,0,20.077277593484723,4.23784995303431
0.22290804978823495,0.23093168638251307,201,0,20.077277593484723,4.23784995303431
0.2252167780993427,0.23092937760822585,201,0,20.077277593484723,4.23784995303431
0.2275254833097197,0.2309270688570431,201,0,20.077277593484723,4.23784995303431
0.22983416542104917,0.23092476012896287,201,0,20.077277593484723,4.23784995303431
0.23214282443490256,0.23092245142398335,201,0,20.077277593484723,4.23784995303431
0.23445146035274822,0.2309201427421029,201,0,20.077277593484723,4.23784995303431
0.23676007317595915,0.23091783408331992,201,0,20.077277593484723,4.23784995303431
0.23906866290582057,0.23091552544763294,201,0,20.077277593484723,4.23784995303431
0.24137722954353658,0.2309132168350406,201,0,20.077277593484723,4.23784995303431
0.2436857730902363,0.2309109082455416,201,0,20.077277593484723,4.23784995303431
0.24599429354697983,0.23090859967913474,201,0,20.077277593484723,4.23784995303431
0.2483027909147633,0.2309062911358189,201,0,20.077277593484723,4.23784995303431
0.2506112651945241,0.23090398261559303,201,0,20.077277593484723,4.23784995303431
0.25291971638714517,0.23090167411845608,201,0,20.077277593484723,4.23784995303431
0.25522814449345926,0.2308993656444072,201,0,20.077277593484723,4.23784995303431
0.2575365495142529,0.23089705719344542,201,0,20.077277593484723,4.23784995303431
0.2598449314502698,0.23089474876556995,201,0,20.077277593484723,4.23784995303431
0.262153290302214,0.23089244036078,201,0,20.077277593484723,4.23784995303431
0.2644616260707535,0.23089013197907482,201,0,20.077277593484723,4.23784995303431
0.26676993875652233,0.2308878236204537,201,0,20.077277593484723,4.23784995303431
0.26907822836012363,0.23088551528491602,201,0,20.077277593484723,4.23784995303431
0.27138649488213196,0.2308832069724611,201,0,20.077277593484723,4.23784995303431
0.27369473832309515,0.2308808986830883,201,0,20.077277593484723,4.23784995303431
0.2760029586835369,0.23087859041679715,201,0,20.077277593484723,4.23784995303431
0.27831115596395833,0.230876282173587,201,0,20.077277593484723,4.23784995303431
0.2806193301648396,0.23087397395345738,201,0,20.077277593484723,4.23784995303431
0.28292748128664175,0.2308716657564078,201,0,20.077277593484723,4.23784995303431
0.2852356093298082,0.23086935758243773,201,0,20.077277593484723,4.23784995303431
0.2875437142947659,0.23086704943154676,201,0,20.077277593484723,4.23784995303431
0.2898517961819266,0.2308647413037344,201,0,20.077277593484723,4.23784995303431
0.29215985499168834,0.23086243319900027,201,0,20.077277593484723,4.23784995303431
0.29446789072443613,0.2308601251173439,201,0,20.077277593484723,4.23784995303431
0.29677590338054316,0.23085781705876496,201,0,20.077277593484723,4.23784995303431
0.2990838929603716,0.23085550902326302,201,0,20.077277593484723,4.23784995303431
0.3013918594642736,0.23085320101083773,201,0,20.077277593484723,4.23784995303431
0.30369980289259185,0.2308508930214887,201,0,20.077277593484723,4.23784995303431
0.3060077232456606,0.2308485850552156,201,0,20.077277593484723,4.23784995303431
0.30831562052380584,0.23084627711201808,201,0,20.077277593484723,4.23784995303431
0.31062349472734646,0.2308439691918958,201,0,20.077277593484723,4.23784995303431
0.31293134585659443,0.23084166129484845,201,0,20.077277593484723,4.23784995303431
0.3152391739118557,0.2308393534208757,201,0,20.077277593484723,4.23784995303431
0.3175469788934301,0.23083704556997725,201,0,20.077277593484723,4.23784995303431
0.3198547608016123,0.23083473774215277,201,0,20.077277593484723,4.23784995303431
0.322162519636692,0.23083242993740197,201,0,20.077277593484723,4.23784995303431
0.3244702553989546,0.23083012215572457,201,0,20.077277593484723,4.23784995303431
0.3267779680886807,0.23082781439712027,201,0,20.077277593484723,4.23784995303431
0.3290856577061478,0.2308255066615888,201,0,20.077277593484723,4.23784995303431
0.33139332425162915,0.23082319894912984,201,0,20.077277593484723,4.23784995303431
0.3337009677253952,0.23082089125974314,201,0,20.077277593484723,4.23784995303431
0.33600858812771295,0.23081858359342844,201,0,20.077277593484723,4.23784995303431
0.33831618545884695,0.23081627595018545,201,0,20.077277593484723,4.23784995303431
0.3406237597190588,0.23081396833001389,201,0,20.077277593484723,4.23784995303431
0.34293131090860796,0.23081166073291354,201,0,20.077277593484723,4.23784995303431
0.3452388390277516,0.23080935315888407,201,0,20.077277593484723,4.23784995303431
0.34754634407674495,0.23080704560792528,201,0,20.077277593484723,4.23784995303431
0.3498538260558411,0.2308047380800369,201,0,20.077277593484723,4.23784995303431
0.3521612849652917,0.23080243057521865,201,0,20.077277593484723,4.23784995303431
0.3544687208053464,0.2308001230934703,201,0,20.077277593484723,4.23784995303431
0.35677613357625393,0.23079781563479163,201,0,20.077277593484723,4.23784995303431
0.359083523278261,0.23079550819918232,201,0,20.077277593484723,4.23784995303431
0.36139088991161367,0.23079320078664214,201,0,20.077277593484723,4.23784995303431
0.36369823347655633,0.23079089339717088,201,0,20.077277593484723,4.23784995303431
0.36600555397333256,0.23078858603076827,201,0,20.077277593484723,4.23784995303431
0.368312851402185,0.23078627868743407,201,0,20.077277593484723,4.23784995303431
0.37062012576335523,0.23078397136716802,201,0,20.077277593484723,4.23784995303431
0.37292737705708395,0.23078166406996992,201,0,20.077277593484723,4.23784995303431
0.3752346052836112,0.23077935679583947,201,0,20.077277593484723,4.23784995303431
0.37754181044317614,0.23077704954477649,201,0,20.077277593484723,4.23784995303431
0.3798489925360175,0.23077474231678066,201,0,20.077277593484723,4.23784995303431
0.38215615156237326,0.23077243511185183,201,0,20.077277593484723,4.23784995303431
0.3844632875224807,0.23077012792998972,201,0,20.077277593484723,4.23784995303431
0.38677040041657673,0.2307678207711941,201,0,20.077277593484723,4.23784995303431
0.38907749024489796,0.2307655136354647,201,0,20.077277593484723,4.23784995303431
0.39138455700768,0.2307632065228013,201,0,20.077277593484723,4.23784995303431
0.3936916007051586,0.23076089943320371,201,0,20.077277593484723,4.23784995303431
0.3959986213375689,0.23075859236667162,201,0,20.077277593484723,4.23784995303431
0.3983056189051456,0.23075628532320486,201,0,20.077277593484723,4.23784995303431
0.4006125934081233,0.23075397830280317,201,0,20.077277593484723,4.23784995303431
0.40291954484673614,0.23075167130546628,201,0,20.077277593484723,4.23784995303431
0.4052264732212181,0.230749364331194,201,0,20.077277593484723,4.23784995303431
0.4075333785318026,0.2307470573799861,201,0,20.077277593484723,4.23784995303431
0.40984026077872315,0.2307447504518423,201,0,20.077277593484723,4.23784995303431
0.412147119962213,0.23074244354676243,201,0,20.077277593484723,4.23784995303431
0.41445395608250507,0.2307401366647462,201,0,20.077277593484723,4.23784995303431
0.4167607691398322,0.2307378298057934,201,0,20.077277593484723,4.23784995303431
0.41906755913442695,0.2307355229699038,201,0,20.077277593484723,4.23784995303431
0.42137432606652175,0.23073321615707715,201,0,20.077277593484723,4.23784995303431
0.423681069936349,0.23073090936731325,201,0,20.077277593484723,4.23784995303431
0.42598779074414084,0.23072860260061184,201,0,20.077277593484723,4.23784995303431
0.4282944884901293,0.23072629585697269,201,0,20.077277593484723,4.23784995303431
0.43060116317454633,0.23072398913639555,201,0,20.077277593484723,4.23784995303431
0.4329078147976238,0.23072168243888025,201,0,20.077277593484723,4.23784995303431
0.4352144433595934,0.2307193757644265,201,0,20.077277593484723,4.23784995303431
0.4375210488606868,0.2307170691130341,201,0,20.077277593484723,4.23784995303431
0.4398276313011355,0.2307147624847028,201,0,20.077277593484723,4.23784995303431
0.44213419068117105,0.23071245587943237,201,0,20.077277593484723,4.23784995303431
0.4444407270010247,0.23071014929722258,201,0,20.077277593484723,4.23784995303431
0.44674724026092794,0.2307078427380732,201,0,20.077277593484723,4.23784995303431
0.4490537304611119,0.230705536201984,201,0,20.077277593484723,4.23784995303431
0.45136019760180796,0.23070322968895476,201,0,20.077277593484723,4.23784995303431
0.4536666416832471,0.23070092319898525,201,0,20.077277593484723,4.23784995303431
0.45597306270566057,0.2306986167320752,201,0,20.077277593484723,4.23784995303431
0.4582794606692792,0.2306963102882244,201,0,20.077277593484723,4.23784995303431
0.4605858355743343,0.23069400386743263,201,0,20.077277593484723,4.23784995303431
0.46289218742105664,0.23069169746969967,201,0,20.077277593484723,4.23784995303431
0.46519851620967734,0.23068939109502526,201,0,20.077277593484723,4.23784995303431
0.4675048219404272,0.23068708474340915,201,0,20.077277593484723,4.23784995303431
0.46981110461353703,0.2306847784148512,201,0,20.077277593484723,4.23784995303431
0.4721173642292378,0.23068247210935106,201,0,20.077277593484723,4.23784995303431
0.4744236007877602,0.2306801658269086,201,0,20.077277593484723,4.23784995303431
0.47672981428933514,0.2306778595675235,201,0,20.077277593484723,4.23784995303431
0.4790360047341934,0.23067555333119563,201,0,20.077277593484723,4.23784995303431
0.4813421721225657,0.23067324711792467,201,0,20.077277593484723,4.23784995303431
0.48364831645468265,0.23067094092771043,201,0,20.077277593484723,4.23784995303431
0.4859544377307752,0.2306686347605527,201,0,20.077277593484723,4.23784995303431
0.4882605359510738,0.2306663286164512,201,0,20.077277593484723,4.23784995303431
0.49056661111580924,0.2306640224954057,201,0,20.077277593484723,4.23784995303431
0.4928726632252121,0.23066171639741603,201,0,20.077277593484723,4.23784995303431
0.49517869227951317,0.2306594103224819,201,0,20.077277593484723,4.23784995303431
0.4974846982789429,0.23065710427060312,201,0,20.077277593484723,4.23784995303431
0.4997906812237321,0.23065479824177942,201,0,20.077277593484723,4.23784995303431
0.5020966411141113,0.2306524922360106,201,0,20.077277593484723,4.23784995303431
0.5044025779503111,0.23065018625329642,201,0,20.077277593484723,4.23784995303431
0.5067084917325619,0.23064788029363664,201,0,20.077277593484723,4.23784995303431
0.5090143824610945,0.23064557435703104,201,0,20.077277593484723,4.23784995303431
0.5113202501361395,0.23064326844347938,201,0,20.077277593484723,4.23784995303431
0.5136260947579273,0.23064096255298144,201,0,20.077277593484723,4.23784995303431
0.5159319163266886,0.23063865668553699,201,0,20.077277593484723,4.23784995303431
0.5182377148426538,0.23063635084114578,201,0,20.077277593484723,4.23784995303431
0.5205434903060533,0.2306340450198076,201,0,20.077277593484723,4.23784995303431
0.5228492427171182,0.23063173922152222,201,0,20.077277593484723,4.23784995303431
0.5251549720760783,0.23062943344628942,201,0,20.077277593484723,4.23784995303431
0.5274606783831648,0.23062712769410892,201,0,20.077277593484723,4.23784995303431
0.5297663616386075,0.23062482196498055,201,0,20.077277593484723,4.23784995303431
0.5320720218426375,0.23062251625890404,201,0,20.077277593484723,4.23784995303431
0.5343776589954851,0.23062021057587917,201,0,20.077277593484723,4.23784995303431
0.5366832730973805,0.2306179049159057,201,0,20.077277593484723,4.23784995303431
0.5389888641485546,0.23061559927898342,201,0,20.077277593484723,4.23784995303431
0.5412944321492376,0.2306132936651121,201,0,20.077277593484723,4.23784995303431
0.5435999770996602,0.23061098807429148,201,0,20.077277593484723,4.23784995303431
0.5459054990000529,0.23060868250652136,201,0,20.077277593484723,4.23784995303431
0.5482109978506459,0.2306063769618015,201,0,20.077277593484723,4.23784995303431
0.5505164736516698,0.23060407144013167,201,0,20.077277593484723,4.23784995303431
0.552821926403355,0.23060176594151163,201,0,20.077277593484723,4.23784995303431
0.5551273561059321,0.23059946046594115,201,0,20.077277593484723,4.23784995303431
0.5574327627596317,0.23059715501342,201,0,20.077277593484723,4.23784995303431
