Vout,Iout,Irradiance,Temperature,MaxVoltage,MaxPower
0.010120852684108807,2.02419,1701,20,21.568535017671266,43.19447055717866
0.030362370908181283,2.02419,1701,20,21.568535017671266,43.19447055717866
0.05060347762726531,2.024179676728316,1701,20,21.568535017671266,43.19447055717866
0.07084409932613098,2.0241594352100916,1701,20,21.568535017671266,43.19447055717866
0.09108421197872572,2.024139194104405,1701,20,21.568535017671266,43.19447055717866
0.11132383918627023,2.0241189534847304,1701,20,21.568535017671266,43.19447055717866
0.13156300273489835,2.024098713374102,1701,20,21.568535017671266,43.19447055717866
0.15180172273486453,2.024078473748918,1701,20,21.568535017671266,43.19447055717866
0.17204001774926425,2.0240582345873936,1701,20,21.568535017671266,43.19447055717866
0.1922779049130749,2.024037995869418,1701,20,21.568535017671266,43.19447055717866
0.21251540004303737,2.024017757576427,1701,20,21.568535017671266,43.19447055717866
0.23275251773908326,2.0239975196912874,1701,20,21.568535017671266,43.19447055717866
0.25298927147795824,2.023977282198181,1701,20,21.568535017671266,43.19447055717866
0.2732256736996414,2.023957045082509,1701,20,21.568535017671266,43.19447055717866
0.2934617358871161,2.023936808330794,1701,20,21.568535017671266,43.19447055717866
0.31369746864000225,2.0239165719305956,1701,20,21.568535017671266,43.19447055717866
0.3339328817425243,2.023896335870432,1701,20,21.568535017671266,43.19447055717866
0.3541679842262483,2.0238761001397028,1701,20,21.568535017671266,43.19447055717866
0.3744027844279933,2.023855864728624,1701,20,21.568535017671266,43.19447055717866
0.394637290043286,2.023835629628164,1701,20,21.568535017671266,43.19447055717866
0.41487150817570273,2.0238153948299855,1701,20,21.568535017671266,43.19447055717866
0.43510544538241486,2.0237951603263937,1701,20,21.568535017671266,43.19447055717866
0.4553391077162307,2.023774926110285,1701,20,21.568535017671266,43.19447055717866
0.47557250076440116,2.0237546921751015,1701,20,21.568535017671266,43.19447055717866
0.49580562968444103,2.023734458514791,1701,20,21.568535017671266,43.19447055717866
0.5160384992371936,2.0237142251237663,1701,20,21.568535017671266,43.19447055717866
0.5362711138173506,2.0236939919968697,1701,20,21.568535017671266,43.19447055717866
0.5565034774816251,2.0236737591293403,1701,20,21.568535017671266,43.19447055717866
0.576735593974756,2.0236535265167834,1701,20,21.568535017671266,43.19447055717866
0.5969674667535113,2.0236332941551423,1701,20,21.568535017671266,43.19447055717866
0.6171990990088457,2.0236130620406727,1701,20,21.568535017671266,43.19447055717866
0.6374304936863522,2.023592830169917,1701,20,21.568535017671266,43.19447055717866
0.6576616535051409,2.023572598539685,1701,20,21.568535017671266,43.19447055717866
0.6778925809752653,2.0235523671470306,1701,20,21.568535017671266,43.19447055717866
0.6981232784138062,2.023532135989235,1701,20,21.568535017671266,43.19447055717866
0.7183537479597207,2.023511905063788,1701,20,21.568535017671266,43.19447055717866
0.7385839915875465,2.0234916743683726,1701,20,21.568535017671266,43.19447055717866
0.7588140111200531,2.0234714439008497,1701,20,21.568535017671266,43.19447055717866
0.7790438082399185,2.023451213659245,1701,20,21.568535017671266,43.19447055717866
0.7992733845005084,2.0234309836417355,1701,20,21.568535017671266,43.19447055717866
0.819502741335826,2.0234107538466386,1701,20,21.568535017671266,43.19447055717866
0.8397318800696952,2.023390524272401,1701,20,21.568535017671266,43.19447055717866
0.8599608019242388,2.023370294917589,1701,20,21.568535017671266,43.19447055717866
0.8801895080277023,2.023350065780878,1701,20,21.568535017671266,43.19447055717866
0.9004179994216789,2.023329836861046,1701,20,21.568535017671266,43.19447055717866
0.9206462770677746,2.0233096081569655,1701,20,21.568535017671266,43.19447055717866
0.9408743418537636,2.0232893796675944,1701,20,21.568535017671266,43.19447055717866
0.9611021945992697,2.0232691513919714,1701,20,21.568535017671266,43.19447055717866
0.9813298360610079,2.0232489233292084,1701,20,21.568535017671266,43.19447055717866
1.001557266937627,2.0232286954784855,1701,20,21.568535017671266,43.19447055717866
1.021784487874175,2.0232084678390465,1701,20,21.568535017671266,43.19447055717866
1.0420114994662262,2.023188240410193,1701,20,21.568535017671266,43.19447055717866
1.062238302263684,2.023168013191279,1701,20,21.568535017671266,43.19447055717866
1.0824648967742987,2.0231477861817098,1701,20,21.568535017671266,43.19447055717866
1.1026912834669076,2.023127559380935,1701,20,21.568535017671266,43.19447055717866
1.1229174627744314,2.023107332788447,1701,20,21.568535017671266,43.19447055717866
1.143143435096636,2.023087106403777,1701,20,21.568535017671266,43.19447055717866
1.163369200802685,2.023066880226492,1701,20,21.568535017671266,43.19447055717866
1.1835947602334933,2.0230466542561927,1701,20,21.568535017671266,43.19447055717866
1.2038201137039004,2.0230264284925092,1701,20,21.568535017671266,43.19447055717866
1.224045261504677,2.023006202935101,1701,20,21.568535017671266,43.19447055717866
1.2442702039043774,2.0229859775836534,1701,20,21.568535017671266,43.19447055717866
1.2644949411510487,2.022965752437875,1701,20,21.568535017671266,43.19447055717866
1.2847194734738072,2.0229455274974977,1701,20,21.568535017671266,43.19447055717866
1.304943801084298,2.022925302762274,1701,20,21.568535017671266,43.19447055717866
1.3251679241780354,2.0229050782319735,1701,20,21.568535017671266,43.19447055717866
1.345391842935647,2.0228848539063855,1701,20,21.568535017671266,43.19447055717866
1.3656155575240194,2.022864629785314,1701,20,21.568535017671266,43.19447055717866
1.3858390680973516,2.022844405868579,1701,20,21.568535017671266,43.19447055717866
1.4060623747981358,2.022824182156013,1701,20,21.568535017671266,43.19447055717866
1.4262854777580556,2.022803958647462,1701,20,21.568535017671266,43.19447055717866
1.4465083770988174,2.0227837353427836,1701,20,21.568535017671266,43.19447055717866
1.46673107293292,2.022763512241846,1701,20,21.568535017671266,43.19447055717866
1.4869535653643604,2.0227432893445276,1701,20,21.568535017671266,43.19447055717866
1.5071758544892917,2.0227230666507157,1701,20,21.568535017671266,43.19447055717866
1.5273979403966218,2.0227028441603068,1701,20,21.568535017671266,43.19447055717866
1.5476198231685756,2.022682621873204,1701,20,21.568535017671266,43.19447055717866
1.5678415028812054,2.022662399789319,1701,20,21.568535017671266,43.19447055717866
1.588062979604868,2.022642177908569,1701,20,21.568535017671266,43.19447055717866
1.6082842534046624,2.022621956230879,1701,20,21.568535017671266,43.19447055717866
1.6285053243408343,2.022601734756177,1701,20,21.568535017671266,43.19447055717866
1.648726192469149,2.0225815134843996,1701,20,21.568535017671266,43.19447055717866
1.6689468578412372,2.0225612924154857,1701,20,21.568535017671266,43.19447055717866
1.6891673205049123,2.0225410715493792,1701,20,21.568535017671266,43.19447055717866
1.7093875805044647,2.0225208508860293,1701,20,21.568535017671266,43.19447055717866
1.7296076378809315,2.022500630425388,1701,20,21.568535017671266,43.19447055717866
1.7498274926723494,2.0224804101674105,1701,20,21.568535017671266,43.19447055717866
1.7700471449139825,2.022460190112056,1701,20,21.568535017671266,43.19447055717866
1.7902665946385379,2.0224399702592866,1701,20,21.568535017671266,43.19447055717866
1.8104858418763616,2.022419750609067,1701,20,21.568535017671266,43.19447055717866
1.8307048866556201,2.0223995311613643,1701,20,21.568535017671266,43.19447055717866
1.850923729002468,2.0223793119161484,1701,20,21.568535017671266,43.19447055717866
1.8711423689412032,2.022359092873391,1701,20,21.568535017671266,43.19447055717866
1.89136080649441,2.0223388740330663,1701,20,21.568535017671266,43.19447055717866
1.9115790416830896,2.0223186553951495,1701,20,21.568535017671266,43.19447055717866
1.9317970745267834,2.022298436959618,1701,20,21.568535017671266,43.19447055717866
1.9520149050436841,2.022278218726451,1701,20,21.568535017671266,43.19447055717866
1.9722325332507409,2.0222580006956297,1701,20,21.568535017671266,43.19447055717866
1.992449959163754,2.0222377828671343,1701,20,21.568535017671266,43.19447055717866
2.012667182797463,2.022217565240949,1701,20,21.568535017671266,43.19447055717866
2.0328842041656308,2.022197347817058,1701,20,21.568535017671266,43.19447055717866
2.053101023281114,2.022177130595446,1701,20,21.568535017671266,43.19447055717866
2.073317640155937,2.0221569135760995,1701,20,21.568535017671266,43.19447055717866
2.0935340548013546,2.0221366967590058,1701,20,21.568535017671266,43.19447055717866
2.1137502672279105,2.0221164801441525,1701,20,21.568535017671266,43.19447055717866
2.1339662774454924,2.022096263731529,1701,20,21.568535017671266,43.19447055717866
2.1541820854633835,2.022076047521124,1701,20,21.568535017671266,43.19447055717866
2.174397691290308,2.0220558315129282,1701,20,21.568535017671266,43.19447055717866
2.1946130949344744,2.022035615706932,1701,20,21.568535017671266,43.19447055717866
2.214828296403614,2.0220154001031263,1701,20,21.568535017671266,43.19447055717866
2.2350432957050197,2.021995184701504,1701,20,21.568535017671266,43.19447055717866
2.255258092845579,2.021974969502056,1701,20,21.568535017671266,43.19447055717866
2.2754726878318046,2.0219547545047765,1701,20,21.568535017671266,43.19447055717866
2.2956870806698624,2.0219345397096573,1701,20,21.568535017671266,43.19447055717866
2.315901271365601,2.021914325116693,1701,20,21.568535017671266,43.19447055717866
2.3361152599245725,2.021894110725876,1701,20,21.568535017671266,43.19447055717866
2.3563290463520605,2.0218738965372016,1701,20,21.568535017671266,43.19447055717866
2.3765426306530943,2.021853682550664,1701,20,21.568535017671266,43.19447055717866
2.3967560128324723,2.0218334687662582,1701,20,21.568535017671266,43.19447055717866
2.4169691928947814,2.0218132551839787,1701,20,21.568535017671266,43.19447055717866
2.4371821708444075,2.0217930418038206,1701,20,21.568535017671266,43.19447055717866
2.457394946685558,2.0217728286257795,1701,20,21.568535017671266,43.19447055717866
2.4776075204222687,2.0217526156498513,1701,20,21.568535017671266,43.19447055717866
2.4978198920584234,2.0217324028760317,1701,20,21.568535017671266,43.19447055717866
2.5180320615977596,2.0217121903043163,1701,20,21.568535017671266,43.19447055717866
2.5382440290438852,2.0216919779347013,1701,20,21.568535017671266,43.19447055717866
2.558455794400284,2.021671765767183,1701,20,21.568535017671266,43.19447055717866
2.5786673576703283,2.021651553801758,1701,20,21.568535017671266,43.19447055717866
2.598878718857286,2.021631342038423,1701,20,21.568535017671266,43.19447055717866
2.619089877964329,2.0216111304771744,1701,20,21.568535017671266,43.19447055717866
2.63930083499454,2.0215909191180086,1701,20,21.568535017671266,43.19447055717866
2.659511589950921,2.0215707079609224,1701,20,21.568535017671266,43.19447055717866
2.6797221428363986,2.0215504970059133,1701,20,21.568535017671266,43.19447055717866
2.6999324936538285,2.021530286252978,1701,20,21.568535017671266,43.19447055717866
2.7201426424060022,2.021510075702114,1701,20,21.568535017671266,43.19447055717866
2.740352589095652,2.0214898653533173,1701,20,21.568535017671266,43.19447055717866
2.760562333725456,2.0214696552065865,1701,20,21.568535017671266,43.19447055717866
2.780771876298041,2.0214494452619176,1701,20,21.568535017671266,43.19447055717866
2.800981216815987,2.021429235519309,1701,20,21.568535017671266,43.19447055717866
2.821190355281832,2.021409025978757,1701,20,21.568535017671266,43.19447055717866
2.841399291698073,2.0213888166402603,1701,20,21.568535017671266,43.19447055717866
2.8616080260671706,2.0213686075038155,1701,20,21.568535017671266,43.19447055717866
2.881816558391551,2.0213483985694203,1701,20,21.568535017671266,43.19447055717866
2.9020248886736097,2.021328189837072,1701,20,21.568535017671266,43.19447055717866
2.922233016915714,2.0213079813067685,1701,20,21.568535017671266,43.19447055717866
2.9424409431202028,2.0212877729785075,1701,20,21.568535017671266,43.19447055717866
2.962648667289392,2.021267564852286,1701,20,21.568535017671266,43.19447055717866
2.9828561894255725,2.0212473569281024,1701,20,21.568535017671266,43.19447055717866
3.0030635095310183,2.021227149205954,1701,20,21.568535017671266,43.19447055717866
3.023270627607979,2.0212069416858385,1701,20,21.568535017671266,43.19447055717866
3.0434775436586903,2.021186734367754,1701,20,21.568535017671266,43.19447055717866
3.063684257685369,2.021166527251698,1701,20,21.568535017671266,43.19447055717866
3.0838907696902176,2.021146320337668,1701,20,21.568535017671266,43.19447055717866
3.104097079675425,2.021126113625662,1701,20,21.568535017671266,43.19447055717866
3.1243031876431653,2.0211059071156776,1701,20,21.568535017671266,43.19447055717866
3.1445090935956026,2.021085700807713,1701,20,21.568535017671266,43.19447055717866
3.164714797534889,2.021065494701766,1701,20,21.568535017671266,43.19447055717866
3.1849202994631667,2.021045288797834,1701,20,21.568535017671266,43.19447055717866
3.205125599382568,2.0210250830959158,1701,20,21.568535017671266,43.19447055717866
3.2253306972952163,2.021004877596008,1701,20,21.568535017671266,43.19447055717866
3.2455355932032295,2.020984672298109,1701,20,21.568535017671266,43.19447055717866
3.265740287108714,2.020964467202217,1701,20,21.568535017671266,43.19447055717866
3.285944779013772,2.0209442623083294,1701,20,21.568535017671266,43.19447055717866
3.306149068920498,2.0209240576164444,1701,20,21.568535017671266,43.19447055717866
3.3263531568309825,2.0209038531265597,1701,20,21.568535017671266,43.19447055717866
3.3465570427473095,2.020883648838674,1701,20,21.568535017671266,43.19447055717866
3.366760726671557,2.020863444752784,1701,20,21.568535017671266,43.19447055717866
3.3869642086057996,2.0208432408688877,1701,20,21.568535017671266,43.19447055717866
3.407167488552108,2.0208230371869838,1701,20,21.568535017671266,43.19447055717866
3.4273705665125487,2.0208028337070703,1701,20,21.568535017671266,43.19447055717866
3.4475734424891846,2.020782630429144,1701,20,21.568535017671266,43.19447055717866
3.4677761164840737,2.020762427353204,1701,20,21.568535017671266,43.19447055717866
3.4879785884992716,2.020742224479248,1701,20,21.568535017671266,43.19447055717866
3.508180858536833,2.020722021807273,1701,20,21.568535017671266,43.19447055717866
3.528382926598808,2.0207018193372783,1701,20,21.568535017671266,43.19447055717866
3.548584792687247,2.0206816170692607,1701,20,21.568535017671266,43.19447055717866
3.5687864568041925,2.0206614150032194,1701,20,21.568535017671266,43.19447055717866
3.5889879189516907,2.020641213139151,1701,20,21.568535017671266,43.19447055717866
3.609189179131783,2.020621011477054,1701,20,21.568535017671266,43.19447055717866
3.6293902373465095,2.020600810016927,1701,20,21.568535017671266,43.19447055717866
3.6495910935979086,2.020580608758767,1701,20,21.568535017671266,43.19447055717866
3.6697917478880173,2.0205604077025723,1701,20,21.568535017671266,43.19447055717866
3.689992200218872,2.020540206848341,1701,20,21.568535017671266,43.19447055717866
3.7101924505925066,2.020520006196071,1701,20,21.568535017671266,43.19447055717866
3.7303924990109545,2.0204998057457604,1701,20,21.568535017671266,43.19447055717866
3.7505923454762473,2.020479605497407,1701,20,21.568535017671266,43.19447055717866
3.7707919899904163,2.0204594054510085,1701,20,21.568535017671266,43.19447055717866
3.7909914325554928,2.020439205606563,1701,20,21.568535017671266,43.19447055717866
3.8111906731735035,2.0204190059640688,1701,20,21.568535017671266,43.19447055717866
3.831389711846479,2.0203988065235237,1701,20,21.568535017671266,43.19447055717866
3.8515885485764465,2.020378607284926,1701,20,21.568535017671266,43.19447055717866
3.8717871833654316,2.020358408248273,1701,20,21.568535017671266,43.19447055717866
3.8919856162154627,2.0203382094135627,1701,20,21.568535017671266,43.19447055717866
3.9121838471285644,2.0203180107807936,1701,20,21.568535017671266,43.19447055717866
3.9323818761067635,2.0202978123499635,1701,20,21.568535017671266,43.19447055717866
3.952579703152082,2.02027761412107,1701,20,21.568535017671266,43.19447055717866
3.9727773282665457,2.020257416094112,1701,20,21.568535017671266,43.19447055717866
3.992974751452178,2.0202372182690866,1701,20,21.568535017671266,43.19447055717866
4.013171972711003,2.0202170206459917,1701,20,21.568535017671266,43.19447055717866
4.033368992045044,2.020196823224826,1701,20,21.568535017671266,43.19447055717866
4.053565809456322,2.0201766260055867,1701,20,21.568535017671266,43.19447055717866
4.073762424946862,2.0201564289882725,1701,20,21.568535017671266,43.19447055717866
4.093958838518683,2.020136232172881,1701,20,21.568535017671266,43.19447055717866
4.114155050173808,2.0201160355594103,1701,20,21.568535017671266,43.19447055717866
4.13435105991426,2.020095839147858,1701,20,21.568535017671266,43.19447055717866
4.154546867742057,2.0200756429382225,1701,20,21.568535017671266,43.19447055717866
4.174742473659224,2.0200554469305017,1701,20,21.568535017671266,43.19447055717866
4.194937877667779,2.0200352511246935,1701,20,21.568535017671266,43.19447055717866
4.215133079769745,2.020015055520796,1701,20,21.568535017671266,43.19447055717866
4.235328079967141,2.019994860118807,1701,20,21.568535017671266,43.19447055717866
4.255522878261987,2.0199746649187245,1701,20,21.568535017671266,43.19447055717866
4.275717474656304,2.0199544699205467,1701,20,21.568535017671266,43.19447055717866
4.2959118691521105,2.0199342751242715,1701,20,21.568535017671266,43.19447055717866
4.316106061751428,2.0199140805298965,1701,20,21.568535017671266,43.19447055717866
4.336300052456276,2.0198938861374205,1701,20,21.568535017671266,43.19447055717866
4.356493841268676,2.0198736919468403,1701,20,21.568535017671266,43.19447055717866
4.376687428190642,2.019853497958155,1701,20,21.568535017671266,43.19447055717866
4.3968808132241985,2.019833304171362,1701,20,21.568535017671266,43.19447055717866
4.417073996371363,2.0198131105864596,1701,20,21.568535017671266,43.19447055717866
4.437266977634157,2.0197929172034454,1701,20,21.568535017671266,43.19447055717866
4.457459757014595,2.0197727240223173,1701,20,21.568535017671266,43.19447055717866
4.477652334514701,2.019752531043074,1701,20,21.568535017671266,43.19447055717866
4.497844710136491,2.019732338265713,1701,20,21.568535017671266,43.19447055717866
4.518036883881984,2.019712145690232,1701,20,21.568535017671266,43.19447055717866
4.538228855753201,2.0196919533166295,1701,20,21.568535017671266,43.19447055717866
4.5584206257521585,2.0196717611449033,1701,20,21.568535017671266,43.19447055717866
4.5786121938808755,2.0196515691750516,1701,20,21.568535017671266,43.19447055717866
4.598803560141372,2.0196313774070718,1701,20,21.568535017671266,43.19447055717866
4.618994724535666,2.019611185840962,1701,20,21.568535017671266,43.19447055717866
4.639185687065777,2.019590994476721,1701,20,21.568535017671266,43.19447055717866
4.659376447733722,2.0195708033143456,1701,20,21.568535017671266,43.19447055717866
4.67956700654152,2.019550612353835,1701,20,21.568535017671266,43.19447055717866
4.699757363491188,2.019530421595186,1701,20,21.568535017671266,43.19447055717866
4.719947518584746,2.019510231038397,1701,20,21.568535017671266,43.19447055717866
4.740137471824212,2.0194900406834666,1701,20,21.568535017671266,43.19447055717866
4.760327223211606,2.0194698505303923,1701,20,21.568535017671266,43.19447055717866
4.780516772748944,2.0194496605791716,1701,20,21.568535017671266,43.19447055717866
4.800706120438244,2.0194294708298033,1701,20,21.568535017671266,43.19447055717866
4.820895266281526,2.019409281282285,1701,20,21.568535017671266,43.19447055717866
4.841084210280807,2.0193890919366146,1701,20,21.568535017671266,43.19447055717866
