Vout,Iout,Irradiance,Temperature,MaxVoltage,MaxPower
0.0029809213372948336,0.5961899999999999,501,20,21.550521752541737,12.384026958516033
0.008942708891827642,0.5961899999999999,501,20,21.550521752541737,12.384026958516033
0.014904375244714824,0.5961869594596626,501,20,21.550521752541737,12.384026958516033
0.02086589874332252,0.5961809976721081,501,20,21.550521752541737,12.384026958516033
0.026827272311194347,0.5961750360060593,501,20,21.550521752541737,12.384026958516033
0.03278850289965984,0.5961690744831568,501,20,21.550521752541737,12.384026958516033
0.03874959692544625,0.5961631131101851,501,20,21.550521752541737,12.384026958516033
0.04471056031167967,0.5961571518801928,501,20,21.550521752541737,12.384026958516033
0.050671398525797405,0.5961511907867632,501,20,21.550521752541737,12.384026958516033
0.056632116614609346,0.596145229823973,501,20,21.550521752541737,12.384026958516033
0.06259271923666178,0.596139268986355,501,20,21.550521752541737,12.384026958516033
0.06855321069211093,0.5961333082688623,501,20,21.550521752541737,12.384026958516033
0.07451359495029808,0.5961273476668363,501,20,21.550521752541737,12.384026958516033
0.080473875675203,0.596121387175977,501,20,21.550521752541737,12.384026958516033
0.0864340562489389,0.5961154267923148,501,20,21.550521752541737,12.384026958516033
0.09239413979343979,0.596109466512186,501,20,21.550521752541737,12.384026958516033
0.09835412919047888,0.5961035063322083,501,20,21.550521752541737,12.384026958516033
0.10431402710014714,0.5960975462492598,501,20,21.550521752541737,12.384026958516033
0.1102738359779098,0.5960915862604588,501,20,21.550521752541737,12.384026958516033
0.11623355809035052,0.5960856263631451,501,20,21.550521752541737,12.384026958516033
0.12219319552970426,0.5960796665548633,501,20,21.550521752541737,12.384026958516033
0.12815275022727207,0.5960737068333469,501,20,21.550521752541737,12.384026958516033
0.13411222396580333,0.5960677471965036,501,20,21.550521752541737,12.384026958516033
0.14007161839092583,0.5960617876424019,501,20,21.550521752541737,12.384026958516033
0.14603093502169595,0.5960558281692594,501,20,21.550521752541737,12.384026958516033
0.1519901752603373,0.5960498687754302,501,20,21.550521752541737,12.384026958516033
0.15794934040123013,0.5960439094593953,501,20,21.550521752541737,12.384026958516033
0.16390843163920873,0.5960379502197527,501,20,21.550521752541737,12.384026958516033
0.16986745007722082,0.5960319910552078,501,20,21.550521752541737,12.384026958516033
0.1758263967333974,0.5960260319645656,501,20,21.550521752541737,12.384026958516033
0.18178527254757876,0.5960200729467235,501,20,21.550521752541737,12.384026958516033
0.18774407838733811,0.5960141140006633,501,20,21.550521752541737,12.384026958516033
0.19370281505354223,0.596008155125445,501,20,21.550521752541737,12.384026958516033
0.19966148328548355,0.5960021963202011,501,20,21.550521752541737,12.384026958516033
0.20562008376561824,0.5959962375841308,501,20,21.550521752541737,12.384026958516033
0.21157861712393874,0.5959902789164948,501,20,21.550521752541737,12.384026958516033
0.21753708394201093,0.5959843203166105,501,20,21.550521752541737,12.384026958516033
0.22349548475669986,0.5959783617838481,501,20,21.550521752541737,12.384026958516033
0.22945382006360904,0.5959724033176258,501,20,21.550521752541737,12.384026958516033
0.23541209032025553,0.595966444917407,501,20,21.550521752541737,12.384026958516033
0.24137029594899986,0.595960486582696,501,20,21.550521752541737,12.384026958516033
0.24732843733975152,0.5959545283130352,501,20,21.550521752541737,12.384026958516033
0.2532865148524653,0.5959485701080022,501,20,21.550521752541737,12.384026958516033
0.25924452881944665,0.5959426119672073,501,20,21.550521752541737,12.384026958516033
0.26520247954747855,0.5959366538902904,501,20,21.550521752541737,12.384026958516033
0.2711603673197853,0.5959306958769193,501,20,21.550521752541737,12.384026958516033
0.2771181923978456,0.595924737926787,501,20,21.550521752541737,12.384026958516033
0.2830759550230651,0.5959187800396105,501,20,21.550521752541737,12.384026958516033
0.2890336554183214,0.5959128222151282,501,20,21.550521752541737,12.384026958516033
0.294991293789389,0.5959068644530988,501,20,21.550521752541737,12.384026958516033
0.3009488703262559,0.5959009067532993,501,20,21.550521752541737,12.384026958516033
0.306906385204338,0.5958949491155241,501,20,21.550521752541737,12.384026958516033
0.31286383858559985,0.595888991539583,501,20,21.550521752541737,12.384026958516033
0.3188212306195904,0.5958830340253006,501,20,21.550521752541737,12.384026958516033
0.3247785614443976,0.5958770765725151,501,20,21.550521752541737,12.384026958516033
0.3307358311875307,0.5958711191810769,501,20,21.550521752541737,12.384026958516033
0.33669303996673394,0.5958651618508478,501,20,21.550521752541737,12.384026958516033
0.3426501878907378,0.5958592045817004,501,20,21.550521752541737,12.384026958516033
0.34860727505995287,0.595853247373517,501,20,21.550521752541737,12.384026958516033
0.3545643015671097,0.5958472902261887,501,20,21.550521752541737,12.384026958516033
0.3605212674978498,0.5958413331396152,501,20,21.550521752541737,12.384026958516033
0.3664781729312713,0.5958353761137037,501,20,21.550521752541737,12.384026958516033
0.37243501794043193,0.5958294191483687,501,20,21.550521752541737,12.384026958516033
0.37839180259281413,0.595823462243531,501,20,21.550521752541737,12.384026958516033
0.38434852695075405,0.5958175053991175,501,20,21.550521752541737,12.384026958516033
0.39030519107183725,0.5958115486150608,501,20,21.550521752541737,12.384026958516033
0.3962617950092645,0.5958055918912986,501,20,21.550521752541737,12.384026958516033
0.40221833881218894,0.5957996352277732,501,20,21.550521752541737,12.384026958516033
0.4081748225260275,0.5957936786244314,501,20,21.550521752541737,12.384026958516033
0.4141312461927487,0.5957877220812242,501,20,21.550521752541737,12.384026958516033
0.42008760985113774,0.595781765598106,501,20,21.550521752541737,12.384026958516033
0.4260439135370411,0.5957758091750349,501,20,21.550521752541737,12.384026958516033
0.43200015728359326,0.5957698528119721,501,20,21.550521752541737,12.384026958516033
0.4379563411214251,0.595763896508882,501,20,21.550521752541737,12.384026958516033
0.44391246507885634,0.595757940265731,501,20,21.550521752541737,12.384026958516033
0.44986852918207354,0.5957519840824889,501,20,21.550521752541737,12.384026958516033
0.45582453345529444,0.595746027959127,501,20,21.550521752541737,12.384026958516033
0.4617804779209191,0.5957400718956194,501,20,21.550521752541737,12.384026958516033
0.4677363625996698,0.5957341158919418,501,20,21.550521752541737,12.384026958516033
0.4736921875107204,0.5957281599480718,501,20,21.550521752541737,12.384026958516033
0.479647952671815,0.5957222040639887,501,20,21.550521752541737,12.384026958516033
0.48560365809937867,0.5957162482396732,501,20,21.550521752541737,12.384026958516033
0.49155930380861806,0.5957102924751077,501,20,21.550521752541737,12.384026958516033
0.49751488981361575,0.5957043367702757,501,20,21.550521752541737,12.384026958516033
0.5034704161274169,0.595698381125162,501,20,21.550521752541737,12.384026958516033
0.5094258827621083,0.5956924255397525,501,20,21.550521752541737,12.384026958516033
0.5153812897288927,0.5956864700140344,501,20,21.550521752541737,12.384026958516033
0.5213366370381567,0.5956805145479952,501,20,21.550521752541737,12.384026958516033
0.5272919246995338,0.595674559141624,501,20,21.550521752541737,12.384026958516033
0.5332471527219615,0.5956686037949103,501,20,21.550521752541737,12.384026958516033
0.539202321113736,0.5956626485078444,501,20,21.550521752541737,12.384026958516033
0.5451574298825608,0.5956566932804176,501,20,21.550521752541737,12.384026958516033
0.5511124790355921,0.5956507381126213,501,20,21.550521752541737,12.384026958516033
0.5570674685794819,0.595644783004448,501,20,21.550521752541737,12.384026958516033
0.5630223985204157,0.5956388279558905,501,20,21.550521752541737,12.384026958516033
0.568977268864149,0.5956328729669421,501,20,21.550521752541737,12.384026958516033
0.5749320796160403,0.5956269180375967,501,20,21.550521752541737,12.384026958516033
0.5808868307810817,0.5956209631678484,501,20,21.550521752541737,12.384026958516033
0.5868415223639268,0.595615008357692,501,20,21.550521752541737,12.384026958516033
0.5927961543689172,0.5956090536071225,501,20,21.550521752541737,12.384026958516033
0.598750726800106,0.5956030989161352,501,20,21.550521752541737,12.384026958516033
0.6047052396612799,0.5955971442847257,501,20,21.550521752541737,12.384026958516033
0.6106596929559808,0.5955911897128899,501,20,21.550521752541737,12.384026958516033
0.6166140866875235,0.5955852352006242,501,20,21.550521752541737,12.384026958516033
0.6225684208590134,0.595579280747925,501,20,21.550521752541737,12.384026958516033
0.6285226954733631,0.5955733263547889,501,20,21.550521752541737,12.384026958516033
0.6344769105333063,0.5955673720212128,501,20,21.550521752541737,12.384026958516033
0.6404310660414129,0.5955614177471938,501,20,21.550521752541737,12.384026958516033
0.6463851620001002,0.5955554635327294,501,20,21.550521752541737,12.384026958516033
0.6523391984116458,0.5955495093778167,501,20,21.550521752541737,12.384026958516033
0.6582931752781974,0.5955435552824534,501,20,21.550521752541737,12.384026958516033
0.6642470926017835,0.5955376012466373,501,20,21.550521752541737,12.384026958516033
0.6702009503843225,0.5955316472703661,501,20,21.550521752541737,12.384026958516033
0.6761547486276305,0.595525693353638,501,20,21.550521752541737,12.384026958516033
0.6821084873334299,0.5955197394964509,501,20,21.550521752541737,12.384026958516033
0.6880621665033566,0.5955137856988029,501,20,21.550521752541737,12.384026958516033
0.6940157861389658,0.5955078319606925,501,20,21.550521752541737,12.384026958516033
0.6999693462417393,0.595501878282118,501,20,21.550521752541737,12.384026958516033
0.7059228468130908,0.5954959246630778,501,20,21.550521752541737,12.384026958516033
0.7118762878543704,0.5954899711035703,501,20,21.550521752541737,12.384026958516033
0.7178296693668706,0.5954840176035944,501,20,21.550521752541737,12.384026958516033
0.7237829913518302,0.5954780641631484,501,20,21.550521752541737,12.384026958516033
0.7297362538104383,0.5954721107822313,501,20,21.550521752541737,12.384026958516033
0.7356894567438382,0.5954661574608416,501,20,21.550521752541737,12.384026958516033
0.7416426001531313,0.5954602041989784,501,20,21.550521752541737,12.384026958516033
0.7475956840393799,0.5954542509966403,501,20,21.550521752541737,12.384026958516033
0.7535487084036103,0.5954482978538264,501,20,21.550521752541737,12.384026958516033
0.7595016732468156,0.5954423447705354,501,20,21.550521752541737,12.384026958516033
0.7654545785699582,0.5954363917467664,501,20,21.550521752541737,12.384026958516033
0.7714074243739727,0.5954304387825186,501,20,21.550521752541737,12.384026958516033
0.777360210659767,0.5954244858777907,501,20,21.550521752541737,12.384026958516033
0.7833129374282249,0.5954185330325821,501,20,21.550521752541737,12.384026958516033
0.7892656046802085,0.5954125802468916,501,20,21.550521752541737,12.384026958516033
0.795218212416559,0.5954066275207184,501,20,21.550521752541737,12.384026958516033
0.8011707606380986,0.5954006748540617,501,20,21.550521752541737,12.384026958516033
0.8071232493456322,0.5953947222469206,501,20,21.550521752541737,12.384026958516033
0.8130756785399483,0.5953887696992943,501,20,21.550521752541737,12.384026958516033
0.8190280482218208,0.595382817211182,501,20,21.550521752541737,12.384026958516033
0.8249803583920097,0.595376864782583,501,20,21.550521752541737,12.384026958516033
0.8309326090512621,0.5953709124134964,501,20,21.550521752541737,12.384026958516033
0.8368848002003137,0.5953649601039214,501,20,21.550521752541737,12.384026958516033
0.8428369318398891,0.5953590078538574,501,20,21.550521752541737,12.384026958516033
0.8487890039707032,0.5953530556633035,501,20,21.550521752541737,12.384026958516033
0.8547410165934614,0.5953471035322592,501,20,21.550521752541737,12.384026958516033
0.8606929697088606,0.5953411514607236,501,20,21.550521752541737,12.384026958516033
0.8666448633175902,0.5953351994486961,501,20,21.550521752541737,12.384026958516033
0.872596697420332,0.5953292474961759,501,20,21.550521752541737,12.384026958516033
0.8785484720177612,0.5953232956031623,501,20,21.550521752541737,12.384026958516033
0.8845001871105467,0.5953173437696548,501,20,21.550521752541737,12.384026958516033
0.8904518426993516,0.5953113919956525,501,20,21.550521752541737,12.384026958516033
0.8964034387848343,0.595305440281155,501,20,21.550521752541737,12.384026958516033
0.902354975367648,0.5952994886261613,501,20,21.550521752541737,12.384026958516033
0.9083064524484411,0.595293537030671,501,20,21.550521752541737,12.384026958516033
0.9142578700278581,0.5952875854946834,501,20,21.550521752541737,12.384026958516033
0.9202092281065402,0.5952816340181978,501,20,21.550521752541737,12.384026958516033
0.9261605266851237,0.5952756826012134,501,20,21.550521752541737,12.384026958516033
0.9321117657642433,0.59526973124373,501,20,21.550521752541737,12.384026958516033
0.9380629453445296,0.5952637799457465,501,20,21.550521752541737,12.384026958516033
0.9440140654266107,0.5952578287072625,501,20,21.550521752541737,12.384026958516033
0.9499651260111124,0.5952518775282774,501,20,21.550521752541737,12.384026958516033
0.9559161270986575,0.5952459264087904,501,20,21.550521752541737,12.384026958516033
0.9618670686898673,0.595239975348801,501,20,21.550521752541737,12.384026958516033
0.9678179507853605,0.5952340243483086,501,20,21.550521752541737,12.384026958516033
0.9737687733857543,0.5952280734073124,501,20,21.550521752541737,12.384026958516033
0.9797195364916643,0.5952221225258121,501,20,21.550521752541737,12.384026958516033
0.9856702401037041,0.5952161717038068,501,20,21.550521752541737,12.384026958516033
0.991620884222486,0.5952102209412959,501,20,21.550521752541737,12.384026958516033
0.997571468848621,0.595204270238279,501,20,21.550521752541737,12.384026958516033
1.0035219939827191,0.5951983195947553,501,20,21.550521752541737,12.384026958516033
1.0094724596253886,0.5951923690107243,501,20,21.550521752541737,12.384026958516033
1.0154228657772368,0.5951864184861853,501,20,21.550521752541737,12.384026958516033
1.021373212438871,0.5951804680211376,501,20,21.550521752541737,12.384026958516033
1.027323499610896,0.5951745176155808,501,20,21.550521752541737,12.384026958516033
1.033273727293917,0.5951685672695142,501,20,21.550521752541737,12.384026958516033
1.0392238954885378,0.5951626169829373,501,20,21.550521752541737,12.384026958516033
1.0451740041953614,0.5951566667558492,501,20,21.550521752541737,12.384026958516033
1.051124053414991,0.5951507165882497,501,20,21.550521752541737,12.384026958516033
1.0570740431480286,0.5951447664801378,501,20,21.550521752541737,12.384026958516033
1.0630239733950748,0.5951388164315132,501,20,21.550521752541737,12.384026958516033
1.0689738441567316,0.5951328664423752,501,20,21.550521752541737,12.384026958516033
1.074923655433599,0.5951269165127232,501,20,21.550521752541737,12.384026958516033
1.0808734072262765,0.5951209666425565,501,20,21.550521752541737,12.384026958516033
1.086823099535364,0.5951150168318746,501,20,21.550521752541737,12.384026958516033
1.0927727323614609,0.5951090670806769,501,20,21.550521752541737,12.384026958516033
1.098722305705166,0.5951031173889628,501,20,21.550521752541737,12.384026958516033
1.104671819567078,0.5950971677567317,501,20,21.550521752541737,12.384026958516033
1.1106212739477945,0.595091218183983,501,20,21.550521752541737,12.384026958516033
1.1165706688479136,0.595085268670716,501,20,21.550521752541737,12.384026958516033
1.1225200042680334,0.5950793192169302,501,20,21.550521752541737,12.384026958516033
1.1284692802087513,0.5950733698226252,501,20,21.550521752541737,12.384026958516033
1.1344184966706636,0.5950674204877999,501,20,21.550521752541737,12.384026958516033
1.1403676536543688,0.5950614712124541,501,20,21.550521752541737,12.384026958516033
1.1463167511604628,0.5950555219965872,501,20,21.550521752541737,12.384026958516033
1.1522657891895418,0.5950495728401984,501,20,21.550521752541737,12.384026958516033
1.1582147677422034,0.5950436237432872,501,20,21.550521752541737,12.384026958516033
1.1641636868190435,0.5950376747058531,501,20,21.550521752541737,12.384026958516033
1.170112546420658,0.5950317257278953,501,20,21.550521752541737,12.384026958516033
1.1760613465476435,0.5950257768094134,501,20,21.550521752541737,12.384026958516033
1.1820100872005954,0.5950198279504066,501,20,21.550521752541737,12.384026958516033
1.18795876838011,0.5950138791508746,501,20,21.550521752541737,12.384026958516033
1.1939073900867827,0.5950079304108165,501,20,21.550521752541737,12.384026958516033
1.1998559523212098,0.5950019817302319,501,20,21.550521752541737,12.384026958516033
1.205804455083986,0.5949960331091201,501,20,21.550521752541737,12.384026958516033
1.211752898375707,0.5949900845474805,501,20,21.550521752541737,12.384026958516033
1.2177012821969688,0.5949841360453126,501,20,21.550521752541737,12.384026958516033
1.2236496065483662,0.5949781876026157,501,20,21.550521752541737,12.384026958516033
1.2295978714304947,0.5949722392193894,501,20,21.550521752541737,12.384026958516033
1.2355460768439495,0.5949662908956328,501,20,21.550521752541737,12.384026958516033
1.2414942227893253,0.5949603426313455,501,20,21.550521752541737,12.384026958516033
1.2474423092672178,0.5949543944265269,501,20,21.550521752541737,12.384026958516033
1.253390336278222,0.5949484462811763,501,20,21.550521752541737,12.384026958516033
1.2593383038229324,0.5949424981952932,501,20,21.550521752541737,12.384026958516033
1.2652862119019446,0.594936550168877,501,20,21.550521752541737,12.384026958516033
1.2712340605158527,0.5949306022019272,501,20,21.550521752541737,12.384026958516033
1.2771818496652527,0.594924654294443,501,20,21.550521752541737,12.384026958516033
1.2831295793507385,0.5949187064464239,501,20,21.550521752541737,12.384026958516033
1.2890772495729053,0.5949127586578692,501,20,21.550521752541737,12.384026958516033
1.295024860332348,0.5949068109287785,501,20,21.550521752541737,12.384026958516033
1.300972411629661,0.5949008632591511,501,20,21.550521752541737,12.384026958516033
1.3069199034654395,0.5948949156489864,501,20,21.550521752541737,12.384026958516033
1.3128673358402778,0.594888968098284,501,20,21.550521752541737,12.384026958516033
1.318814708754771,0.5948830206070429,501,20,21.550521752541737,12.384026958516033
1.3247620222095131,0.5948770731752628,501,20,21.550521752541737,12.384026958516033
1.3307092762050996,0.5948711258029431,501,20,21.550521752541737,12.384026958516033
1.3366564707421247,0.594865178490083,501,20,21.550521752541737,12.384026958516033
1.342603605821183,0.5948592312366822,501,20,21.550521752541737,12.384026958516033
1.3485506814428687,0.59485328404274,501,20,21.550521752541737,12.384026958516033
1.354497697607777,0.5948473369082555,501,20,21.550521752541737,12.384026958516033
1.3604446543165019,0.5948413898332287,501,20,21.550521752541737,12.384026958516033
1.3663915515696388,0.5948354428176584,501,20,21.550521752541737,12.384026958516033
1.372338389367781,0.5948294958615444,501,20,21.550521752541737,12.384026958516033
1.378285167711524,0.594823548964886,501,20,21.550521752541737,12.384026958516033
1.3842318866014616,0.5948176021276825,501,20,21.550521752541737,12.384026958516033
1.3901785460381888,0.5948116553499335,501,20,21.550521752541737,12.384026958516033
1.3961251460222999,0.5948057086316382,501,20,21.550521752541737,12.384026958516033
1.4020716865543892,0.5947997619727962,501,20,21.550521752541737,12.384026958516033
1.4080181676350514,0.5947938153734067,501,20,21.550521752541737,12.384026958516033
