Vout,Iout,Irradiance,Temperature,MaxVoltage,MaxPower
0.004405457639830386,0.8810999999999999,801,-25,18.249957865778498,15.747290208899773
0.013216291458409796,0.8810999999999999,801,-25,18.249957865778498,15.747290208899773
0.02202694615494764,0.88109550643236,801,-25,18.249957865778498,15.747290208899773
0.0308373897293505,0.8810866955985415,801,-25,18.249957865778498,15.747290208899773
0.0396476117234327,0.8810778849442943,801,-25,18.249957865778498,15.747290208899773
0.04845762241045687,0.881069074501601,801,-25,18.249957865778498,15.747290208899773
0.057267431273605195,0.881060264280488,801,-25,18.249957865778498,15.747290208899773
0.06607704706657433,0.881051454270682,801,-25,18.249957865778498,15.747290208899773
0.07488647786960545,0.8810426444626999,801,-25,18.249957865778498,15.747290208899773
0.08369573114130109,0.8810338348477879,801,-25,18.249957865778498,15.747290208899773
0.09250481376645482,0.8810250254178659,801,-25,18.249957865778498,15.747290208899773
0.10131373210020121,0.8810162161654751,801,-25,18.249957865778498,15.747290208899773
0.11012249200876845,0.8810074070837309,801,-25,18.249957865778498,15.747290208899773
0.11893109890709573,0.880998598166278,801,-25,18.249957865778498,15.747290208899773
0.12773955779355595,0.8809897894072504,801,-25,18.249957865778498,15.747290208899773
0.13654787328200713,0.880980980801233,801,-25,18.249957865778498,15.747290208899773
0.14535604963137755,0.8809721723432273,801,-25,18.249957865778498,15.747290208899773
0.15416409077297455,0.8809633640286197,801,-25,18.249957865778498,15.747290208899773
0.16297200033569226,0.8809545558531513,801,-25,18.249957865778498,15.747290208899773
0.17177978166927976,0.8809457478128905,801,-25,18.249957865778498,15.747290208899773
0.18058743786581874,0.8809369399042086,801,-25,18.249957865778498,15.747290208899773
0.18939497177954923,0.8809281321237559,801,-25,18.249957865778498,15.747290208899773
0.19820238604516904,0.8809193244684401,801,-25,18.249957865778498,15.747290208899773
0.20700968309472617,0.8809105169354071,801,-25,18.249957865778498,15.747290208899773
0.21581686517321047,0.8809017095220223,801,-25,18.249957865778498,15.747290208899773
0.22462393435294667,0.8808929022258535,801,-25,18.249957865778498,15.747290208899773
0.2334308925468793,0.8808840950446557,801,-25,18.249957865778498,15.747290208899773
0.24223774152083544,0.8808752879763567,801,-25,18.249957865778498,15.747290208899773
0.25104448290484466,0.8808664810190435,801,-25,18.249957865778498,15.747290208899773
0.25985111820358703,0.8808576741709503,801,-25,18.249957865778498,15.747290208899773
0.2686576488060379,0.880848867430447,801,-25,18.249957865778498,15.747290208899773
0.27746407599437056,0.8808400607960288,801,-25,18.249957865778498,15.747290208899773
0.2862704009521733,0.8808312542663072,801,-25,18.249957865778498,15.747290208899773
0.2950766247720354,0.8808224478399994,801,-25,18.249957865778498,15.747290208899773
0.3038827484625478,0.8808136415159222,801,-25,18.249957865778498,15.747290208899773
0.31268877295476705,0.880804835292983,801,-25,18.249957865778498,15.747290208899773
0.3214946991081802,0.8807960291701732,801,-25,18.249957865778498,15.747290208899773
0.3303005277162118,0.8807872231465615,801,-25,18.249957865778498,15.747290208899773
0.3391062595113068,0.8807784172212888,801,-25,18.249957865778498,15.747290208899773
0.3479118951696224,0.8807696113935614,801,-25,18.249957865778498,15.747290208899773
0.356717435315359,0.8807608056626468,801,-25,18.249957865778498,15.747290208899773
0.3655228805247573,0.8807520000278691,801,-25,18.249957865778498,15.747290208899773
0.3743282313297896,0.8807431944886039,801,-25,18.249957865778498,15.747290208899773
0.38313348822156446,0.8807343890442751,801,-25,18.249957865778498,15.747290208899773
0.3919386516534719,0.8807255836943506,801,-25,18.249957865778498,15.747290208899773
0.4007437220440848,0.8807167784383394,801,-25,18.249957865778498,15.747290208899773
0.4095486997798384,0.8807079732757881,801,-25,18.249957865778498,15.747290208899773
0.4183535852175024,0.8806991682062779,801,-25,18.249957865778498,15.747290208899773
0.42715837868646406,0.8806903632294227,801,-25,18.249957865778498,15.747290208899773
0.4359630804908347,0.8806815583448656,801,-25,18.249957865778498,15.747290208899773
0.44476769091139445,0.8806727535522771,801,-25,18.249957865778498,15.747290208899773
0.45357221020738747,0.8806639488513532,801,-25,18.249957865778498,15.747290208899773
0.4623766386181789,0.8806551442418131,801,-25,18.249957865778498,15.747290208899773
0.4711809763647849,0.8806463397233976,801,-25,18.249957865778498,15.747290208899773
0.4799852236512836,0.8806375352958673,801,-25,18.249957865778498,15.747290208899773
0.48878938066611877,0.8806287309590011,801,-25,18.249957865778498,15.747290208899773
0.4975934475833029,0.880619926712595,801,-25,18.249957865778498,15.747290208899773
0.5063974245635269,0.8806111225564607,801,-25,18.249957865778498,15.747290208899773
0.5152013117551864,0.8806023184904239,801,-25,18.249957865778498,15.747290208899773
0.5240051092953261,0.8805935145143241,801,-25,18.249957865778498,15.747290208899773
0.5328088173105147,0.8805847106280128,801,-25,18.249957865778498,15.747290208899773
0.5416124359176493,0.8805759068313531,801,-25,18.249957865778498,15.747290208899773
0.5504159652247015,0.8805671031242183,801,-25,18.249957865778498,15.747290208899773
0.5592194053314024,0.8805582995064916,801,-25,18.249957865778498,15.747290208899773
0.5680227563298774,0.8805494959780649,801,-25,18.249957865778498,15.747290208899773
0.5768260183052316,0.8805406925388385,801,-25,18.249957865778498,15.747290208899773
0.5856291913360895,0.8805318891887204,801,-25,18.249957865778498,15.747290208899773
0.5944322754950936,0.8805230859276254,801,-25,18.249957865778498,15.747290208899773
0.6032352708493652,0.8805142827554748,801,-25,18.249957865778498,15.747290208899773
0.6120381774609288,0.8805054796721962,801,-25,18.249957865778498,15.747290208899773
0.6208409953871044,0.8804966766777222,801,-25,18.249957865778498,15.747290208899773
0.6296437246808687,0.880487873771991,801,-25,18.249957865778498,15.747290208899773
0.6384463653911912,0.8804790709549452,801,-25,18.249957865778498,15.747290208899773
0.6472489175633402,0.8804702682265316,801,-25,18.249957865778498,15.747290208899773
0.6560513812391695,0.8804614655867016,801,-25,18.249957865778498,15.747290208899773
0.6648537564573798,0.8804526630354097,801,-25,18.249957865778498,15.747290208899773
0.6736560432537616,0.8804438605726141,801,-25,18.249957865778498,15.747290208899773
0.6824582416614201,0.8804350581982762,801,-25,18.249957865778498,15.747290208899773
0.6912603517109803,0.88042625591236,801,-25,18.249957865778498,15.747290208899773
0.7000623734307787,0.8804174537148326,801,-25,18.249957865778498,15.747290208899773
0.7088643068470397,0.8804086516056633,801,-25,18.249957865778498,15.747290208899773
0.7176661519840365,0.8803998495848238,801,-25,18.249957865778498,15.747290208899773
0.7264679088642441,0.8803910476522877,801,-25,18.249957865778498,15.747290208899773
0.7352695775084743,0.8803822458080309,801,-25,18.249957865778498,15.747290208899773
0.7440711579360061,0.8803734440520309,801,-25,18.249957865778498,15.747290208899773
0.7528726501647025,0.8803646423842668,801,-25,18.249957865778498,15.747290208899773
0.7616740542111201,0.8803558408047195,801,-25,18.249957865778498,15.747290208899773
0.7704753700906093,0.880347039313371,801,-25,18.249957865778498,15.747290208899773
0.7792765978174065,0.8803382379102047,801,-25,18.249957865778498,15.747290208899773
0.7880777374047213,0.8803294365952054,801,-25,18.249957865778498,15.747290208899773
0.7968787888648137,0.8803206353683587,801,-25,18.249957865778498,15.747290208899773
0.8056797522090688,0.8803118342296515,801,-25,18.249957865778498,15.747290208899773
0.814480627448063,0.8803030331790715,801,-25,18.249957865778498,15.747290208899773
0.8232814145916266,0.8802942322166074,801,-25,18.249957865778498,15.747290208899773
0.8320821136489015,0.8802854313422485,801,-25,18.249957865778498,15.747290208899773
0.8408827246283939,0.880276630555985,801,-25,18.249957865778498,15.747290208899773
0.8496832475380224,0.8802678298578078,801,-25,18.249957865778498,15.747290208899773
0.8584836823851651,0.8802590292477084,801,-25,18.249957865778498,15.747290208899773
0.8672840291766996,0.8802502287256789,801,-25,18.249957865778498,15.747290208899773
0.8760842879190418,0.8802414282917118,801,-25,18.249957865778498,15.747290208899773
0.8848844586181818,0.8802326279458003,801,-25,18.249957865778498,15.747290208899773
0.8936845412797166,0.880223827687938,801,-25,18.249957865778498,15.747290208899773
0.9024845359088801,0.8802150275181189,801,-25,18.249957865778498,15.747290208899773
0.9112844425105713,0.8802062274363374,801,-25,18.249957865778498,15.747290208899773
0.9200842610893797,0.8801974274425882,801,-25,18.249957865778498,15.747290208899773
0.9288839916496094,0.8801886275368666,801,-25,18.249957865778498,15.747290208899773
0.9376836341953014,0.8801798277191678,801,-25,18.249957865778498,15.747290208899773
0.9464831887302527,0.8801710279894875,801,-25,18.249957865778498,15.747290208899773
0.9552826552580365,0.8801622283478218,801,-25,18.249957865778498,15.747290208899773
0.9640820337820185,0.8801534287941668,801,-25,18.249957865778498,15.747290208899773
0.9728813243053731,0.880144629328519,801,-25,18.249957865778498,15.747290208899773
0.9816805268310977,0.880135829950875,801,-25,18.249957865778498,15.747290208899773
0.9904796413620277,0.8801270306612315,801,-25,18.249957865778498,15.747290208899773
0.999278667900847,0.8801182314595858,801,-25,18.249957865778498,15.747290208899773
1.0080776064501014,0.8801094323459348,801,-25,18.249957865778498,15.747290208899773
1.016876457012208,0.8801006333202759,801,-25,18.249957865778498,15.747290208899773
1.0256752195894656,0.8800918343826065,801,-25,18.249957865778498,15.747290208899773
1.0344738941840643,0.8800830355329243,801,-25,18.249957865778498,15.747290208899773
1.0432724807980929,0.880074236771227,801,-25,18.249957865778498,15.747290208899773
1.0520709794335468,0.8800654380975123,801,-25,18.249957865778498,15.747290208899773
1.0608693900923365,0.8800566395117781,801,-25,18.249957865778498,15.747290208899773
1.069667712776293,0.8800478410140226,801,-25,18.249957865778498,15.747290208899773
1.078465947487173,0.8800390426042436,801,-25,18.249957865778498,15.747290208899773
1.0872640942266665,0.8800302442824395,801,-25,18.249957865778498,15.747290208899773
1.096062152996401,0.8800214460486084,801,-25,18.249957865778498,15.747290208899773
1.104860123797947,0.8800126479027488,801,-25,18.249957865778498,15.747290208899773
1.1136580066328208,0.8800038498448589,801,-25,18.249957865778498,15.747290208899773
1.12245580150249,0.8799950518749371,801,-25,18.249957865778498,15.747290208899773
1.1312535084083775,0.879986253992982,801,-25,18.249957865778498,15.747290208899773
1.1400511273518639,0.8799774561989923,801,-25,18.249957865778498,15.747290208899773
1.1488486583342912,0.8799686584929661,801,-25,18.249957865778498,15.747290208899773
1.1576461013569659,0.8799598608749024,801,-25,18.249957865778498,15.747290208899773
1.1664434564211614,0.8799510633447998,801,-25,18.249957865778498,15.747290208899773
1.175240723528121,0.8799422659026568,801,-25,18.249957865778498,15.747290208899773
1.1840379026790608,0.8799334685484724,801,-25,18.249957865778498,15.747290208899773
1.192834993875169,0.8799246712822452,801,-25,18.249957865778498,15.747290208899773
1.201631997117612,0.879915874103974,801,-25,18.249957865778498,15.747290208899773
1.2104289124075327,0.8799070770136576,801,-25,18.249957865778498,15.747290208899773
1.2192257397460546,0.8798982800112949,801,-25,18.249957865778498,15.747290208899773
1.228022479134282,0.8798894830968846,801,-25,18.249957865778498,15.747290208899773
1.2368191305733018,0.8798806862704258,801,-25,18.249957865778498,15.747290208899773
1.2456156940641854,0.8798718895319173,801,-25,18.249957865778498,15.747290208899773
1.2544121696079893,0.879863092881358,801,-25,18.249957865778498,15.747290208899773
1.2632085572057554,0.8798542963187468,801,-25,18.249957865778498,15.747290208899773
1.2720048568585147,0.8798454998440826,801,-25,18.249957865778498,15.747290208899773
1.2808010685672846,0.8798367034573645,801,-25,18.249957865778498,15.747290208899773
1.2895971923330738,0.8798279071585914,801,-25,18.249957865778498,15.747290208899773
1.2983932281568795,0.8798191109477622,801,-25,18.249957865778498,15.747290208899773
1.3071891760396905,0.879810314824876,801,-25,18.249957865778498,15.747290208899773
1.3159850359824878,0.879801518789932,801,-25,18.249957865778498,15.747290208899773
1.3247808079862429,0.8797927228429288,801,-25,18.249957865778498,15.747290208899773
1.3335764920519215,0.8797839269838655,801,-25,18.249957865778498,15.747290208899773
1.3423720881804824,0.8797751312127413,801,-25,18.249957865778498,15.747290208899773
1.351167596372878,0.8797663355295553,801,-25,18.249957865778498,15.747290208899773
1.3599630166300554,0.8797575399343063,801,-25,18.249957865778498,15.747290208899773
1.3687583489529558,0.8797487444269935,801,-25,18.249957865778498,15.747290208899773
1.3775535933425165,0.8797399490076159,801,-25,18.249957865778498,15.747290208899773
1.3863487497996696,0.8797311536761725,801,-25,18.249957865778498,15.747290208899773
1.395143818325344,0.8797223584326624,801,-25,18.249957865778498,15.747290208899773
1.403938798920463,0.8797135632770848,801,-25,18.249957865778498,15.747290208899773
1.412733691585949,0.8797047682094387,801,-25,18.249957865778498,15.747290208899773
1.421528496322719,0.879695973229723,801,-25,18.249957865778498,15.747290208899773
1.4303232131316879,0.8796871783379371,801,-25,18.249957865778498,15.747290208899773
1.4391178420137676,0.8796783835340798,801,-25,18.249957865778498,15.747290208899773
1.4479123829698672,0.8796695888181504,801,-25,18.249957865778498,15.747290208899773
1.456706836000895,0.8796607941901478,801,-25,18.249957865778498,15.747290208899773
1.4655012011077548,0.8796519996500711,801,-25,18.249957865778498,15.747290208899773
1.47429547829135,0.8796432051979196,801,-25,18.249957865778498,15.747290208899773
1.4830896675525818,0.8796344108336922,801,-25,18.249957865778498,15.747290208899773
1.4918837688923494,0.879625616557388,801,-25,18.249957865778498,15.747290208899773
1.5006777823115507,0.8796168223690062,801,-25,18.249957865778498,15.747290208899773
1.5094717078110822,0.8796080282685459,801,-25,18.249957865778498,15.747290208899773
1.518265545391839,0.8795992342560061,801,-25,18.249957865778498,15.747290208899773
1.5270592950547142,0.879590440331386,801,-25,18.249957865778498,15.747290208899773
1.535852956800601,0.8795816464946846,801,-25,18.249957865778498,15.747290208899773
1.544646530630391,0.8795728527459011,801,-25,18.249957865778498,15.747290208899773
1.5534400165449744,0.8795640590850347,801,-25,18.249957865778498,15.747290208899773
1.5622334145452412,0.8795552655120842,801,-25,18.249957865778498,15.747290208899773
1.5710267246320808,0.879546472027049,801,-25,18.249957865778498,15.747290208899773
1.5798199468063803,0.879537678629928,801,-25,18.249957865778498,15.747290208899773
1.5886130810690273,0.8795288853207206,801,-25,18.249957865778498,15.747290208899773
1.597406127420909,0.8795200920994256,801,-25,18.249957865778498,15.747290208899773
1.6061990858629112,0.8795112989660423,801,-25,18.249957865778498,15.747290208899773
1.614991956395919,0.8795025059205698,801,-25,18.249957865778498,15.747290208899773
1.6237847390208178,0.879493712963007,801,-25,18.249957865778498,15.747290208899773
1.6325774337384922,0.8794849200933533,801,-25,18.249957865778498,15.747290208899773
1.6413700405498264,0.8794761273116077,801,-25,18.249957865778498,15.747290208899773
1.6501625594557037,0.8794673346177694,801,-25,18.249957865778498,15.747290208899773
1.6589549904570078,0.8794585420118374,801,-25,18.249957865778498,15.747290208899773
1.6677473335546213,0.8794497494938107,801,-25,18.249957865778498,15.747290208899773
1.6765395887494272,0.8794409570636886,801,-25,18.249957865778498,15.747290208899773
1.6853317560423076,0.8794321647214703,801,-25,18.249957865778498,15.747290208899773
1.6941238354341444,0.8794233724671547,801,-25,18.249957865778498,15.747290208899773
1.7029158269258196,0.8794145803007412,801,-25,18.249957865778498,15.747290208899773
1.7117077305182147,0.8794057882222285,801,-25,18.249957865778498,15.747290208899773
1.720499546212211,0.879396996231616,801,-25,18.249957865778498,15.747290208899773
1.7292912740086899,0.8793882043289029,801,-25,18.249957865778498,15.747290208899773
1.738082913908532,0.879379412514088,801,-25,18.249957865778498,15.747290208899773
1.7468744659126179,0.8793706207871708,801,-25,18.249957865778498,15.747290208899773
1.7556659300218282,0.8793618291481501,801,-25,18.249957865778498,15.747290208899773
1.764457306237044,0.8793530375970252,801,-25,18.249957865778498,15.747290208899773
1.7732485945591447,0.8793442461337951,801,-25,18.249957865778498,15.747290208899773
1.7820397949890114,0.8793354547584591,801,-25,18.249957865778498,15.747290208899773
1.7908309075275237,0.8793266634710162,801,-25,18.249957865778498,15.747290208899773
1.7996219321755613,0.8793178722714654,801,-25,18.249957865778498,15.747290208899773
1.8084128689340044,0.879309081159806,801,-25,18.249957865778498,15.747290208899773
1.8172037178037328,0.879300290136037,801,-25,18.249957865778498,15.747290208899773
1.825994478785626,0.8792914992001578,801,-25,18.249957865778498,15.747290208899773
1.8347851518805633,0.8792827083521672,801,-25,18.249957865778498,15.747290208899773
1.8435757370894248,0.8792739175920643,801,-25,18.249957865778498,15.747290208899773
1.8523662344130893,0.8792651269198485,801,-25,18.249957865778498,15.747290208899773
1.8611566438524367,0.8792563363355187,801,-25,18.249957865778498,15.747290208899773
1.8699469654083456,0.879247545839074,801,-25,18.249957865778498,15.747290208899773
1.878737199081696,0.8792387554305138,801,-25,18.249957865778498,15.747290208899773
1.8875273448733667,0.879229965109837,801,-25,18.249957865778498,15.747290208899773
1.8963174027842364,0.8792211748770427,801,-25,18.249957865778498,15.747290208899773
1.9051073728151853,0.87921238473213,801,-25,18.249957865778498,15.747290208899773
1.9138972549670914,0.8792035946750981,801,-25,18.249957865778498,15.747290208899773
1.922687049240834,0.8791948047059462,801,-25,18.249957865778498,15.747290208899773
1.9314767556372923,0.8791860148246733,801,-25,18.249957865778498,15.747290208899773
1.940266374157345,0.8791772250312786,801,-25,18.249957865778498,15.747290208899773
1.9490559048018707,0.879168435325761,801,-25,18.249957865778498,15.747290208899773
1.9578453475717483,0.87915964570812,801,-25,18.249957865778498,15.747290208899773
1.9666347024678572,0.8791508561783545,801,-25,18.249957865778498,15.747290208899773
1.9754239694910756,0.8791420667364636,801,-25,18.249957865778498,15.747290208899773
1.984213148642283,0.8791332773824464,801,-25,18.249957865778498,15.747290208899773
1.993002239922357,0.8791244881163022,801,-25,18.249957865778498,15.747290208899773
2.0017912433321774,0.8791156989380299,801,-25,18.249957865778498,15.747290208899773
2.0105801588726213,0.8791069098476287,801,-25,18.249957865778498,15.747290208899773
2.019368986544569,0.8790981208450979,801,-25,18.249957865778498,15.747290208899773
2.0281577263488986,0.8790893319304363,801,-25,18.249957865778498,15.747290208899773
2.0369463782864883,0.8790805431036433,801,-25,18.249957865778498,15.747290208899773
2.045734942358217,0.8790717543647177,801,-25,18.249957865778498,15.747290208899773
2.0545234185649637,0.879062965713659,801,-25,18.249957865778498,15.747290208899773
2.063311806907607,0.8790541771504662,801,-25,18.249957865778498,15.747290208899773
