Vout,Iout,Irradiance,Temperature,MaxVoltage,MaxPower
0.006845634176594456,1.3691399999999998,1201,-5,19.725069017026378,26.617832213301384
0.020536775947528303,1.3691399999999998,1201,-5,19.725069017026378,26.617832213301384
0.034227639380984005,1.3691330174518233,1201,-5,19.725069017026378,26.617832213301384
0.04791817475206326,1.3691193263100523,1201,-5,19.725069017026378,26.617832213301384
0.06160836580980665,1.369105635447317,1201,-5,19.725069017026378,26.617832213301384
0.07529822851782195,1.3690919449133152,1201,-5,19.725069017026378,26.617832213301384
0.08898777761201208,1.3690782547236264,1201,-5,19.725069017026378,26.617832213301384
0.10267702669473341,1.3690645648622874,1201,-5,19.725069017026378,26.617832213301384
0.11636598832186092,1.3690508753145623,1201,-5,19.725069017026378,26.617832213301384
0.13005467408330607,1.3690371860668487,1201,-5,19.725069017026378,26.617832213301384
0.14374309467733967,1.3690234971065904,1201,-5,19.725069017026378,26.617832213301384
0.15743125997919588,1.369009808422198,1201,-5,19.725069017026378,26.617832213301384
0.1711191791043982,1.3689961200029728,1201,-5,19.725069017026378,26.617832213301384
0.18480686046721262,1.3689824318390398,1201,-5,19.725069017026378,26.617832213301384
0.19849431183460353,1.3689687439212834,1201,-5,19.725069017026378,26.617832213301384
0.2121815403760382,1.3689550562412893,1201,-5,19.725069017026378,26.617832213301384
0.22586855270945894,1.3689413687912908,1201,-5,19.725069017026378,26.617832213301384
0.23955535494371852,1.368927681564118,1201,-5,19.725069017026378,26.617832213301384
0.25324195271775024,1.3689139945531534,1201,-5,19.725069017026378,26.617832213301384
0.26692835123672415,1.3689003077522879,1201,-5,19.725069017026378,26.617832213301384
0.2806145553054218,1.3688866211558826,1201,-5,19.725069017026378,26.617832213301384
0.2943005693590422,1.3688729347587323,1201,-5,19.725069017026378,26.617832213301384
0.30798639749163864,1.3688592485560322,1201,-5,19.725069017026378,26.617832213301384
0.32167204348236683,1.3688455625433473,1201,-5,19.725069017026378,26.617832213301384
0.3353575108197134,1.3688318767165832,1201,-5,19.725069017026378,26.617832213301384
0.34904280272386046,1.3688181910719612,1201,-5,19.725069017026378,26.617832213301384
0.3627279221673298,1.3688045056059923,1201,-5,19.725069017026378,26.617832213301384
0.3764128718940378,1.3687908203154568,1201,-5,19.725069017026378,26.617832213301384
0.3900976544368846,1.3687771351973819,1201,-5,19.725069017026378,26.617832213301384
0.40378227213399054,1.3687634502490238,1201,-5,19.725069017026378,26.617832213301384
0.41746672714368255,1.3687497654678493,1201,-5,19.725069017026378,26.617832213301384
0.4311510214583276,1.3687360808515208,1201,-5,19.725069017026378,26.617832213301384
0.44483515691710196,1.3687223963978796,1201,-5,19.725069017026378,26.617832213301384
0.4585191352177784,1.3687087121049333,1201,-5,19.725069017026378,26.617832213301384
0.47220295792760497,1.368695027970843,1201,-5,19.725069017026378,26.617832213301384
0.48588662649334896,1.3686813439939107,1201,-5,19.725069017026378,26.617832213301384
0.49957014225056623,1.3686676601725694,1201,-5,19.725069017026378,26.617832213301384
0.513253506432158,1.368653976505372,1201,-5,19.725069017026378,26.617832213301384
0.5269367201762691,1.368640292990983,1201,-5,19.725069017026378,26.617832213301384
0.5406197845335796,1.36862660962817,1201,-5,19.725069017026378,26.617832213301384
0.5543027004740332,1.3686129264157942,1201,-5,19.725069017026378,26.617832213301384
0.56798546889305,1.3685992433528054,1201,-5,19.725069017026378,26.617832213301384
0.5816680906172604,1.368585560438233,1201,-5,19.725069017026378,26.617832213301384
0.5953505664097979,1.3685718776711824,1201,-5,19.725069017026378,26.617832213301384
0.6090328969751839,1.3685581950508265,1201,-5,19.725069017026378,26.617832213301384
0.6227150829638388,1.3685445125764022,1201,-5,19.725069017026378,26.617832213301384
0.6363971249762432,1.368530830247205,1201,-5,19.725069017026378,26.617832213301384
0.6500790235667817,1.3685171480625846,1201,-5,19.725069017026378,26.617832213301384
0.6637607792472882,1.3685034660219406,1201,-5,19.725069017026378,26.617832213301384
0.6774423924903207,1.3684897841247181,1201,-5,19.725069017026378,26.617832213301384
0.6911238637321832,1.368476102370406,1201,-5,19.725069017026378,26.617832213301384
0.7048051933757149,1.368462420758531,1201,-5,19.725069017026378,26.617832213301384
0.7184863817928653,1.3684487392886573,1201,-5,19.725069017026378,26.617832213301384
0.7321674293270705,1.3684350579603821,1201,-5,19.725069017026378,26.617832213301384
0.7458483362954471,1.368421376773333,1201,-5,19.725069017026378,26.617832213301384
0.7595291029908182,1.368407695727167,1201,-5,19.725069017026378,26.617832213301384
0.7732097296835809,1.3683940148215668,1201,-5,19.725069017026378,26.617832213301384
0.7868902166234336,1.3683803340562395,1201,-5,19.725069017026378,26.617832213301384
0.8005705640409668,1.3683666534309147,1201,-5,19.725069017026378,26.617832213301384
0.814250772149135,1.368352972945343,1201,-5,19.725069017026378,26.617832213301384
0.8279308411446121,1.3683392925992934,1201,-5,19.725069017026378,26.617832213301384
0.8416107712090458,1.3683256123925533,1201,-5,19.725069017026378,26.617832213301384
0.855290562510212,1.368311932324926,1201,-5,19.725069017026378,26.617832213301384
0.8689702152030828,1.3682982523962295,1201,-5,19.725069017026378,26.617832213301384
0.8826497294308118,1.3682845726062964,1201,-5,19.725069017026378,26.617832213301384
0.8963291053256438,1.3682708929549714,1201,-5,19.725069017026378,26.617832213301384
0.910008343009753,1.3682572134421118,1201,-5,19.725069017026378,26.617832213301384
0.923687442596019,1.368243534067585,1201,-5,19.725069017026378,26.617832213301384
0.9373664041887412,1.3682298548312688,1201,-5,19.725069017026378,26.617832213301384
0.9510452278842991,1.3682161757330504,1201,-5,19.725069017026378,26.617832213301384
0.9647239137717621,1.3682024967728257,1201,-5,19.725069017026378,26.617832213301384
0.9784024619334518,1.368188817950498,1201,-5,19.725069017026378,26.617832213301384
0.9920808724454605,1.3681751392659784,1201,-5,19.725069017026378,26.617832213301384
1.0057591453781312,1.3681614607191845,1201,-5,19.725069017026378,26.617832213301384
1.0194372807965002,1.3681477823100403,1201,-5,19.725069017026378,26.617832213301384
1.0331152787607043,1.3681341040384756,1201,-5,19.725069017026378,26.617832213301384
1.046793139326359,1.368120425904425,1201,-5,19.725069017026378,26.617832213301384
1.0604708625449057,1.3681067479078286,1201,-5,19.725069017026378,26.617832213301384
1.0741484484639328,1.368093070048631,1201,-5,19.725069017026378,26.617832213301384
1.0878258971274726,1.36807939232678,1201,-5,19.725069017026378,26.617832213301384
1.1015032085762746,1.3680657147422288,1201,-5,19.725069017026378,26.617832213301384
1.1151803828480575,1.3680520372949332,1201,-5,19.725069017026378,26.617832213301384
1.1288574199777446,1.368038359984852,1201,-5,19.725069017026378,26.617832213301384
1.1425343199976759,1.368024682811948,1201,-5,19.725069017026378,26.617832213301384
1.1562110829378085,1.368011005776186,1201,-5,19.725069017026378,26.617832213301384
1.1698877088259,1.3679973288775338,1201,-5,19.725069017026378,26.617832213301384
1.1835641976876776,1.3679836521159614,1201,-5,19.725069017026378,26.617832213301384
1.1972405495469942,1.367969975491441,1201,-5,19.725069017026378,26.617832213301384
1.210916764425972,1.3679562990039469,1201,-5,19.725069017026378,26.617832213301384
1.2245928423451367,1.3679426226534552,1201,-5,19.725069017026378,26.617832213301384
1.2382687833235395,1.367928946439944,1201,-5,19.725069017026378,26.617832213301384
1.251944587378872,1.3679152703633923,1201,-5,19.725069017026378,26.617832213301384
1.2656202545275688,1.3679015944237816,1201,-5,19.725069017026378,26.617832213301384
1.2792957847849047,1.367887918621094,1201,-5,19.725069017026378,26.617832213301384
1.2929711781650857,1.3678742429553128,1201,-5,19.725069017026378,26.617832213301384
1.306646434681329,1.367860567426423,1201,-5,19.725069017026378,26.617832213301384
1.3203215543459403,1.3678468920344105,1201,-5,19.725069017026378,26.617832213301384
1.3339965371703835,1.3678332167792617,1201,-5,19.725069017026378,26.617832213301384
1.3476713831653457,1.3678195416609646,1201,-5,19.725069017026378,26.617832213301384
1.361346092340797,1.3678058666795077,1201,-5,19.725069017026378,26.617832213301384
1.3750206647060457,1.3677921918348803,1201,-5,19.725069017026378,26.617832213301384
1.388695100269789,1.3677785171270724,1201,-5,19.725069017026378,26.617832213301384
1.4023693990401587,1.3677648425560747,1201,-5,19.725069017026378,26.617832213301384
1.4160435610247684,1.3677511681218784,1201,-5,19.725069017026378,26.617832213301384
1.4297175862307494,1.3677374938244753,1201,-5,19.725069017026378,26.617832213301384
1.4433914746647896,1.3677238196638581,1201,-5,19.725069017026378,26.617832213301384
1.4570652263331683,1.3677101456400196,1201,-5,19.725069017026378,26.617832213301384
1.4707388412417866,1.367696471752953,1201,-5,19.725069017026378,26.617832213301384
1.4844123193961956,1.367682798002652,1201,-5,19.725069017026378,26.617832213301384
1.498085660801626,1.3676691243891108,1201,-5,19.725069017026378,26.617832213301384
1.5117588654630099,1.3676554509123238,1201,-5,19.725069017026378,26.617832213301384
1.5254319333850057,1.3676417775722858,1201,-5,19.725069017026378,26.617832213301384
1.5391048645720193,1.3676281043689917,1201,-5,19.725069017026378,26.617832213301384
1.5527776590282205,1.367614431302437,1201,-5,19.725069017026378,26.617832213301384
1.5664503167575656,1.3676007583726173,1201,-5,19.725069017026378,26.617832213301384
1.5801228377638106,1.3675870855795285,1201,-5,19.725069017026378,26.617832213301384
1.5937952220505278,1.3675734129231665,1201,-5,19.725069017026378,26.617832213301384
1.60746746962112,1.3675597404035273,1201,-5,19.725069017026378,26.617832213301384
1.6211395804788333,1.367546068020608,1201,-5,19.725069017026378,26.617832213301384
1.634811554626769,1.3675323957744046,1201,-5,19.725069017026378,26.617832213301384
1.648483392067894,1.3675187236649142,1201,-5,19.725069017026378,26.617832213301384
1.6621550928050541,1.3675050516921334,1201,-5,19.725069017026378,26.617832213301384
1.67582665684098,1.3674913798560595,1201,-5,19.725069017026378,26.617832213301384
1.6894980841782976,1.3674777081566896,1201,-5,19.725069017026378,26.617832213301384
1.7031693748195353,1.367464036594021,1201,-5,19.725069017026378,26.617832213301384
1.7168405287671331,1.3674503651680507,1201,-5,19.725069017026378,26.617832213301384
1.7305115460234477,1.3674366938787765,1201,-5,19.725069017026378,26.617832213301384
1.7441824265907606,1.367423022726196,1201,-5,19.725069017026378,26.617832213301384
1.7578531704712814,1.367409351710307,1201,-5,19.725069017026378,26.617832213301384
1.7715237776671553,1.3673956808311067,1201,-5,19.725069017026378,26.617832213301384
1.7851942481804686,1.3673820100885934,1201,-5,19.725069017026378,26.617832213301384
1.7988645820132514,1.3673683394827645,1201,-5,19.725069017026378,26.617832213301384
1.8125347791674822,1.3673546690136182,1201,-5,19.725069017026378,26.617832213301384
1.8262048396450927,1.3673409986811527,1201,-5,19.725069017026378,26.617832213301384
1.8398747634479724,1.3673273284853653,1201,-5,19.725069017026378,26.617832213301384
1.8535445505779684,1.3673136584262549,1201,-5,19.725069017026378,26.617832213301384
1.8672142010368926,1.367299988503819,1201,-5,19.725069017026378,26.617832213301384
1.8808837148265218,1.367286318718056,1201,-5,19.725069017026378,26.617832213301384
1.8945530919486009,1.367272649068964,1201,-5,19.725069017026378,26.617832213301384
1.908222332404846,1.3672589795565413,1201,-5,19.725069017026378,26.617832213301384
1.9218914361969466,1.3672453101807862,1201,-5,19.725069017026378,26.617832213301384
1.935560403326567,1.367231640941697,1201,-5,19.725069017026378,26.617832213301384
1.949229233795348,1.3672179718392719,1201,-5,19.725069017026378,26.617832213301384
1.9628979276049108,1.3672043028735092,1201,-5,19.725069017026378,26.617832213301384
1.9765664847568554,1.3671906340444073,1201,-5,19.725069017026378,26.617832213301384
1.9902349052527644,1.3671769653519645,1201,-5,19.725069017026378,26.617832213301384
2.0039031890942036,1.3671632967961795,1201,-5,19.725069017026378,26.617832213301384
2.0175713362827246,1.3671496283770506,1201,-5,19.725069017026378,26.617832213301384
2.0312393468198624,1.3671359600945758,1201,-5,19.725069017026378,26.617832213301384
2.0449072207071413,1.3671222919487542,1201,-5,19.725069017026378,26.617832213301384
2.058574957946072,1.367108623939584,1201,-5,19.725069017026378,26.617832213301384
2.0722425585381536,1.3670949560670635,1201,-5,19.725069017026378,26.617832213301384
2.0859100224848772,1.3670812883311914,1201,-5,19.725069017026378,26.617832213301384
2.099577349787722,1.367067620731966,1201,-5,19.725069017026378,26.617832213301384
2.1132445404481603,1.3670539532693862,1201,-5,19.725069017026378,26.617832213301384
2.1269115944676535,1.36704028594345,1201,-5,19.725069017026378,26.617832213301384
2.14057851184766,1.3670266187541562,1201,-5,19.725069017026378,26.617832213301384
2.1542452925896276,1.3670129517015035,1201,-5,19.725069017026378,26.617832213301384
2.1679119366949977,1.3669992847854904,1201,-5,19.725069017026378,26.617832213301384
2.181578444165207,1.366985618006115,1201,-5,19.725069017026378,26.617832213301384
2.195244815001688,1.3669719513633762,1201,-5,19.725069017026378,26.617832213301384
2.208911049205866,1.3669582848572728,1201,-5,19.725069017026378,26.617832213301384
2.2225771467791624,1.366944618487803,1201,-5,19.725069017026378,26.617832213301384
2.236243107722995,1.3669309522549655,1201,-5,19.725069017026378,26.617832213301384
2.249908932038776,1.3669172861587588,1201,-5,19.725069017026378,26.617832213301384
2.2635746197279154,1.3669036201991815,1201,-5,19.725069017026378,26.617832213301384
2.27724017079182,1.3668899543762325,1201,-5,19.725069017026378,26.617832213301384
2.2909055852318922,1.36687628868991,1201,-5,19.725069017026378,26.617832213301384
2.3045708630495327,1.3668626231402126,1201,-5,19.725069017026378,26.617832213301384
2.3182360042461387,1.366848957727139,1201,-5,19.725069017026378,26.617832213301384
2.3319010088231056,1.366835292450688,1201,-5,19.725069017026378,26.617832213301384
2.3455658767818255,1.366821627310858,1201,-5,19.725069017026378,26.617832213301384
2.3592306081236902,1.3668079623076475,1201,-5,19.725069017026378,26.617832213301384
2.372895202850088,1.3667942974410552,1201,-5,19.725069017026378,26.617832213301384
2.3865596609624067,1.3667806327110799,1201,-5,19.725069017026378,26.617832213301384
2.400223982462031,1.36676696811772,1201,-5,19.725069017026378,26.617832213301384
2.4138881673503443,1.366753303660974,1201,-5,19.725069017026378,26.617832213301384
2.42755221562873,1.3667396393408409,1201,-5,19.725069017026378,26.617832213301384
2.441216127298569,1.366725975157319,1201,-5,19.725069017026378,26.617832213301384
2.454879902361241,1.3667123111104071,1201,-5,19.725069017026378,26.617832213301384
2.4685435408181253,1.3666986472001037,1201,-5,19.725069017026378,26.617832213301384
2.4822070426705998,1.3666849834264074,1201,-5,19.725069017026378,26.617832213301384
2.495870407920041,1.366671319789317,1201,-5,19.725069017026378,26.617832213301384
2.5095336365678254,1.3666576562888308,1201,-5,19.725069017026378,26.617832213301384
2.523196728615327,1.3666439929249479,1201,-5,19.725069017026378,26.617832213301384
2.5368596840639226,1.3666303296976663,1201,-5,19.725069017026378,26.617832213301384
2.5505225029149834,1.3666166666069852,1201,-5,19.725069017026378,26.617832213301384
2.5641851851698845,1.3666030036529029,1201,-5,19.725069017026378,26.617832213301384
2.5778477308299976,1.3665893408354182,1201,-5,19.725069017026378,26.617832213301384
2.591510139896694,1.3665756781545295,1201,-5,19.725069017026378,26.617832213301384
2.605172412371347,1.3665620156102358,1201,-5,19.725069017026378,26.617832213301384
2.618834548255326,1.3665483532025353,1201,-5,19.725069017026378,26.617832213301384
2.6324965475500033,1.3665346909314269,1201,-5,19.725069017026378,26.617832213301384
2.646158410256747,1.3665210287969092,1201,-5,19.725069017026378,26.617832213301384
2.6598201363769287,1.3665073667989807,1201,-5,19.725069017026378,26.617832213301384
2.6734817259119166,1.3664937049376402,1201,-5,19.725069017026378,26.617832213301384
2.687143178863081,1.3664800432128863,1201,-5,19.725069017026378,26.617832213301384
2.70080449523179,1.3664663816247173,1201,-5,19.725069017026378,26.617832213301384
2.714465675019413,1.3664527201731325,1201,-5,19.725069017026378,26.617832213301384
2.728126718227317,1.3664390588581299,1201,-5,19.725069017026378,26.617832213301384
2.74178762485687,1.3664253976797083,1201,-5,19.725069017026378,26.617832213301384
2.755448394909442,1.3664117366378665,1201,-5,19.725069017026378,26.617832213301384
2.7691090283864,1.366398075732603,1201,-5,19.725069017026378,26.617832213301384
2.7827695252891114,1.3663844149639166,1201,-5,19.725069017026378,26.617832213301384
2.796429885618943,1.3663707543318058,1201,-5,19.725069017026378,26.617832213301384
2.810090109377262,1.3663570938362692,1201,-5,19.725069017026378,26.617832213301384
2.8237501965654364,1.3663434334773055,1201,-5,19.725069017026378,26.617832213301384
2.837410147184831,1.3663297732549131,1201,-5,19.725069017026378,26.617832213301384
2.8510699612368144,1.366316113169091,1201,-5,19.725069017026378,26.617832213301384
2.8647296387227534,1.3663024532198376,1201,-5,19.725069017026378,26.617832213301384
2.8783891796440133,1.3662887934071517,1201,-5,19.725069017026378,26.617832213301384
2.8920485840019614,1.3662751337310317,1201,-5,19.725069017026378,26.617832213301384
2.9057078517979638,1.3662614741914765,1201,-5,19.725069017026378,26.617832213301384
2.919366983033386,1.3662478147884844,1201,-5,19.725069017026378,26.617832213301384
2.9330259777095953,1.3662341555220545,1201,-5,19.725069017026378,26.617832213301384
2.9466848358279565,1.366220496392185,1201,-5,19.725069017026378,26.617832213301384
2.9603435573898373,1.3662068373988747,1201,-5,19.725069017026378,26.617832213301384
2.9740021423966017,1.3661931785421222,1201,-5,19.725069017026378,26.617832213301384
2.9876605908496168,1.3661795198219262,1201,-5,19.725069017026378,26.617832213301384
3.0013189027502483,1.3661658612382854,1201,-5,19.725069017026378,26.617832213301384
3.0149770780998626,1.3661522027911983,1201,-5,19.725069017026378,26.617832213301384
3.0286351168998245,1.3661385444806635,1201,-5,19.725069017026378,26.617832213301384
3.0422930191514985,1.3661248863066797,1201,-5,19.725069017026378,26.617832213301384
3.0559507848562517,1.3661112282692456,1201,-5,19.725069017026378,26.617832213301384
3.06960841401545,1.3660975703683598,1201,-5,19.725069017026378,26.617832213301384
3.083265906630458,1.3660839126040207,1201,-5,19.725069017026378,26.617832213301384
3.0969232627026413,1.3660702549762274,1201,-5,19.725069017026378,26.617832213301384
3.110580482233365,1.366056597484978,1201,-5,19.725069017026378,26.617832213301384
3.124237565223995,1.3660429401302716,1201,-5,19.725069017026378,26.617832213301384
3.137894511675896,1.3660292829121068,1201,-5,19.725069017026378,26.617832213301384
3.1515513215904347,1.3660156258304819,1201,-5,19.725069017026378,26.617832213301384
3.1652079949689753,1.3660019688853957,1201,-5,19.725069017026378,26.617832213301384
3.178864531812883,1.3659883120768468,1201,-5,19.725069017026378,26.617832213301384
3.1925209321235237,1.365974655404834,1201,-5,19.725069017026378,26.617832213301384
3.2061771959022622,1.3659609988693557,1201,-5,19.725069017026378,26.617832213301384
