Vout,Iout,Irradiance,Temperature,MaxVoltage,MaxPower
0.003106170132979491,0.62124,501,45,22.838971891308194,13.648524000255973
0.00931845296291284,0.62124,501,45,22.838971891308194,13.648524000255973
0.01553060949869444,0.6212368317058671,501,45,22.838971891308194,13.648524000255973
0.02174261717791591,0.6212306194230371,501,45,22.838971891308194,13.648524000255973
0.02795446862679075,0.6212244072668182,501,45,22.838971891308194,13.648524000255973
0.03416617108872118,0.6212181952597602,501,45,22.838971891308194,13.648524000255973
0.04037773125004484,0.6212119834089325,501,45,22.838971891308194,13.648524000255973
0.04658915528275866,0.6212057717070918,501,45,22.838971891308194,13.648524000255973
0.05280044888402419,0.6211995601475516,501,45,22.838971891308194,13.648524000255973
0.0590116173127022,0.6211933487241401,501,45,22.838971891308194,13.648524000255973
0.06522266542307617,0.6211871374311599,501,45,22.838971891308194,13.648524000255973
0.07143359769598118,0.6211809262633524,501,45,22.838971891308194,13.648524000255973
0.07764441826753754,0.6211747152158632,501,45,22.838971891308194,13.648524000255973
0.08385513095567375,0.6211685042842114,501,45,22.838971891308194,13.648524000255973
0.09006573928460866,0.621162293464261,501,45,22.838971891308194,13.648524000255973
0.0962762465074499,0.6211560827521939,501,45,22.838971891308194,13.648524000255973
0.10248665562705367,0.621149872144486,501,45,22.838971891308194,13.648524000255973
0.10869696941527943,0.6211436616378843,501,45,22.838971891308194,13.648524000255973
0.1149071904307632,0.6211374512293858,501,45,22.838971891308194,13.648524000255973
0.12111732103532326,0.6211312409162185,501,45,22.838971891308194,13.648524000255973
0.12732736340910364,0.6211250306958241,501,45,22.838971891308194,13.648524000255973
0.13353731956455242,0.6211188205658406,501,45,22.838971891308194,13.648524000255973
0.1397471913593245,0.6211126105240878,501,45,22.838971891308194,13.648524000255973
0.14595698050819167,0.6211064005685534,501,45,22.838971891308194,13.648524000255973
0.15216668859403618,0.6211001906973797,501,45,22.838971891308194,13.648524000255973
0.15837631707799862,0.6210939809088518,501,45,22.838971891308194,13.648524000255973
0.16458586730884492,0.6210877712013869,501,45,22.838971891308194,13.648524000255973
0.17079534053161252,0.6210815615735239,501,45,22.838971891308194,13.648524000255973
0.17700473789559146,0.6210753520239141,501,45,22.838971891308194,13.648524000255973
0.18321406046169142,0.6210691425513123,501,45,22.838971891308194,13.648524000255973
0.18942330920924172,0.6210629331545692,501,45,22.838971891308194,13.648524000255973
0.19563248504226838,0.6210567238326241,501,45,22.838971891308194,13.648524000255973
0.20184158879528777,0.6210505145844974,501,45,22.838971891308194,13.648524000255973
0.20805062123865525,0.6210443054092853,501,45,22.838971891308194,13.648524000255973
0.21425958308350143,0.6210380963061533,501,45,22.838971891308194,13.648524000255973
0.22046847498628921,0.6210318872743308,501,45,22.838971891308194,13.648524000255973
0.22667729755301988,0.6210256783131068,501,45,22.838971891308194,13.648524000255973
0.23288605134311585,0.621019469421825,501,45,22.838971891308194,13.648524000255973
0.23909473687300442,0.6210132605998792,501,45,22.838971891308194,13.648524000255973
0.24530335461942593,0.6210070518467099,501,45,22.838971891308194,13.648524000255973
0.25151190502248727,0.6210008431618009,501,45,22.838971891308194,13.648524000255973
0.2577203884884805,0.6209946345446754,501,45,22.838971891308194,13.648524000255973
0.26392880539248487,0.6209884259948932,501,45,22.838971891308194,13.648524000255973
0.270137156080768,0.6209822175120481,501,45,22.838971891308194,13.648524000255973
0.2763454408730029,0.6209760090957649,501,45,22.838971891308194,13.648524000255973
0.2825536600643142,0.6209698007456975,501,45,22.838971891308194,13.648524000255973
0.28876181392716693,0.6209635924615261,501,45,22.838971891308194,13.648524000255973
0.29496990271310997,0.6209573842429557,501,45,22.838971891308194,13.648524000255973
0.30117792665438536,0.6209511760897136,501,45,22.838971891308194,13.648524000255973
0.30738588596541383,0.6209449680015485,501,45,22.838971891308194,13.648524000255973
0.313593780844166,0.620938759978228,501,45,22.838971891308194,13.648524000255973
0.3198016114734279,0.6209325520195378,501,45,22.838971891308194,13.648524000255973
0.3260093780219697,0.6209263441252798,501,45,22.838971891308194,13.648524000255973
0.3322170806456238,0.6209201362952714,501,45,22.838971891308194,13.648524000255973
0.33842471948828007,0.6209139285293437,501,45,22.838971891308194,13.648524000255973
0.34463229468280526,0.6209077208273408,501,45,22.838971891308194,13.648524000255973
0.35083980635189094,0.6209015131891189,501,45,22.838971891308194,13.648524000255973
0.35704725460883613,0.6208953056145451,501,45,22.838971891308194,13.648524000255973
0.36325463955827036,0.6208890981034968,501,45,22.838971891308194,13.648524000255973
0.36946196129682024,0.6208828906558607,501,45,22.838971891308194,13.648524000255973
0.3756692199137261,0.6208766832715319,501,45,22.838971891308194,13.648524000255973
0.38187641549140905,0.6208704759504141,501,45,22.838971891308194,13.648524000255973
0.38808354810599655,0.620864268692418,501,45,22.838971891308194,13.648524000255973
0.3942906178278066,0.620858061497461,501,45,22.838971891308194,13.648524000255973
0.4004976247217944,0.6208518543654672,501,45,22.838971891308194,13.648524000255973
0.40670456884796513,0.620845647296366,501,45,22.838971891308194,13.648524000255973
0.4129114502617549,0.6208394402900927,501,45,22.838971891308194,13.648524000255973
0.41911826901438193,0.6208332333465874,501,45,22.838971891308194,13.648524000255973
0.4253250251531717,0.6208270264657942,501,45,22.838971891308194,13.648524000255973
0.43153171872185603,0.6208208196476623,501,45,22.838971891308194,13.648524000255973
0.4377383497608496,0.6208146128921442,501,45,22.838971891308194,13.648524000255973
0.44394491830750515,0.6208084061991962,501,45,22.838971891308194,13.648524000255973
0.4501514243963494,0.6208021995687779,501,45,22.838971891308194,13.648524000255973
0.4563578680593001,0.6207959930008519,501,45,22.838971891308194,13.648524000255973
0.46256424932586715,0.6207897864953837,501,45,22.838971891308194,13.648524000255973
0.46877056822333724,0.6207835800523415,501,45,22.838971891308194,13.648524000255973
0.47497682477694564,0.6207773736716955,501,45,22.838971891308194,13.648524000255973
0.4811830190100335,0.6207711673534186,501,45,22.838971891308194,13.648524000255973
0.4873891509441939,0.6207649610974857,501,45,22.838971891308194,13.648524000255973
0.49359522059940625,0.6207587549038732,501,45,22.838971891308194,13.648524000255973
0.4998012279941603,0.6207525487725597,501,45,22.838971891308194,13.648524000255973
0.5060071731455712,0.6207463427035251,501,45,22.838971891308194,13.648524000255973
0.5122130560694844,0.620740136696751,501,45,22.838971891308194,13.648524000255973
0.5184188767805746,0.6207339307522202,501,45,22.838971891308194,13.648524000255973
0.5246246352924346,0.6207277248699169,501,45,22.838971891308194,13.648524000255973
0.5308303316176591,0.6207215190498263,501,45,22.838971891308194,13.648524000255973
0.537035965767922,0.6207153132919351,501,45,22.838971891308194,13.648524000255973
0.5432415377540457,0.6207091075962304,501,45,22.838971891308194,13.648524000255973
0.549447047586069,0.6207029019627007,501,45,22.838971891308194,13.648524000255973
0.5556524952733045,0.6206966963913352,501,45,22.838971891308194,13.648524000255973
0.5618578808243974,0.6206904908821238,501,45,22.838971891308194,13.648524000255973
0.5680632042473744,0.620684285435057,501,45,22.838971891308194,13.648524000255973
0.5742684655496928,0.6206780800501265,501,45,22.838971891308194,13.648524000255973
0.5804736647382838,0.6206718747273241,501,45,22.838971891308194,13.648524000255973
0.5866788018195929,0.6206656694666424,501,45,22.838971891308194,13.648524000255973
0.5928838767996176,0.6206594642680743,501,45,22.838971891308194,13.648524000255973
0.5990888896839416,0.6206532591316135,501,45,22.838971891308194,13.648524000255973
0.6052938404777661,0.620647054057254,501,45,22.838971891308194,13.648524000255973
0.6114987291859411,0.6206408490449902,501,45,22.838971891308194,13.648524000255973
0.6177035558129899,0.6206346440948168,501,45,22.838971891308194,13.648524000255973
0.6239083203631358,0.6206284392067292,501,45,22.838971891308194,13.648524000255973
0.6301130228403256,0.6206222343807226,501,45,22.838971891308194,13.648524000255973
0.6363176632482493,0.620616029616793,501,45,22.838971891308194,13.648524000255973
0.642522241590361,0.6206098249149362,501,45,22.838971891308194,13.648524000255973
0.6487267578698969,0.6206036202751488,501,45,22.838971891308194,13.648524000255973
0.6549312120898912,0.6205974156974272,501,45,22.838971891308194,13.648524000255973
0.6611356042531934,0.6205912111817681,501,45,22.838971891308194,13.648524000255973
0.6673399343624808,0.6205850067281685,501,45,22.838971891308194,13.648524000255973
0.6735442024202728,0.6205788023366257,501,45,22.838971891308194,13.648524000255973
0.6797484084289421,0.6205725980071368,501,45,22.838971891308194,13.648524000255973
0.6859525523907269,0.6205663937396995,501,45,22.838971891308194,13.648524000255973
0.6921566343077412,0.6205601895343112,501,45,22.838971891308194,13.648524000255973
0.6983606541819833,0.62055398539097,501,45,22.838971891308194,13.648524000255973
0.7045646120153464,0.6205477813096734,501,45,22.838971891308194,13.648524000255973
0.7107685078096246,0.6205415772904195,501,45,22.838971891308194,13.648524000255973
0.7169723415665231,0.6205353733332065,501,45,22.838971891308194,13.648524000255973
0.7231761132876622,0.6205291694380327,501,45,22.838971891308194,13.648524000255973
0.7293798229745858,0.6205229656048962,501,45,22.838971891308194,13.648524000255973
0.7355834706287669,0.6205167618337954,501,45,22.838971891308194,13.648524000255973
0.741787056251613,0.6205105581247289,501,45,22.838971891308194,13.648524000255973
0.7479905798444705,0.620504354477695,501,45,22.838971891308194,13.648524000255973
0.75419404140863,0.6204981508926926,501,45,22.838971891308194,13.648524000255973
0.7603974409453309,0.6204919473697201,501,45,22.838971891308194,13.648524000255973
0.7666007784557645,0.6204857439087763,501,45,22.838971891308194,13.648524000255973
0.7728040539410783,0.62047954050986,501,45,22.838971891308194,13.648524000255973
0.7790072674023794,0.6204733371729698,501,45,22.838971891308194,13.648524000255973
0.7852104188407371,0.6204671338981049,501,45,22.838971891308194,13.648524000255973
0.7914135082571864,0.6204609306852639,501,45,22.838971891308194,13.648524000255973
0.7976165356527302,0.6204547275344459,501,45,22.838971891308194,13.648524000255973
0.8038195010283418,0.6204485244456498,501,45,22.838971891308194,13.648524000255973
0.8100224043849679,0.6204423214188746,501,45,22.838971891308194,13.648524000255973
0.8162252457235292,0.6204361184541193,501,45,22.838971891308194,13.648524000255973
0.8224280250449241,0.6204299155513829,501,45,22.838971891308194,13.648524000255973
0.8286307423500286,0.6204237127106647,501,45,22.838971891308194,13.648524000255973
0.8348333976397001,0.6204175099319635,501,45,22.838971891308194,13.648524000255973
0.8410359909147771,0.6204113072152787,501,45,22.838971891308194,13.648524000255973
0.8472385221760814,0.6204051045606093,501,45,22.838971891308194,13.648524000255973
0.8534409914244192,0.6203989019679546,501,45,22.838971891308194,13.648524000255973
0.8596433986605824,0.6203926994373135,501,45,22.838971891308194,13.648524000255973
0.8658457438853496,0.6203864969686854,501,45,22.838971891308194,13.648524000255973
0.8720480270994875,0.6203802945620694,501,45,22.838971891308194,13.648524000255973
0.8782502483037511,0.620374092217465,501,45,22.838971891308194,13.648524000255973
0.884452407498885,0.620367889934871,501,45,22.838971891308194,13.648524000255973
0.8906545046856245,0.620361687714287,501,45,22.838971891308194,13.648524000255973
0.8968565398646962,0.6203554855557122,501,45,22.838971891308194,13.648524000255973
0.9030585130368177,0.6203492834591456,501,45,22.838971891308194,13.648524000255973
0.9092604242026999,0.6203430814245867,501,45,22.838971891308194,13.648524000255973
0.9154622733630461,0.6203368794520349,501,45,22.838971891308194,13.648524000255973
0.9216640605185535,0.6203306775414892,501,45,22.838971891308194,13.648524000255973
0.9278657856699134,0.620324475692949,501,45,22.838971891308194,13.648524000255973
0.9340674488178113,0.6203182739064137,501,45,22.838971891308194,13.648524000255973
0.9402690499629279,0.6203120721818826,501,45,22.838971891308194,13.648524000255973
0.9464705891059392,0.6203058705193548,501,45,22.838971891308194,13.648524000255973
0.9526720662475167,0.6202996689188298,501,45,22.838971891308194,13.648524000255973
0.9588734813883281,0.620293467380307,501,45,22.838971891308194,13.648524000255973
0.9650748345290373,0.6202872659037856,501,45,22.838971891308194,13.648524000255973
0.9712761256703047,0.6202810644892649,501,45,22.838971891308194,13.648524000255973
0.977477354812788,0.6202748631367444,501,45,22.838971891308194,13.648524000255973
0.9836785219571414,0.6202686618462233,501,45,22.838971891308194,13.648524000255973
0.989879627104017,0.620262460617701,501,45,22.838971891308194,13.648524000255973
0.996080670254064,0.6202562594511767,501,45,22.838971891308194,13.648524000255973
1.0022816514079296,0.6202500583466499,501,45,22.838971891308194,13.648524000255973
1.0084825705662586,0.62024385730412,501,45,22.838971891308194,13.648524000255973
1.014683427729694,0.6202376563235863,501,45,22.838971891308194,13.648524000255973
1.0208842228988777,0.620231455405048,501,45,22.838971891308194,13.648524000255973
1.0270849560744484,0.6202252545485046,501,45,22.838971891308194,13.648524000255973
1.033285627257045,0.6202190537539556,501,45,22.838971891308194,13.648524000255973
1.0394862364473034,0.6202128530214001,501,45,22.838971891308194,13.648524000255973
1.0456867836458594,0.6202066523508376,501,45,22.838971891308194,13.648524000255973
1.0518872688533467,0.6202004517422675,501,45,22.838971891308194,13.648524000255973
1.0580876920703988,0.6201942511956889,501,45,22.838971891308194,13.648524000255973
1.0642880532976478,0.6201880507111015,501,45,22.838971891308194,13.648524000255973
1.0704883525357243,0.6201818502885045,501,45,22.838971891308194,13.648524000255973
1.076688589785259,0.6201756499278973,501,45,22.838971891308194,13.648524000255973
1.0828887650468804,0.6201694496292792,501,45,22.838971891308194,13.648524000255973
1.0890888783212178,0.6201632493926498,501,45,22.838971891308194,13.648524000255973
1.0952889296088992,0.6201570492180082,501,45,22.838971891308194,13.648524000255973
1.1014889189105512,0.6201508491053539,501,45,22.838971891308194,13.648524000255973
1.1076888462268017,0.6201446490546862,501,45,22.838971891308194,13.648524000255973
1.1138887115582756,0.6201384490660046,501,45,22.838971891308194,13.648524000255973
1.1200885149055995,0.6201322491393083,501,45,22.838971891308194,13.648524000255973
1.126288256269398,0.6201260492745968,501,45,22.838971891308194,13.648524000255973
1.1324879356502962,0.6201198494718695,501,45,22.838971891308194,13.648524000255973
1.1386875530489182,0.6201136497311257,501,45,22.838971891308194,13.648524000255973
1.1448871084658883,0.6201074500523648,501,45,22.838971891308194,13.648524000255973
1.1510866019018298,0.6201012504355862,501,45,22.838971891308194,13.648524000255973
1.1572860333573662,0.6200950508807891,501,45,22.838971891308194,13.648524000255973
1.1634854028331205,0.6200888513879731,501,45,22.838971891308194,13.648524000255973
1.1696847103297159,0.6200826519571375,501,45,22.838971891308194,13.648524000255973
1.1758839558477747,0.6200764525882817,501,45,22.838971891308194,13.648524000255973
1.1820831393879188,0.6200702532814051,501,45,22.838971891308194,13.648524000255973
1.1882822609507708,0.620064054036507,501,45,22.838971891308194,13.648524000255973
1.1944813205369529,0.6200578548535868,501,45,22.838971891308194,13.648524000255973
1.200680318147086,0.6200516557326439,501,45,22.838971891308194,13.648524000255973
1.206879253781792,0.6200454566736776,501,45,22.838971891308194,13.648524000255973
1.2130781274416926,0.6200392576766873,501,45,22.838971891308194,13.648524000255973
1.2192769391274085,0.6200330587416726,501,45,22.838971891308194,13.648524000255973
1.2254756888395615,0.6200268598686326,501,45,22.838971891308194,13.648524000255973
1.231674376578772,0.6200206610575667,501,45,22.838971891308194,13.648524000255973
1.237873002345661,0.6200144623084745,501,45,22.838971891308194,13.648524000255973
1.2440715661408495,0.6200082636213551,501,45,22.838971891308194,13.648524000255973
1.250270067964958,0.6200020649962081,501,45,22.838971891308194,13.648524000255973
1.2564685078186075,0.6199958664330328,501,45,22.838971891308194,13.648524000255973
1.262666885702418,0.6199896679318285,501,45,22.838971891308194,13.648524000255973
1.2688652016170099,0.6199834694925948,501,45,22.838971891308194,13.648524000255973
1.2750634555630038,0.6199772711153309,501,45,22.838971891308194,13.648524000255973
1.28126164754102,0.619971072800036,501,45,22.838971891308194,13.648524000255973
1.2874597775516783,0.6199648745467099,501,45,22.838971891308194,13.648524000255973
1.2936578455955996,0.6199586763553517,501,45,22.838971891308194,13.648524000255973
1.2998558516734033,0.6199524782259609,501,45,22.838971891308194,13.648524000255973
1.3060537957857101,0.6199462801585368,501,45,22.838971891308194,13.648524000255973
1.3122516779331395,0.6199400821530788,501,45,22.838971891308194,13.648524000255973
1.3184494981163117,0.6199338842095863,501,45,22.838971891308194,13.648524000255973
1.3246472563358465,0.6199276863280586,501,45,22.838971891308194,13.648524000255973
1.3308449525923638,0.6199214885084953,501,45,22.838971891308194,13.648524000255973
1.3370425868864835,0.6199152907508956,501,45,22.838971891308194,13.648524000255973
1.3432401592188252,0.6199090930552588,501,45,22.838971891308194,13.648524000255973
1.3494376695900092,0.6199028954215845,501,45,22.838971891308194,13.648524000255973
1.3556351180006545,0.6198966978498719,501,45,22.838971891308194,13.648524000255973
1.3618325044513817,0.6198905003401205,501,45,22.838971891308194,13.648524000255973
1.36802982894281,0.6198843028923295,501,45,22.838971891308194,13.648524000255973
1.3742270914755588,0.6198781055064986,501,45,22.838971891308194,13.648524000255973
1.3804242920502485,0.6198719081826269,501,45,22.838971891308194,13.648524000255973
1.3866214306674982,0.6198657109207139,501,45,22.838971891308194,13.648524000255973
1.3928185073279273,0.619859513720759,501,45,22.838971891308194,13.648524000255973
1.399015522032156,0.6198533165827614,501,45,22.838971891308194,13.648524000255973
1.4052124747808037,0.6198471195067207,501,45,22.838971891308194,13.648524000255973
1.4114093655744895,0.6198409224926362,501,45,22.838971891308194,13.648524000255973
1.417606194413833,0.6198347255405072,501,45,22.838971891308194,13.648524000255973
1.4238029612994543,0.6198285286503332,501,45,22.838971891308194,13.648524000255973
1.4299996662319723,0.6198223318221137,501,45,22.838971891308194,13.648524000255973
1.4361963092120065,0.6198161350558477,501,45,22.838971891308194,13.648524000255973
1.4423928902401773,0.6198099383515349,501,45,22.838971891308194,13.648524000255973
1.4485894093171026,0.6198037417091745,501,45,22.838971891308194,13.648524000255973
1.4547858664434032,0.619797545128766,501,45,22.838971891308194,13.648524000255973
1.4609822616196984,0.6197913486103087,501,45,22.838971891308194,13.648524000255973
1.4671785948466067,0.6197851521538021,501,45,22.838971891308194,13.648524000255973
