Vout,Iout,Irradiance,Temperature,MaxVoltage,MaxPower
0.00220547879347314,0.4411,401,-25,18.24205478540865,7.713951273641952
0.006616395599029125,0.4411,401,-25,18.24205478540865,7.713951273641952
0.011027222731752814,0.4410977504112065,401,-25,18.24205478540865,7.713951273641952
0.015437944171622413,0.44109333949440094,401,-25,18.24205478540865,7.713951273641952
0.019848554683016866,0.4410889286674932,401,-25,18.24205478540865,7.713951273641952
0.02425905940898028,0.44108451794649445,401,-25,18.24205478540865,7.713951273641952
0.02866946309702333,0.4410801073364241,401,-25,18.24205478540865,7.713951273641952
0.03307977012945856,0.4410756968321392,401,-25,18.24205478540865,7.713951273641952
0.03748998455145043,0.44107128642889226,401,-25,18.24205478540865,7.713951273641952
0.04190011009695598,0.44106687612230083,401,-25,18.24205478540865,7.713951273641952
0.04631015021266964,0.4410624659083199,401,-25,18.24205478540865,7.713951273641952
0.050720108080125705,0.44105805578321544,401,-25,18.24205478540865,7.713951273641952
0.055129986636100074,0.4410536457435407,401,-25,18.24205478540865,7.713951273641952
0.059539788591442426,0.44104923578611427,401,-25,18.24205478540865,7.713951273641952
0.06394951644845934,0.4410448259079993,401,-25,18.24205478540865,7.713951273641952
0.06835917251695986,0.441040416106485,401,-25,18.24205478540865,7.713951273641952
0.07276875892906666,0.4410360063790689,401,-25,18.24205478540865,7.713951273641952
0.07717827765288739,0.44103159672344144,401,-25,18.24205478540865,7.713951273641952
0.08158773050513433,0.4410271871374703,401,-25,18.24205478540865,7.713951273641952
0.08599711916277299,0.44102277761918746,401,-25,18.24205478540865,7.713951273641952
0.09040644517377441,0.44101836816677614,401,-25,18.24205478540865,7.713951273641952
0.09481570996704024,0.4410139587785595,401,-25,18.24205478540865,7.713951273641952
0.09922491486156401,0.4410095494529894,401,-25,18.24205478540865,7.713951273641952
0.10363406107488785,0.44100514018863707,401,-25,18.24205478540865,7.713951273641952
0.10804314973090809,0.44100073098418346,401,-25,18.24205478540865,7.713951273641952
0.11245218186708064,0.4409963218384111,401,-25,18.24205478540865,7.713951273641952
0.11686115844107185,0.440991912750196,401,-25,18.24205478540865,7.713951273641952
0.1212700803368976,0.4409875037185007,401,-25,18.24205478540865,7.713951273641952
0.12567894837059007,0.44098309474236763,401,-25,18.24205478540865,7.713951273641952
0.13008776329542865,0.4409786858209127,401,-25,18.24205478540865,7.713951273641952
0.134496525806768,0.4409742769533199,401,-25,18.24205478540865,7.713951273641952
0.13890523654649506,0.440969868138836,401,-25,18.24205478540865,7.713951273641952
0.14331389610714287,0.4409654593767655,401,-25,18.24205478540865,7.713951273641952
0.14772250503568804,0.4409610506664667,401,-25,18.24205478540865,7.713951273641952
0.15213106383705569,0.4409566420073469,401,-25,18.24205478540865,7.713951273641952
0.1565395729773552,0.44095223339885925,401,-25,18.24205478540865,7.713951273641952
0.16094803288686668,0.4409478248404987,401,-25,18.24205478540865,7.713951273641952
0.1653564439627976,0.4409434163317993,401,-25,18.24205478540865,7.713951273641952
0.1697648065718277,0.44093900787233065,401,-25,18.24205478540865,7.713951273641952
0.17417312105245764,0.44093459946169555,401,-25,18.24205478540865,7.713951273641952
0.17858138771717713,0.44093019109952736,401,-25,18.24205478540865,7.713951273641952
0.1829896068544665,0.4409257827854876,401,-25,18.24205478540865,7.713951273641952
0.18739777873064367,0.4409213745192637,401,-25,18.24205478540865,7.713951273641952
0.19180590359156968,0.44091696630056726,401,-25,18.24205478540865,7.713951273641952
0.19621398166422246,0.4409125581291319,401,-25,18.24205478540865,7.713951273641952
0.20062201315814976,0.4409081500047118,401,-25,18.24205478540865,7.713951273641952
0.2050299982668104,0.44090374192708,401,-25,18.24205478540865,7.713951273641952
0.209437937168812,0.44089933389602687,401,-25,18.24205478540865,7.713951273641952
0.21384583002905377,0.440894925911359,401,-25,18.24205478540865,7.713951273641952
0.2182536769997811,0.4408905179728978,401,-25,18.24205478540865,7.713951273641952
0.2226614782215594,0.44088611008047834,401,-25,18.24205478540865,7.713951273641952
0.22706923382417263,0.4408817022339484,401,-25,18.24205478540865,7.713951273641952
0.2314769439274528,0.4408772944331674,401,-25,18.24205478540865,7.713951273641952
0.2358846086420458,0.4408728866780056,401,-25,18.24205478540865,7.713951273641952
0.24029222807011819,0.4408684789683431,401,-25,18.24205478540865,7.713951273641952
0.24469980230600943,0.4408640713040693,401,-25,18.24205478540865,7.713951273641952
0.24910733143683433,0.440859663685082,401,-25,18.24205478540865,7.713951273641952
0.2535148155430389,0.44085525611128684,401,-25,18.24205478540865,7.713951273641952
0.25792225469891333,0.44085084858259677,401,-25,18.24205478540865,7.713951273641952
0.26232964897306565,0.44084644109893134,401,-25,18.24205478540865,7.713951273641952
0.2667369984288592,0.44084203366021624,401,-25,18.24205478540865,7.713951273641952
0.2711443031248155,0.44083762626638284,401,-25,18.24205478540865,7.713951273641952
0.27555156311498763,0.44083321891736776,401,-25,18.24205478540865,7.713951273641952
0.27995877844930356,0.44082881161311255,401,-25,18.24205478540865,7.713951273641952
0.2843659491738834,0.4408244043535631,401,-25,18.24205478540865,7.713951273641952
0.2887730753313329,0.44081999713866954,401,-25,18.24205478540865,7.713951273641952
0.29318015696101335,0.44081558996838566,401,-25,18.24205478540865,7.713951273641952
0.29758719409929135,0.44081118284266896,401,-25,18.24205478540865,7.713951273641952
0.3019941867797694,0.44080677576148,401,-25,18.24205478540865,7.713951273641952
0.3064011350334985,0.4408023687247824,401,-25,18.24205478540865,7.713951273641952
0.31080803888917435,0.44079796173254265,401,-25,18.24205478540865,7.713951273641952
0.31521489837331856,0.44079355478472965,401,-25,18.24205478540865,7.713951273641952
0.31962171351044627,0.4407891478813146,401,-25,18.24205478540865,7.713951273641952
0.3240284843232201,0.4407847410222712,401,-25,18.24205478540865,7.713951273641952
0.32843521083259275,0.44078033420757473,401,-25,18.24205478540865,7.713951273641952
0.332841893057939,0.4407759274372027,401,-25,18.24205478540865,7.713951273641952
0.3372485310171764,0.44077152071113396,401,-25,18.24205478540865,7.713951273641952
0.341655124726878,0.4407671140293493,401,-25,18.24205478540865,7.713951273641952
0.34606167420237566,0.44076270739183077,401,-25,18.24205478540865,7.713951273641952
0.3504681794578553,0.4407583007985617,401,-25,18.24205478540865,7.713951273641952
0.3548746405064453,0.4407538942495269,401,-25,18.24205478540865,7.713951273641952
0.35928105736029775,0.44074948774471207,401,-25,18.24205478540865,7.713951273641952
0.3636874300306637,0.4407450812841041,401,-25,18.24205478540865,7.713951273641952
0.36809375852796244,0.4407406748676909,401,-25,18.24205478540865,7.713951273641952
0.37250004286184546,0.4407362684954612,401,-25,18.24205478540865,7.713951273641952
0.37690628304125523,0.44073186216740456,401,-25,18.24205478540865,7.713951273641952
0.3813124790744806,0.4407274558835113,401,-25,18.24205478540865,7.713951273641952
0.38571863096920617,0.4407230496437725,401,-25,18.24205478540865,7.713951273641952
0.39012473873255915,0.4407186434481799,401,-25,18.24205478540865,7.713951273641952
0.3945308023711523,0.4407142372967258,401,-25,18.24205478540865,7.713951273641952
0.39893682189112367,0.4407098311894031,401,-25,18.24205478540865,7.713951273641952
0.4033427972981728,0.4407054251262051,401,-25,18.24205478540865,7.713951273641952
0.4077487285975943,0.4407010191071257,401,-25,18.24205478540865,7.713951273641952
0.4121546157943097,0.4406966131321593,401,-25,18.24205478540865,7.713951273641952
0.41656045889289556,0.4406922072013005,401,-25,18.24205478540865,7.713951273641952
0.4209662578976101,0.4406878013145444,401,-25,18.24205478540865,7.713951273641952
0.4253720128124179,0.4406833954718864,401,-25,18.24205478540865,7.713951273641952
0.42977772364101247,0.44067898967332225,401,-25,18.24205478540865,7.713951273641952
0.43418339038683673,0.440674583918848,401,-25,18.24205478540865,7.713951273641952
0.438589013053103,0.44067017820846,401,-25,18.24205478540865,7.713951273641952
0.4429945916428098,0.4406657725421548,401,-25,18.24205478540865,7.713951273641952
0.44740012615875924,0.4406613669199291,401,-25,18.24205478540865,7.713951273641952
0.4518056166035714,0.44065696134177995,401,-25,18.24205478540865,7.713951273641952
0.456211062979699,0.4406525558077045,401,-25,18.24205478540865,7.713951273641952
0.4606164652894396,0.44064815031770027,401,-25,18.24205478540865,7.713951273641952
0.4650218235349479,0.4406437448717647,401,-25,18.24205478540865,7.713951273641952
0.4694271377182468,0.44063933946989553,401,-25,18.24205478540865,7.713951273641952
0.47383240784123737,0.44063493411209054,401,-25,18.24205478540865,7.713951273641952
0.47823763390570845,0.4406305287983478,401,-25,18.24205478540865,7.713951273641952
0.48264281591334485,0.44062612352866537,401,-25,18.24205478540865,7.713951273641952
0.48704795386573574,0.4406217183030414,401,-25,18.24205478540865,7.713951273641952
0.49145304776438187,0.4406173131214743,401,-25,18.24205478540865,7.713951273641952
0.4958580976107026,0.4406129079839624,401,-25,18.24205478540865,7.713951273641952
0.5002631034060415,0.4406085028905043,401,-25,18.24205478540865,7.713951273641952
0.5046680651516733,0.4406040978410985,401,-25,18.24205478540865,7.713951273641952
0.5090729828488078,0.4405996928357437,401,-25,18.24205478540865,7.713951273641952
0.5134778564985959,0.4405952878744385,401,-25,18.24205478540865,7.713951273641952
0.5178826861021341,0.4405908829571819,401,-25,18.24205478540865,7.713951273641952
0.522287471660468,0.4405864780839726,401,-25,18.24205478540865,7.713951273641952
0.5266922131745967,0.4405820732548096,401,-25,18.24205478540865,7.713951273641952
0.5310969106454766,0.4405776684696917,401,-25,18.24205478540865,7.713951273641952
0.5355015640740239,0.44057326372861805,401,-25,18.24205478540865,7.713951273641952
0.5399061734611186,0.44056885903158766,401,-25,18.24205478540865,7.713951273641952
0.5443107388076067,0.4405644543785996,401,-25,18.24205478540865,7.713951273641952
0.5487152601143029,0.44056004976965296,401,-25,18.24205478540865,7.713951273641952
0.553119737381993,0.44055564520474694,401,-25,18.24205478540865,7.713951273641952
0.5575241706114367,0.4405512406838807,401,-25,18.24205478540865,7.713951273641952
0.5619285598033685,0.4405468362070535,401,-25,18.24205478540865,7.713951273641952
0.5663329049585009,0.4405424317742645,401,-25,18.24205478540865,7.713951273641952
0.5707372060775247,0.440538027385513,401,-25,18.24205478540865,7.713951273641952
0.5751414631611117,0.4405336230407983,401,-25,18.24205478540865,7.713951273641952
0.5795456762099163,0.44052921874011974,401,-25,18.24205478540865,7.713951273641952
0.5839498452245762,0.4405248144834766,401,-25,18.24205478540865,7.713951273641952
0.5883539702057133,0.4405204102708682,401,-25,18.24205478540865,7.713951273641952
0.5927580511539363,0.44051600610229397,401,-25,18.24205478540865,7.713951273641952
0.5971620880698406,0.44051160197775324,401,-25,18.24205478540865,7.713951273641952
0.60156608095401,0.44050719789724546,401,-25,18.24205478540865,7.713951273641952
0.6059700298070165,0.44050279386076996,401,-25,18.24205478540865,7.713951273641952
0.6103739346294226,0.4404983898683262,401,-25,18.24205478540865,7.713951273641952
0.6147777954217812,0.44049398591991357,401,-25,18.24205478540865,7.713951273641952
0.6191816121846362,0.44048958201553157,401,-25,18.24205478540865,7.713951273641952
0.6235853849185244,0.4404851781551796,401,-25,18.24205478540865,7.713951273641952
0.627989113623974,0.44048077433885713,401,-25,18.24205478540865,7.713951273641952
0.6323927983015075,0.44047637056656364,401,-25,18.24205478540865,7.713951273641952
0.6367964389516403,0.4404719668382986,401,-25,18.24205478540865,7.713951273641952
0.6412000355748823,0.44046756315406144,401,-25,18.24205478540865,7.713951273641952
0.645603588171738,0.4404631595138517,401,-25,18.24205478540865,7.713951273641952
0.6500070967427068,0.4404587559176688,401,-25,18.24205478540865,7.713951273641952
0.654410561288284,0.4404543523655123,401,-25,18.24205478540865,7.713951273641952
0.6588139818089601,0.4404499488573817,401,-25,18.24205478540865,7.713951273641952
0.6632173583052222,0.44044554539327646,401,-25,18.24205478540865,7.713951273641952
0.6676206907775533,0.44044114197319617,401,-25,18.24205478540865,7.713951273641952
0.6720239792264333,0.4404367385971402,401,-25,18.24205478540865,7.713951273641952
0.6764272236523392,0.4404323352651082,401,-25,18.24205478540865,7.713951273641952
0.6808304240557451,0.4404279319770997,401,-25,18.24205478540865,7.713951273641952
0.6852335804371223,0.44042352873311413,401,-25,18.24205478540865,7.713951273641952
0.68963669279694,0.44041912553315105,401,-25,18.24205478540865,7.713951273641952
0.6940397611356647,0.44041472237721,401,-25,18.24205478540865,7.713951273641952
0.698442785453761,0.4404103192652905,401,-25,18.24205478540865,7.713951273641952
0.7028457657516926,0.4404059161973921,401,-25,18.24205478540865,7.713951273641952
0.7072487020299195,0.4404015131735143,401,-25,18.24205478540865,7.713951273641952
0.7116515942889017,0.4403971101936567,401,-25,18.24205478540865,7.713951273641952
0.716054442529097,0.44039270725781876,401,-25,18.24205478540865,7.713951273641952
0.7204572467509622,0.44038830436600007,401,-25,18.24205478540865,7.713951273641952
0.7248600069549523,0.44038390151820017,401,-25,18.24205478540865,7.713951273641952
0.7292627231415215,0.4403794987144186,401,-25,18.24205478540865,7.713951273641952
0.7336653953111231,0.4403750959546549,401,-25,18.24205478540865,7.713951273641952
0.738068023464209,0.4403706932389086,401,-25,18.24205478540865,7.713951273641952
0.7424706076012301,0.4403662905671793,401,-25,18.24205478540865,7.713951273641952
0.7468731477226368,0.44036188793946646,401,-25,18.24205478540865,7.713951273641952
0.7512756438288788,0.4403574853557697,401,-25,18.24205478540865,7.713951273641952
0.7556780959204046,0.44035308281608854,401,-25,18.24205478540865,7.713951273641952
0.7600805039976624,0.44034868032042257,401,-25,18.24205478540865,7.713951273641952
0.7644828680610993,0.4403442778687713,401,-25,18.24205478540865,7.713951273641952
0.7688851881111625,0.4403398754611343,401,-25,18.24205478540865,7.713951273641952
0.7732874641482983,0.4403354730975111,401,-25,18.24205478540865,7.713951273641952
0.7776896961729526,0.4403310707779013,401,-25,18.24205478540865,7.713951273641952
0.7820918841855707,0.4403266685023044,401,-25,18.24205478540865,7.713951273641952
0.7864940281865977,0.44032226627071996,401,-25,18.24205478540865,7.713951273641952
0.7908961281764779,0.44031786408314755,401,-25,18.24205478540865,7.713951273641952
0.7952981841556558,0.44031346193958676,401,-25,18.24205478540865,7.713951273641952
0.7997001961245754,0.4403090598400371,401,-25,18.24205478540865,7.713951273641952
0.8041021640836798,0.4403046577844981,401,-25,18.24205478540865,7.713951273641952
0.808504088033413,0.44030025577296944,401,-25,18.24205478540865,7.713951273641952
0.8129059679742177,0.44029585380545055,401,-25,18.24205478540865,7.713951273641952
0.8173078039065366,0.440291451881941,401,-25,18.24205478540865,7.713951273641952
0.8217095958308125,0.4402870500024404,401,-25,18.24205478540865,7.713951273641952
0.8261113437474876,0.4402826481669483,401,-25,18.24205478540865,7.713951273641952
0.8305130476570044,0.4402782463754642,401,-25,18.24205478540865,7.713951273641952
0.8349147075598047,0.4402738446279877,401,-25,18.24205478540865,7.713951273641952
0.8393163234563306,0.44026944292451836,401,-25,18.24205478540865,7.713951273641952
0.8437178953470235,0.4402650412650557,401,-25,18.24205478540865,7.713951273641952
0.8481194232323251,0.4402606396495994,401,-25,18.24205478540865,7.713951273641952
0.8525209071126768,0.44025623807814884,401,-25,18.24205478540865,7.713951273641952
0.8569223469885202,0.4402518365507037,401,-25,18.24205478540865,7.713951273641952
0.861323742860296,0.4402474350672635,401,-25,18.24205478540865,7.713951273641952
0.8657250947284457,0.4402430336278278,401,-25,18.24205478540865,7.713951273641952
0.8701264025934103,0.4402386322323962,401,-25,18.24205478540865,7.713951273641952
0.8745276664556305,0.4402342308809682,401,-25,18.24205478540865,7.713951273641952
0.8789288863155476,0.44022982957354334,401,-25,18.24205478540865,7.713951273641952
0.8833300621736018,0.4402254283101213,401,-25,18.24205478540865,7.713951273641952
0.8877311940302339,0.4402210270907015,401,-25,18.24205478540865,7.713951273641952
0.892132281885885,0.44021662591528354,401,-25,18.24205478540865,7.713951273641952
0.8965333257409954,0.44021222478386707,401,-25,18.24205478540865,7.713951273641952
0.9009343255960055,0.4402078236964515,401,-25,18.24205478540865,7.713951273641952
0.9053352814513558,0.4402034226530365,401,-25,18.24205478540865,7.713951273641952
0.9097361933074872,0.4401990216536216,401,-25,18.24205478540865,7.713951273641952
0.9141370611648395,0.44019462069820636,401,-25,18.24205478540865,7.713951273641952
0.9185378850238529,0.44019021978679035,401,-25,18.24205478540865,7.713951273641952
0.9229386648849683,0.4401858189193731,401,-25,18.24205478540865,7.713951273641952
0.9273394007486256,0.4401814180959542,401,-25,18.24205478540865,7.713951273641952
0.9317400926152652,0.44017701731653314,401,-25,18.24205478540865,7.713951273641952
0.9361407404853271,0.44017261658110957,401,-25,18.24205478540865,7.713951273641952
0.9405413443592517,0.44016821588968297,401,-25,18.24205478540865,7.713951273641952
0.9449419042374788,0.440163815242253,401,-25,18.24205478540865,7.713951273641952
0.9493424201204489,0.44015941463881914,401,-25,18.24205478540865,7.713951273641952
0.9537428920086015,0.440155014079381,401,-25,18.24205478540865,7.713951273641952
0.9581433199023773,0.4401506135639381,401,-25,18.24205478540865,7.713951273641952
0.9625437038022161,0.44014621309248997,401,-25,18.24205478540865,7.713951273641952
0.9669440437085578,0.44014181266503627,401,-25,18.24205478540865,7.713951273641952
0.9713443396218425,0.4401374122815765,401,-25,18.24205478540865,7.713951273641952
0.9757445915425104,0.4401330119421102,401,-25,18.24205478540865,7.713951273641952
0.9801447994710011,0.4401286116466369,401,-25,18.24205478540865,7.713951273641952
0.9845449634077549,0.4401242113951563,401,-25,18.24205478540865,7.713951273641952
0.9889450833532113,0.44011981118766785,401,-25,18.24205478540865,7.713951273641952
0.9933451593078106,0.4401154110241711,401,-25,18.24205478540865,7.713951273641952
0.9977451912719925,0.44011101090466564,401,-25,18.24205478540865,7.713951273641952
1.002145179246197,0.4401066108291511,401,-25,18.24205478540865,7.713951273641952
1.0065451232308638,0.4401022107976269,401,-25,18.24205478540865,7.713951273641952
1.010945023226433,0.4400978108100927,401,-25,18.24205478540865,7.713951273641952
1.0153448792333444,0.4400934108665481,401,-25,18.24205478540865,7.713951273641952
1.019744691252038,0.4400890109669925,401,-25,18.24205478540865,7.713951273641952
1.0241444592829538,0.44008461111142555,401,-25,18.24205478540865,7.713951273641952
1.0285441833265312,0.44008021129984687,401,-25,18.24205478540865,7.713951273641952
1.0329438633832098,0.44007581153225594,401,-25,18.24205478540865,7.713951273641952
1.03734349945343,0.44007141180865234,401,-25,18.24205478540865,7.713951273641952
1.0417430915376318,0.44006701212903565,401,-25,18.24205478540865,7.713951273641952
1.0461426396362543,0.4400626124934054,401,-25,18.24205478540865,7.713951273641952
1.0505421437497373,0.44005821290176117,401,-25,18.24205478540865,7.713951273641952
