Vout,Iout,Irradiance,Temperature,MaxVoltage,MaxPower
0.003056070614705628,0.61122,501,35,22.653087690722355,13.333123141531699
0.009168155334478761,0.61122,501,35,22.653087690722355,13.333123141531699
0.015280115797102596,0.6112168828073853,501,35,22.653087690722355,13.333123141531699
0.021391929804078558,0.6112107707226655,501,35,22.653087690722355,13.333123141531699
0.02750359010055219,0.6112046587625146,501,35,22.653087690722355,13.333123141531699
0.03361510381309664,0.6111985469491188,501,35,22.653087690722355,13.333123141531699
0.0397264775202054,0.6111924352894336,501,35,22.653087690722355,13.333123141531699
0.04583771729432706,0.6111863237763322,501,35,22.653087690722355,13.333123141531699
0.05194882874073347,0.6111802124032363,501,35,22.653087690722355,13.333123141531699
0.05805981703346506,0.6111741011640733,501,35,22.653087690722355,13.333123141531699
0.06417068694851041,0.611167990053238,501,35,22.653087690722355,13.333123141531699
0.07028144289443308,0.6111618790655564,501,35,22.653087690722355,13.333123141531699
0.07639208894064177,0.6111557681962525,501,35,22.653087690722355,13.333123141531699
0.08250262884348546,0.6111496574409176,501,35,22.653087690722355,13.333123141531699
0.08861306607034078,0.6111435467954826,501,35,22.653087690722355,13.333123141531699
0.09472340382184587,0.6111374362561908,501,35,22.653087690722355,13.333123141531699
0.10083364505242375,0.611131325819575,501,35,22.653087690722355,13.333123141531699
0.1069437924892265,0.6111252154824345,501,35,22.653087690722355,13.333123141531699
0.11305384864962181,0.611119105241815,501,35,22.653087690722355,13.333123141531699
0.11916381585733414,0.6111129950949892,501,35,22.653087690722355,13.333123141531699
0.1252736962573439,0.6111068850394399,501,35,22.653087690722355,13.333123141531699
0.13138349182964026,0.6111007750728431,501,35,22.653087690722355,13.333123141531699
0.13749320440191598,0.6110946651930541,501,35,22.653087690722355,13.333123141531699
0.14360283566128532,0.6110885553980928,501,35,22.653087690722355,13.333123141531699
0.14971238716510005,0.6110824456861316,501,35,22.653087690722355,13.333123141531699
0.1558218603509341,0.6110763360554832,501,35,22.653087690722355,13.333123141531699
0.161931256545799,0.6110702265045903,501,35,22.653087690722355,13.333123141531699
0.168040576974651,0.6110641170320155,501,35,22.653087690722355,13.333123141531699
0.17414982276824323,0.6110580076364316,501,35,22.653087690722355,13.333123141531699
0.1802589949703739,0.6110518983166137,501,35,22.653087690722355,13.333123141531699
0.18636809454457662,0.611045789071431,501,35,22.653087690722355,13.333123141531699
0.19247712238029632,0.6110396798998398,501,35,22.653087690722355,13.333123141531699
0.19858607929858962,0.6110335708008765,501,35,22.653087690722355,13.333123141531699
0.20469496605738668,0.6110274617736517,501,35,22.653087690722355,13.333123141531699
0.21080378335634828,0.6110213528173443,501,35,22.653087690722355,13.333123141531699
0.2169125318413491,0.6110152439311964,501,35,22.653087690722355,13.333123141531699
0.22302121210861636,0.6110091351145084,501,35,22.653087690722355,13.333123141531699
0.2291298247085495,0.6110030263666343,501,35,22.653087690722355,13.333123141531699
0.23523837014924637,0.6109969176869778,501,35,22.653087690722355,13.333123141531699
0.24134684889975785,0.6109908090749888,501,35,22.653087690722355,13.333123141531699
0.24745526139309235,0.610984700530159,501,35,22.653087690722355,13.333123141531699
0.2535636080289889,0.6109785920520193,501,35,22.653087690722355,13.333123141531699
0.2596718891764771,0.6109724836401368,501,35,22.653087690722355,13.333123141531699
0.2657801051762395,0.6109663752941118,501,35,22.653087690722355,13.333123141531699
0.2718882563427932,0.6109602670135752,501,35,22.653087690722355,13.333123141531699
0.2779963429665026,0.6109541587981863,501,35,22.653087690722355,13.333123141531699
0.2841043653154384,0.6109480506476305,501,35,22.653087690722355,13.333123141531699
0.29021232363709204,0.6109419425616176,501,35,22.653087690722355,13.333123141531699
0.29632021815995974,0.6109358345398794,501,35,22.653087690722355,13.333123141531699
0.3024280490950039,0.6109297265821686,501,35,22.653087690722355,13.333123141531699
0.308535816637002,0.6109236186882566,501,35,22.653087690722355,13.333123141531699
0.314643520965792,0.6109175108579323,501,35,22.653087690722355,13.333123141531699
0.3207511622474218,0.6109114030910011,501,35,22.653087690722355,13.333123141531699
0.32685874063521037,0.6109052953872831,501,35,22.653087690722355,13.333123141531699
0.33296625627072707,0.6108991877466122,501,35,22.653087690722355,13.333123141531699
0.3390737092846953,0.6108930801688353,501,35,22.653087690722355,13.333123141531699
0.3451810997978281,0.6108869726538105,501,35,22.653087690722355,13.333123141531699
0.35128842792159676,0.6108808652014073,501,35,22.653087690722355,13.333123141531699
0.3573956937589434,0.6108747578115049,501,35,22.653087690722355,13.333123141531699
0.3635028974049361,0.6108686504839919,501,35,22.653087690722355,13.333123141531699
0.36961003894737554,0.6108625432187652,501,35,22.653087690722355,13.333123141531699
0.3757171184673539,0.61085643601573,501,35,22.653087690722355,13.333123141531699
0.3818241360397707,0.6108503288747983,501,35,22.653087690722355,13.333123141531699
0.3879310917338096,0.610844221795889,501,35,22.653087690722355,13.333123141531699
0.3940379856133782,0.6108381147789274,501,35,22.653087690722355,13.333123141531699
0.4001448177375139,0.610832007823844,501,35,22.653087690722355,13.333123141531699
0.40625158816075857,0.6108259009305751,501,35,22.653087690722355,13.333123141531699
0.4123582969335047,0.6108197940990617,501,35,22.653087690722355,13.333123141531699
0.41846494410231394,0.6108136873292491,501,35,22.653087690722355,13.333123141531699
0.4245715297102131,0.6108075806210871,501,35,22.653087690722355,13.333123141531699
0.4306780537969648,0.6108014739745289,501,35,22.653087690722355,13.333123141531699
0.4367845163993195,0.6107953673895317,501,35,22.653087690722355,13.333123141531699
0.442890917551247,0.6107892608660557,501,35,22.653087690722355,13.333123141531699
0.4489972572841501,0.6107831544040639,501,35,22.653087690722355,13.333123141531699
0.45510353562706274,0.6107770480035226,501,35,22.653087690722355,13.333123141531699
0.4612097526068317,0.6107709416644004,501,35,22.653087690722355,13.333123141531699
0.4673159082482851,0.6107648353866681,501,35,22.653087690722355,13.333123141531699
0.4734220025743877,0.6107587291702989,501,35,22.653087690722355,13.333123141531699
0.4795280356063843,0.6107526230152681,501,35,22.653087690722355,13.333123141531699
0.4856340073639318,0.6107465169215527,501,35,22.653087690722355,13.333123141531699
0.49173991786522214,0.6107404108891313,501,35,22.653087690722355,13.333123141531699
0.49784576712709405,0.6107343049179844,501,35,22.653087690722355,13.333123141531699
0.5039515551651379,0.6107281990080937,501,35,22.653087690722355,13.333123141531699
0.5100572819937911,0.6107220931594424,501,35,22.653087690722355,13.333123141531699
0.5161629476264274,0.6107159873720149,501,35,22.653087690722355,13.333123141531699
0.5222685520754388,0.6107098816457969,501,35,22.653087690722355,13.333123141531699
0.5283740953523102,0.6107037759807749,501,35,22.653087690722355,13.333123141531699
0.5344795774676901,0.6106976703769363,501,35,22.653087690722355,13.333123141531699
0.5405849984314547,0.6106915648342701,501,35,22.653087690722355,13.333123141531699
0.5466903582527672,0.6106854593527653,501,35,22.653087690722355,13.333123141531699
0.5527956569401327,0.610679353932412,501,35,22.653087690722355,13.333123141531699
0.558900894501449,0.6106732485732013,501,35,22.653087690722355,13.333123141531699
0.5650060709440526,0.6106671432751245,501,35,22.653087690722355,13.333123141531699
0.5711111862747632,0.6106610380381737,501,35,22.653087690722355,13.333123141531699
0.5772162404999222,0.6106549328623416,501,35,22.653087690722355,13.333123141531699
0.5833212336254302,0.6106488277476214,501,35,22.653087690722355,13.333123141531699
0.5894261656567812,0.6106427226940068,501,35,22.653087690722355,13.333123141531699
0.5955310365990926,0.6106366177014918,501,35,22.653087690722355,13.333123141531699
0.6016358464571354,0.610630512770071,501,35,22.653087690722355,13.333123141531699
0.6077405952353608,0.6106244078997392,501,35,22.653087690722355,13.333123141531699
0.613845282937924,0.6106183030904916,501,35,22.653087690722355,13.333123141531699
0.6199499095687074,0.6106121983423238,501,35,22.653087690722355,13.333123141531699
0.6260544751313422,0.6106060936552318,501,35,22.653087690722355,13.333123141531699
0.6321589796292263,0.6105999890292114,501,35,22.653087690722355,13.333123141531699
0.6382634230655437,0.6105938844642593,501,35,22.653087690722355,13.333123141531699
0.6443678054432801,0.6105877799603718,501,35,22.653087690722355,13.333123141531699
0.650472126765239,0.6105816755175459,501,35,22.653087690722355,13.333123141531699
0.6565763870340539,0.6105755711357788,501,35,22.653087690722355,13.333123141531699
0.6626805862522042,0.6105694668150672,501,35,22.653087690722355,13.333123141531699
0.6687847244220239,0.6105633625554088,501,35,22.653087690722355,13.333123141531699
0.6748888015457154,0.6105572583568011,501,35,22.653087690722355,13.333123141531699
0.6809928176253583,0.6105511542192417,501,35,22.653087690722355,13.333123141531699
0.6870967726629191,0.6105450501427284,501,35,22.653087690722355,13.333123141531699
0.6932006666602601,0.6105389461272592,501,35,22.653087690722355,13.333123141531699
0.699304499619147,0.6105328421728321,501,35,22.653087690722355,13.333123141531699
0.7054082715412566,0.6105267382794451,501,35,22.653087690722355,13.333123141531699
0.7115119824281836,0.6105206344470966,501,35,22.653087690722355,13.333123141531699
0.7176156322814473,0.6105145306757849,501,35,22.653087690722355,13.333123141531699
0.7237192211024965,0.6105084269655083,501,35,22.653087690722355,13.333123141531699
0.7298227488927159,0.6105023233162654,501,35,22.653087690722355,13.333123141531699
0.7359262156534303,0.6104962197280548,501,35,22.653087690722355,13.333123141531699
0.7420296213859098,0.6104901162008749,501,35,22.653087690722355,13.333123141531699
0.7481329660913737,0.6104840127347246,501,35,22.653087690722355,13.333123141531699
0.7542362497709938,0.6104779093296024,501,35,22.653087690722355,13.333123141531699
0.7603394724258993,0.6104718059855073,501,35,22.653087690722355,13.333123141531699
0.7664426340571793,0.610465702702438,501,35,22.653087690722355,13.333123141531699
0.7725457346658858,0.6104595994803935,501,35,22.653087690722355,13.333123141531699
0.7786487742530375,0.6104534963193725,501,35,22.653087690722355,13.333123141531699
0.7847517528196208,0.6104473932193741,501,35,22.653087690722355,13.333123141531699
0.7908546703665934,0.6104412901803973,501,35,22.653087690722355,13.333123141531699
0.7969575268948866,0.610435187202441,501,35,22.653087690722355,13.333123141531699
0.8030603224054068,0.6104290842855044,501,35,22.653087690722355,13.333123141531699
0.8091630568990371,0.6104229814295864,501,35,22.653087690722355,13.333123141531699
0.81526573037664,0.6104168786346862,501,35,22.653087690722355,13.333123141531699
0.8213683428390587,0.6104107759008028,501,35,22.653087690722355,13.333123141531699
0.8274708942871185,0.6104046732279355,501,35,22.653087690722355,13.333123141531699
0.8335733847216276,0.6103985706160834,501,35,22.653087690722355,13.333123141531699
0.8396758141433793,0.6103924680652455,501,35,22.653087690722355,13.333123141531699
0.8457781825531527,0.6103863655754213,501,35,22.653087690722355,13.333123141531699
0.8518804899517141,0.6103802631466098,501,35,22.653087690722355,13.333123141531699
0.8579827363398173,0.6103741607788102,501,35,22.653087690722355,13.333123141531699
0.8640849217182056,0.6103680584720219,501,35,22.653087690722355,13.333123141531699
0.8701870460876115,0.6103619562262441,501,35,22.653087690722355,13.333123141531699
0.8762891094487586,0.610355854041476,501,35,22.653087690722355,13.333123141531699
0.8823911118023613,0.6103497519177168,501,35,22.653087690722355,13.333123141531699
0.8884930531491261,0.6103436498549658,501,35,22.653087690722355,13.333123141531699
0.8945949334897519,0.6103375478532225,501,35,22.653087690722355,13.333123141531699
0.9006967528249312,0.6103314459124859,501,35,22.653087690722355,13.333123141531699
0.90679851115535,0.6103253440327554,501,35,22.653087690722355,13.333123141531699
0.9129002084816878,0.6103192422140304,501,35,22.653087690722355,13.333123141531699
0.9190018448046195,0.6103131404563102,501,35,22.653087690722355,13.333123141531699
0.925103420124815,0.610307038759594,501,35,22.653087690722355,13.333123141531699
0.9312049344429391,0.6103009371238813,501,35,22.653087690722355,13.333123141531699
0.9373063877596525,0.6102948355491713,501,35,22.653087690722355,13.333123141531699
0.9434077800756121,0.6102887340354634,501,35,22.653087690722355,13.333123141531699
0.9495091113914711,0.6102826325827567,501,35,22.653087690722355,13.333123141531699
0.9556103817078795,0.610276531191051,501,35,22.653087690722355,13.333123141531699
0.9617115910254838,0.6102704298603453,501,35,22.653087690722355,13.333123141531699
0.9678127393449284,0.610264328590639,501,35,22.653087690722355,13.333123141531699
0.9739138266668542,0.6102582273819315,501,35,22.653087690722355,13.333123141531699
0.9800148529919006,0.6102521262342222,501,35,22.653087690722355,13.333123141531699
0.9861158183207037,0.6102460251475104,501,35,22.653087690722355,13.333123141531699
0.9922167226538987,0.6102399241217955,501,35,22.653087690722355,13.333123141531699
0.9983175659921175,0.6102338231570767,501,35,22.653087690722355,13.333123141531699
1.0044183483359916,0.6102277222533536,501,35,22.653087690722355,13.333123141531699
1.0105190696861501,0.6102216214106255,501,35,22.653087690722355,13.333123141531699
1.016619730043221,0.6102155206288917,501,35,22.653087690722355,13.333123141531699
1.0227203294078302,0.6102094199081517,501,35,22.653087690722355,13.333123141531699
1.0288208677806028,0.6102033192484047,501,35,22.653087690722355,13.333123141531699
1.034921345162163,0.6101972186496502,501,35,22.653087690722355,13.333123141531699
1.0410217615531334,0.6101911181118874,501,35,22.653087690722355,13.333123141531699
1.0471221169541365,0.610185017635116,501,35,22.653087690722355,13.333123141531699
1.0532224113657924,0.610178917219335,501,35,22.653087690722355,13.333123141531699
1.0593226447887216,0.610172816864544,501,35,22.653087690722355,13.333123141531699
1.0654228172235427,0.6101667165707425,501,35,22.653087690722355,13.333123141531699
1.071522928670875,0.6101606163379296,501,35,22.653087690722355,13.333123141531699
1.0776229791313354,0.6101545161661048,501,35,22.653087690722355,13.333123141531699
1.0837229686055418,0.6101484160552675,501,35,22.653087690722355,13.333123141531699
1.0898228970941106,0.610142316005417,501,35,22.653087690722355,13.333123141531699
1.0959227645976575,0.6101362160165529,501,35,22.653087690722355,13.333123141531699
1.1020225711167988,0.6101301160886743,501,35,22.653087690722355,13.333123141531699
1.1081223166521486,0.6101240162217807,501,35,22.653087690722355,13.333123141531699
1.1142220012043227,0.6101179164158715,501,35,22.653087690722355,13.333123141531699
1.1203216247739345,0.6101118166709462,501,35,22.653087690722355,13.333123141531699
1.1264211873615986,0.610105716987004,501,35,22.653087690722355,13.333123141531699
1.132520688967928,0.6100996173640444,501,35,22.653087690722355,13.333123141531699
1.1386201295935368,0.6100935178020667,501,35,22.653087690722355,13.333123141531699
1.1447195092390372,0.6100874183010703,501,35,22.653087690722355,13.333123141531699
1.1508188279050422,0.6100813188610547,501,35,22.653087690722355,13.333123141531699
1.1569180855921644,0.6100752194820191,501,35,22.653087690722355,13.333123141531699
1.163017282301016,0.6100691201639631,501,35,22.653087690722355,13.333123141531699
1.1691164180322091,0.6100630209068859,501,35,22.653087690722355,13.333123141531699
1.175215492786356,0.610056921710787,501,35,22.653087690722355,13.333123141531699
1.1813145065640676,0.6100508225756657,501,35,22.653087690722355,13.333123141531699
1.187413459365956,0.6100447235015215,501,35,22.653087690722355,13.333123141531699
1.193512351192632,0.6100386244883537,501,35,22.653087690722355,13.333123141531699
1.1996111820447075,0.6100325255361617,501,35,22.653087690722355,13.333123141531699
1.2057099519227936,0.6100264266449449,501,35,22.653087690722355,13.333123141531699
1.2118086608275005,0.6100203278147027,501,35,22.653087690722355,13.333123141531699
1.21790730875944,0.6100142290454346,501,35,22.653087690722355,13.333123141531699
1.2240058957192224,0.6100081303371397,501,35,22.653087690722355,13.333123141531699
1.2301044217074584,0.6100020316898176,501,35,22.653087690722355,13.333123141531699
1.2362028867247583,0.6099959331034678,501,35,22.653087690722355,13.333123141531699
1.2423012907717332,0.6099898345780893,501,35,22.653087690722355,13.333123141531699
1.2483996338489933,0.609983736113682,501,35,22.653087690722355,13.333123141531699
1.2544979159571485,0.6099776377102448,501,35,22.653087690722355,13.333123141531699
1.2605961370968095,0.6099715393677774,501,35,22.653087690722355,13.333123141531699
1.2666942972685864,0.609965441086279,501,35,22.653087690722355,13.333123141531699
1.2727923964730896,0.6099593428657493,501,35,22.653087690722355,13.333123141531699
1.2788904347109287,0.6099532447061873,501,35,22.653087690722355,13.333123141531699
1.2849884119827142,0.6099471466075926,501,35,22.653087690722355,13.333123141531699
1.291086328289056,0.6099410485699646,501,35,22.653087690722355,13.333123141531699
1.2971841836305642,0.6099349505933026,501,35,22.653087690722355,13.333123141531699
1.3032819780078486,0.6099288526776061,501,35,22.653087690722355,13.333123141531699
1.3093797114215189,0.6099227548228744,501,35,22.653087690722355,13.333123141531699
1.315477383872185,0.6099166570291069,501,35,22.653087690722355,13.333123141531699
1.321574995360457,0.609910559296303,501,35,22.653087690722355,13.333123141531699
1.3276725458869443,0.6099044616244621,501,35,22.653087690722355,13.333123141531699
1.333770035452257,0.6098983640135835,501,35,22.653087690722355,13.333123141531699
1.3398674640570045,0.6098922664636669,501,35,22.653087690722355,13.333123141531699
1.345964831701797,0.6098861689747114,501,35,22.653087690722355,13.333123141531699
1.3520621383872433,0.6098800715467163,501,35,22.653087690722355,13.333123141531699
1.3581593841139539,0.6098739741796813,501,35,22.653087690722355,13.333123141531699
1.3642565688825379,0.6098678768736056,501,35,22.653087690722355,13.333123141531699
1.3703536926936053,0.6098617796284886,501,35,22.653087690722355,13.333123141531699
1.3764507555477656,0.6098556824443297,501,35,22.653087690722355,13.333123141531699
1.3825477574456284,0.6098495853211284,501,35,22.653087690722355,13.333123141531699
1.3886446983878031,0.609843488258884,501,35,22.653087690722355,13.333123141531699
1.3947415783748995,0.6098373912575958,501,35,22.653087690722355,13.333123141531699
1.4008383974075267,0.6098312943172634,501,35,22.653087690722355,13.333123141531699
1.4069351554862946,0.609825197437886,501,35,22.653087690722355,13.333123141531699
1.4130318526118126,0.609819100619463,501,35,22.653087690722355,13.333123141531699
1.4191284887846898,0.609813003861994,501,35,22.653087690722355,13.333123141531699
1.4252250640055362,0.6098069071654781,501,35,22.653087690722355,13.333123141531699
1.431321578274961,0.6098008105299149,501,35,22.653087690722355,13.333123141531699
1.4374180315935738,0.6097947139553037,501,35,22.653087690722355,13.333123141531699
1.4435144239619837,0.6097886174416439,501,35,22.653087690722355,13.333123141531699
