Vout,Iout,Irradiance,Temperature,MaxVoltage,MaxPower
0.007985623215161393,1.5971399999999998,1401,-5,19.732999849410614,31.127591386041242
0.023956721983752836,1.5971399999999998,1401,-5,19.732999849410614,31.127591386041242
0.039927496063912236,1.5971318546627846,1401,-5,19.732999849410614,31.127591386041242
0.05589788745015873,1.597115883564016,1401,-5,19.732999849410614,31.127591386041242
0.07186787718529486,1.5970999127907504,1401,-5,19.732999849410614,31.127591386041242
0.08783748389131438,1.5970839424009613,1401,-5,19.732999849410614,31.127591386041242
0.10380672475805905,1.5970679724128232,1401,-5,19.732999849410614,31.127591386041242
0.11977561565305704,1.5970520028077142,1401,-5,19.732999849410614,31.127591386041242
0.1357441712230867,1.5970360335684446,1401,-5,19.732999849410614,31.127591386041242
0.15171240498810312,1.5970200646791464,1401,-5,19.732999849410614,31.127591386041242
0.16768032942793742,1.5970040961251732,1401,-5,19.732999849410614,31.127591386041242
0.18364795606232587,1.5969881278930051,1401,-5,19.732999849410614,31.127591386041242
0.19961529552478088,1.5969721599701623,1401,-5,19.732999849410614,31.127591386041242
0.21558235763077835,1.5969561923451248,1401,-5,19.732999849410614,31.127591386041242
0.231549151440699,1.596940225007259,1401,-5,19.732999849410614,31.127591386041242
0.24751568531792625,1.5969242579467497,1401,-5,19.732999849410614,31.127591386041242
0.2634819669824745,1.5969082911545365,1401,-5,19.732999849410614,31.127591386041242
0.27944800356049093,1.5968923246222562,1401,-5,19.732999849410614,31.127591386041242
0.2954138016299483,1.596876358342188,1401,-5,19.732999849410614,31.127591386041242
0.311379367262823,1.5968603923072069,1401,-5,19.732999849410614,31.127591386041242
0.32734470606402644,1.596844426510734,1401,-5,19.732999849410614,31.127591386041242
0.3433098232073422,1.5968284609466978,1401,-5,19.732999849410614,31.127591386041242
0.3592747234685975,1.5968124956094931,1401,-5,19.732999849410614,31.127591386041242
0.3752394112562829,1.5967965304939464,1401,-5,19.732999849410614,31.127591386041242
0.3912038906398154,1.5967805655952816,1401,-5,19.732999849410614,31.127591386041242
0.4071681653756274,1.5967646009090906,1401,-5,19.732999849410614,31.127591386041242
0.4231322389312482,1.5967486364313035,1401,-5,19.732999849410614,31.127591386041242
0.4390961145075328,1.596732672158164,1401,-5,19.732999849410614,31.127591386041242
0.45505979505918004,1.5967167080862048,1401,-5,19.732999849410614,31.127591386041242
0.4710232833136726,1.596700744212225,1401,-5,19.732999849410614,31.127591386041242
0.4869865817887588,1.5966847805332698,1401,-5,19.732999849410614,31.127591386041242
0.5029496928085903,1.5966688170466117,1401,-5,19.732999849410614,31.127591386041242
0.5189126185186177,1.5966528537497329,1401,-5,19.732999849410614,31.127591386041242
0.5348753608993401,1.5966368906403094,1401,-5,19.732999849410614,31.127591386041242
0.5508379217789963,1.5966209277161958,1401,-5,19.732999849410614,31.127591386041242
0.5668003028452806,1.5966049649754113,1401,-5,19.732999849410614,31.127591386041242
0.5827625056561561,1.596589002416128,1401,-5,19.732999849410614,31.127591386041242
0.5987245316498362,1.596573040036658,1401,-5,19.732999849410614,31.127591386041242
0.6146863821539992,1.5965570778354434,1401,-5,19.732999849410614,31.127591386041242
0.6306480583942922,1.5965411158110459,1401,-5,19.732999849410614,31.127591386041242
0.6466095615021817,1.596525153962138,1401,-5,19.732999849410614,31.127591386041242
0.6625708925222006,1.5965091922874939,1401,-5,19.732999849410614,31.127591386041242
0.678532052418636,1.5964932307859823,1401,-5,19.732999849410614,31.127591386041242
0.6944930420817041,1.5964772694565583,1401,-5,19.732999849410614,31.127591386041242
0.7104538623332496,1.5964613082982582,1401,-5,19.732999849410614,31.127591386041242
0.7264145139320052,1.5964453473101912,1401,-5,19.732999849410614,31.127591386041242
0.7423749975784488,1.5964293864915358,1401,-5,19.732999849410614,31.127591386041242
0.7583353139192848,1.596413425841533,1401,-5,19.732999849410614,31.127591386041242
0.7742954635515825,1.5963974653594828,1401,-5,19.732999849410614,31.127591386041242
0.7902554470265939,1.5963815050447379,1401,-5,19.732999849410614,31.127591386041242
0.8062152648532794,1.5963655448967016,1401,-5,19.732999849410614,31.127591386041242
0.8221749175015626,1.5963495849148226,1401,-5,19.732999849410614,31.127591386041242
0.8381344054053325,1.596333625098592,1401,-5,19.732999849410614,31.127591386041242
0.8540937289652171,1.5963176654475397,1401,-5,19.732999849410614,31.127591386041242
0.870052888551142,1.5963017059612319,1401,-5,19.732999849410614,31.127591386041242
0.8860118845046929,1.596285746639268,1401,-5,19.732999849410614,31.127591386041242
0.9019707171412964,1.5962697874812781,1401,-5,19.732999849410614,31.127591386041242
0.9179293867522318,1.5962538284869203,1401,-5,19.732999849410614,31.127591386041242
0.9338878936064902,1.5962378696558797,1401,-5,19.732999849410614,31.127591386041242
0.9498462379524881,1.5962219109878648,1401,-5,19.732999849410614,31.127591386041242
0.9658044200196518,1.5962059524826062,1401,-5,19.732999849410614,31.127591386041242
0.981762440019878,1.5961899941398563,1401,-5,19.732999849410614,31.127591386041242
0.9977202981488819,1.5961740359593848,1401,-5,19.732999849410614,31.127591386041242
1.013677994587443,1.5961580779409805,1401,-5,19.732999849410614,31.127591386041242
1.0296355295025543,1.5961421200844472,1401,-5,19.732999849410614,31.127591386041242
1.0455929030484823,1.5961261623896046,1401,-5,19.732999849410614,31.127591386041242
1.0615501153677471,1.5961102048562852,1401,-5,19.732999849410614,31.127591386041242
1.0775071665920257,1.5960942474843351,1401,-5,19.732999849410614,31.127591386041242
1.0934640568429865,1.5960782902736115,1401,-5,19.732999849410614,31.127591386041242
1.1094207862330587,1.596062333223983,1401,-5,19.732999849410614,31.127591386041242
1.125377354866144,1.5960463763353279,1401,-5,19.732999849410614,31.127591386041242
1.1413337628382734,1.5960304196075334,1401,-5,19.732999849410614,31.127591386041242
1.1572900102382102,1.596014463040496,1401,-5,19.732999849410614,31.127591386041242
1.173246097148012,1.5959985066341196,1401,-5,19.732999849410614,31.127591386041242
1.1892020236435445,1.5959825503883152,1401,-5,19.732999849410614,31.127591386041242
1.2051577897949604,1.595966594303001,1401,-5,19.732999849410614,31.127591386041242
1.2211133956671352,1.5959506383781012,1401,-5,19.732999849410614,31.127591386041242
1.2370688413200777,1.5959346826135454,1401,-5,19.732999849410614,31.127591386041242
1.2530241268093012,1.5959187270092687,1401,-5,19.732999849410614,31.127591386041242
1.2689792521861694,1.5959027715652114,1401,-5,19.732999849410614,31.127591386041242
1.2849342174982188,1.5958868162813178,1401,-5,19.732999849410614,31.127591386041242
1.3008890227894496,1.5958708611575365,1401,-5,19.732999849410614,31.127591386041242
1.3168436681006,1.5958549061938199,1401,-5,19.732999849410614,31.127591386041242
1.3327981534693951,1.5958389513901243,1401,-5,19.732999849410614,31.127591386041242
1.348752478930782,1.5958229967464086,1401,-5,19.732999849410614,31.127591386041242
1.3647066445171403,1.5958070422626351,1401,-5,19.732999849410614,31.127591386041242
1.3806606502584808,1.5957910879387693,1401,-5,19.732999849410614,31.127591386041242
1.3966144961826295,1.5957751337747783,1401,-5,19.732999849410614,31.127591386041242
1.412568182315392,1.5957591797706325,1401,-5,19.732999849410614,31.127591386041242
1.4285217086807123,1.5957432259263038,1401,-5,19.732999849410614,31.127591386041242
1.4444750753008146,1.5957272722417664,1401,-5,19.732999849410614,31.127591386041242
1.460428282196336,1.5957113187169965,1401,-5,19.732999849410614,31.127591386041242
1.476381329386447,1.5956953653519717,1401,-5,19.732999849410614,31.127591386041242
1.4923342168889677,1.5956794121466715,1401,-5,19.732999849410614,31.127591386041242
1.5082869447204692,1.5956634591010768,1401,-5,19.732999849410614,31.127591386041242
1.5242395128963702,1.5956475062151696,1401,-5,19.732999849410614,31.127591386041242
1.5401919214310251,1.5956315534889334,1401,-5,19.732999849410614,31.127591386041242
1.5561441703378067,1.5956156009223528,1401,-5,19.732999849410614,31.127591386041242
1.5720962596291828,1.5955996485154134,1401,-5,19.732999849410614,31.127591386041242
1.5880481893167826,1.5955836962681018,1401,-5,19.732999849410614,31.127591386041242
1.603999959411465,1.5955677441804057,1401,-5,19.732999849410614,31.127591386041242
1.619951569923375,1.5955517922523135,1401,-5,19.732999849410614,31.127591386041242
1.6359030208619996,1.5955358404838138,1401,-5,19.732999849410614,31.127591386041242
1.651854312236219,1.5955198888748972,1401,-5,19.732999849410614,31.127591386041242
1.667805444054353,1.5955039374255537,1401,-5,19.732999849410614,31.127591386041242
1.6837564163242038,1.5954879861357747,1401,-5,19.732999849410614,31.127591386041242
1.6997072290530955,1.5954720350055518,1401,-5,19.732999849410614,31.127591386041242
1.7156578822479112,1.595456084034877,1401,-5,19.732999849410614,31.127591386041242
1.7316083759151277,1.5954401332237431,1401,-5,19.732999849410614,31.127591386041242
1.7475587100608463,1.5954241825721434,1401,-5,19.732999849410614,31.127591386041242
1.7635088846908207,1.5954082320800713,1401,-5,19.732999849410614,31.127591386041242
1.7794588998104848,1.5953922817475206,1401,-5,19.732999849410614,31.127591386041242
1.7954087554249776,1.5953763315744858,1401,-5,19.732999849410614,31.127591386041242
1.811358451539164,1.5953603815609612,1401,-5,19.732999849410614,31.127591386041242
1.8273079881576595,1.5953444317069416,1401,-5,19.732999849410614,31.127591386041242
1.8432573652848445,1.5953284820124225,1401,-5,19.732999849410614,31.127591386041242
1.859206582924887,1.595312532477399,1401,-5,19.732999849410614,31.127591386041242
1.875155641081756,1.5952965831018668,1401,-5,19.732999849410614,31.127591386041242
1.891104539759238,1.5952806338858216,1401,-5,19.732999849410614,31.127591386041242
1.9070532789609511,1.5952646848292598,1401,-5,19.732999849410614,31.127591386041242
1.9230018586903572,1.5952487359321772,1401,-5,19.732999849410614,31.127591386041242
1.9389502789507747,1.5952327871945704,1401,-5,19.732999849410614,31.127591386041242
1.9548985397453893,1.5952168386164358,1401,-5,19.732999849410614,31.127591386041242
1.9708466410772643,1.5952008901977703,1401,-5,19.732999849410614,31.127591386041242
1.9867945829493494,1.5951849419385706,1401,-5,19.732999849410614,31.127591386041242
2.0027423653644902,1.5951689938388336,1401,-5,19.732999849410614,31.127591386041242
2.0186899883254377,1.5951530458985563,1401,-5,19.732999849410614,31.127591386041242
2.03463745183485,1.595137098117736,1401,-5,19.732999849410614,31.127591386041242
2.0505847558953074,1.5951211504963698,1401,-5,19.732999849410614,31.127591386041242
2.066531900509313,1.595105203034455,1401,-5,19.732999849410614,31.127591386041242
2.0824788856792975,1.5950892557319893,1401,-5,19.732999849410614,31.127591386041242
2.0984257114076312,1.5950733085889701,1401,-5,19.732999849410614,31.127591386041242
2.114372377696621,1.595057361605395,1401,-5,19.732999849410614,31.127591386041242
2.1303188845485224,1.5950414147812613,1401,-5,19.732999849410614,31.127591386041242
2.146265231965536,1.595025468116567,1401,-5,19.732999849410614,31.127591386041242
2.1622114199498204,1.5950095216113098,1401,-5,19.732999849410614,31.127591386041242
2.1781574485034865,1.5949935752654874,1401,-5,19.732999849410614,31.127591386041242
2.1941033176286076,1.5949776290790978,1401,-5,19.732999849410614,31.127591386041242
2.210049027327219,1.5949616830521387,1401,-5,19.732999849410614,31.127591386041242
2.2259945776013232,1.5949457371846083,1401,-5,19.732999849410614,31.127591386041242
2.2419399684528907,1.5949297914765042,1401,-5,19.732999849410614,31.127591386041242
2.2578851998838636,1.5949138459278247,1401,-5,19.732999849410614,31.127591386041242
2.2738302718961556,1.5948979005385677,1401,-5,19.732999849410614,31.127591386041242
2.2897751844916567,1.5948819553087312,1401,-5,19.732999849410614,31.127591386041242
2.305719937672235,1.5948660102383136,1401,-5,19.732999849410614,31.127591386041242
2.3216645314397364,1.5948500653273125,1401,-5,19.732999849410614,31.127591386041242
2.337608965795986,1.5948341205757266,1401,-5,19.732999849410614,31.127591386041242
2.3535532407427953,1.5948181759835536,1401,-5,19.732999849410614,31.127591386041242
2.369497356281955,1.5948022315507917,1401,-5,19.732999849410614,31.127591386041242
2.385441312415241,1.5947862872774394,1401,-5,19.732999849410614,31.127591386041242
2.4013851091444183,1.5947703431634948,1401,-5,19.732999849410614,31.127591386041242
2.417328746471235,1.594754399208956,1401,-5,19.732999849410614,31.127591386041242
2.433272224397429,1.594738455413821,1401,-5,19.732999849410614,31.127591386041242
2.4492155429247275,1.5947225117780885,1401,-5,19.732999849410614,31.127591386041242
2.465158702054847,1.5947065683017567,1401,-5,19.732999849410614,31.127591386041242
2.4811017017894943,1.5946906249848238,1401,-5,19.732999849410614,31.127591386041242
2.4970445421303675,1.594674681827288,1401,-5,19.732999849410614,31.127591386041242
2.5129872230791563,1.5946587388291478,1401,-5,19.732999849410614,31.127591386041242
2.528929744637544,1.5946427959904013,1401,-5,19.732999849410614,31.127591386041242
2.5448721068072055,1.5946268533110468,1401,-5,19.732999849410614,31.127591386041242
2.5608143095898113,1.5946109107910826,1401,-5,19.732999849410614,31.127591386041242
2.576756352987025,1.5945949684305072,1401,-5,19.732999849410614,31.127591386041242
2.592698237000504,1.594579026229319,1401,-5,19.732999849410614,31.127591386041242
2.6086399616319023,1.594563084187516,1401,-5,19.732999849410614,31.127591386041242
2.6245815268828676,1.5945471423050968,1401,-5,19.732999849410614,31.127591386041242
2.640522932755045,1.5945312005820595,1401,-5,19.732999849410614,31.127591386041242
2.6564641792500736,1.5945152590184026,1401,-5,19.732999849410614,31.127591386041242
2.6724052663695916,1.5944993176141247,1401,-5,19.732999849410614,31.127591386041242
2.6883461941152325,1.5944833763692239,1401,-5,19.732999849410614,31.127591386041242
2.704286962488626,1.5944674352836985,1401,-5,19.732999849410614,31.127591386041242
2.720227571491399,1.594451494357547,1401,-5,19.732999849410614,31.127591386041242
2.736168021125177,1.5944355535907677,1401,-5,19.732999849410614,31.127591386041242
2.7521083113915825,1.594419612983359,1401,-5,19.732999849410614,31.127591386041242
2.768048442292235,1.5944036725353192,1401,-5,19.732999849410614,31.127591386041242
2.783988413828753,1.5943877322466469,1401,-5,19.732999849410614,31.127591386041242
2.7999282260027525,1.5943717921173404,1401,-5,19.732999849410614,31.127591386041242
2.815867878815848,1.5943558521473977,1401,-5,19.732999849410614,31.127591386041242
2.8318073722696524,1.5943399123368178,1401,-5,19.732999849410614,31.127591386041242
2.8477467063657755,1.5943239726855987,1401,-5,19.732999849410614,31.127591386041242
2.8636858811058286,1.594308033193739,1401,-5,19.732999849410614,31.127591386041242
2.8796248964914195,1.5942920938612368,1401,-5,19.732999849410614,31.127591386041242
2.8955637525241555,1.5942761546880906,1401,-5,19.732999849410614,31.127591386041242
2.9115024492056434,1.5942602156742989,1401,-5,19.732999849410614,31.127591386041242
2.927440986537488,1.5942442768198601,1401,-5,19.732999849410614,31.127591386041242
2.943379364521294,1.5942283381247726,1401,-5,19.732999849410614,31.127591386041242
2.959317583158664,1.5942123995890347,1401,-5,19.732999849410614,31.127591386041242
2.9752556424512018,1.5941964612126447,1401,-5,19.732999849410614,31.127591386041242
2.9911935424005063,1.5941805229956012,1401,-5,19.732999849410614,31.127591386041242
3.0071312830081816,1.5941645849379025,1401,-5,19.732999849410614,31.127591386041242
3.0230688642758277,1.594148647039547,1401,-5,19.732999849410614,31.127591386041242
3.0390062862050433,1.594132709300533,1401,-5,19.732999849410614,31.127591386041242
3.0549435487974286,1.5941167717208593,1401,-5,19.732999849410614,31.127591386041242
3.070880652054583,1.5941008343005239,1401,-5,19.732999849410614,31.127591386041242
3.0868175959781032,1.5940848970395252,1401,-5,19.732999849410614,31.127591386041242
3.1027543805695883,1.5940689599378617,1401,-5,19.732999849410614,31.127591386041242
3.118691005830636,1.5940530229955319,1401,-5,19.732999849410614,31.127591386041242
3.134627471762844,1.5940370862125341,1401,-5,19.732999849410614,31.127591386041242
3.150563778367808,1.5940211495888668,1401,-5,19.732999849410614,31.127591386041242
3.166499925647125,1.5940052131245284,1401,-5,19.732999849410614,31.127591386041242
3.182435913602391,1.593989276819517,1401,-5,19.732999849410614,31.127591386041242
3.1983717422352025,1.5939733406738315,1401,-5,19.732999849410614,31.127591386041242
3.214307411547154,1.5939574046874696,1401,-5,19.732999849410614,31.127591386041242
3.2302429215398423,1.5939414688604305,1401,-5,19.732999849410614,31.127591386041242
3.2461782722148618,1.5939255331927122,1401,-5,19.732999849410614,31.127591386041242
3.2621134635738076,1.593909597684313,1401,-5,19.732999849410614,31.127591386041242
3.2780484956182745,1.5938936623352316,1401,-5,19.732999849410614,31.127591386041242
3.2939833683498576,1.5938777271454663,1401,-5,19.732999849410614,31.127591386041242
3.3099180817701512,1.5938617921150153,1401,-5,19.732999849410614,31.127591386041242
3.32585263588075,1.5938458572438772,1401,-5,19.732999849410614,31.127591386041242
3.341787030683247,1.5938299225320505,1401,-5,19.732999849410614,31.127591386041242
3.357721266179238,1.5938139879795332,1401,-5,19.732999849410614,31.127591386041242
3.373655342370316,1.5937980535863243,1401,-5,19.732999849410614,31.127591386041242
3.3895892592580754,1.5937821193524218,1401,-5,19.732999849410614,31.127591386041242
3.4055230168441097,1.5937661852778242,1401,-5,19.732999849410614,31.127591386041242
3.4214566151300123,1.5937502513625297,1401,-5,19.732999849410614,31.127591386041242
3.437390054117377,1.593734317606537,1401,-5,19.732999849410614,31.127591386041242
3.453323333807798,1.5937183840098446,1401,-5,19.732999849410614,31.127591386041242
3.469256454202867,1.5937024505724506,1401,-5,19.732999849410614,31.127591386041242
3.4851894153041774,1.5936865172943535,1401,-5,19.732999849410614,31.127591386041242
3.5011222171133243,1.5936705841755519,1401,-5,19.732999849410614,31.127591386041242
3.517054859631899,1.5936546512160439,1401,-5,19.732999849410614,31.127591386041242
3.532987342861496,1.593638718415828,1401,-5,19.732999849410614,31.127591386041242
3.548919666803708,1.5936227857749028,1401,-5,19.732999849410614,31.127591386041242
3.564851831460128,1.5936068532932663,1401,-5,19.732999849410614,31.127591386041242
3.5807838368323472,1.5935909209709176,1401,-5,19.732999849410614,31.127591386041242
3.596715682921961,1.5935749888078543,1401,-5,19.732999849410614,31.127591386041242
3.6126473697305608,1.5935590568040754,1401,-5,19.732999849410614,31.127591386041242
3.62857889725974,1.5935431249595788,1401,-5,19.732999849410614,31.127591386041242
3.644510265511091,1.5935271932743635,1401,-5,19.732999849410614,31.127591386041242
3.6604414744862064,1.5935112617484275,1401,-5,19.732999849410614,31.127591386041242
3.6763725241866796,1.5934953303817694,1401,-5,19.732999849410614,31.127591386041242
3.692303414614103,1.5934793991743874,1401,-5,19.732999849410614,31.127591386041242
3.708234145770068,1.59346346812628,1401,-5,19.732999849410614,31.127591386041242
3.7241647176561687,1.5934475372374457,1401,-5,19.732999849410614,31.127591386041242
3.740095130273997,1.5934316065078828,1401,-5,19.732999849410614,31.127591386041242
