Vout,Iout,Irradiance,Temperature,MaxVoltage,MaxPower
0.00550544706300901,1.1011,1001,-25,18.24779034598035,19.760053227630053
0.01651623938810013,1.1011,1001,-25,18.24779034598035,19.760053227630053
0.02752680786654505,1.101094384442937,1001,-25,18.24779034598035,19.760053227630053
0.03853711250821455,1.1010833736506118,1001,-25,18.24779034598035,19.760053227630053
0.04954714024364061,1.101072363082695,1001,-25,18.24779034598035,19.760053227630053
0.06055690391119517,1.1010613527791544,1001,-25,18.24779034598035,19.760053227630053
0.07156641536189615,1.10105034275252,1001,-25,18.24779034598035,19.760053227630053
0.08257568553513224,1.1010393329899535,1001,-25,18.24779034598035,19.760053227630053
0.09358472452868298,1.1010283234796039,1001,-25,18.24779034598035,19.760053227630053
0.10459354166347365,1.1010173142105315,1001,-25,18.24779034598035,19.760053227630053
0.11560214554334741,1.1010063051726389,1001,-25,18.24779034598035,19.760053227630053
0.12661054411023895,1.100995296356605,1001,-25,18.24779034598035,19.760053227630053
0.13761874469510266,1.100984287753826,1001,-25,18.24779034598035,19.760053227630053
0.14862675406492232,1.10097327935636,1001,-25,18.24779034598035,19.760053227630053
0.1596345784661042,1.100962271156876,1001,-25,18.24779034598035,19.760053227630053
0.1706422236645307,1.1009512631486071,1001,-25,18.24779034598035,19.760053227630053
0.18164969498253294,1.1009402553253067,1001,-25,18.24779034598035,19.760053227630053
0.1926569973330181,1.1009292476812091,1001,-25,18.24779034598035,19.760053227630053
0.2036641352509712,1.1009182402109918,1001,-25,18.24779034598035,19.760053227630053
0.21467111292253305,1.1009072329097422,1001,-25,18.24779034598035,19.760053227630053
0.22567793421184085,1.100896225772925,1001,-25,18.24779034598035,19.760053227630053
0.23668460268580366,1.100885218796354,1001,-25,18.24779034598035,19.760053227630053
0.24769112163697155,1.1008742119761656,1001,-25,18.24779034598035,19.760053227630053
0.25869749410464526,1.1008632053087923,1001,-25,18.24779034598035,19.760053227630053
0.2697037228943616,1.1008521987909419,1001,-25,18.24779034598035,19.760053227630053
0.2807098105958796,1.100841192419575,1001,-25,18.24779034598035,19.760053227630053
0.29171575959978285,1.1008301861918857,1001,-25,18.24779034598035,19.760053227630053
0.30272157211280426,1.100819180105285,1001,-25,18.24779034598035,19.760053227630053
0.3137272501719718,1.1008081741573816,1001,-25,18.24779034598035,19.760053227630053
0.324732795657666,1.1007971683459692,1001,-25,18.24779034598035,19.760053227630053
0.3357382103056727,1.1007861626690105,1001,-25,18.24779034598035,19.760053227630053
0.3467434957183081,1.1007751571246254,1001,-25,18.24779034598035,19.760053227630053
0.3577486533746884,1.100764151711078,1001,-25,18.24779034598035,19.760053227630053
0.368753684640209,1.100753146426766,1001,-25,18.24779034598035,19.760053227630053
0.37975859077529384,1.10074214127021,1001,-25,18.24779034598035,19.760053227630053
0.390763372943473,1.1007311362400451,1001,-25,18.24779034598035,19.760053227630053
0.40176803221883706,1.1007201313350106,1001,-25,18.24779034598035,19.760053227630053
0.41277256959291897,1.1007091265539428,1001,-25,18.24779034598035,19.760053227630053
0.42377698598104646,1.100698121895768,1001,-25,18.24779034598035,19.760053227630053
0.4347812822282049,1.1006871173594943,1001,-25,18.24779034598035,19.760053227630053
0.44578545911444983,1.1006761129442066,1001,-25,18.24779034598035,19.760053227630053
0.4567895173599028,1.10066510864906,1001,-25,18.24779034598035,19.760053227630053
0.4677934576293625,1.1006541044732743,1001,-25,18.24779034598035,19.760053227630053
0.4787972805365619,1.1006431004161292,1001,-25,18.24779034598035,19.760053227630053
0.48980098664809674,1.1006320964769603,1001,-25,18.24779034598035,19.760053227630053
0.5008045764870525,1.1006210926551534,1001,-25,18.24779034598035,19.760053227630053
0.5118080505363525,1.1006100889501422,1001,-25,18.24779034598035,19.760053227630053
0.5228114092418478,1.1005990853614036,1001,-25,18.24779034598035,19.760053227630053
0.5338146530151695,1.1005880818884548,1001,-25,18.24779034598035,19.760053227630053
0.5448177822363618,1.1005770785308495,1001,-25,18.24779034598035,19.760053227630053
0.5558207972563121,1.1005660752881765,1001,-25,18.24779034598035,19.760053227630053
0.5668236983989952,1.1005550721600557,1001,-25,18.24779034598035,19.760053227630053
0.5778264859635425,1.1005440691461361,1001,-25,18.24779034598035,19.760053227630053
0.5888291602261548,1.1005330662460937,1001,-25,18.24779034598035,19.760053227630053
0.5998317214418667,1.1005220634596296,1001,-25,18.24779034598035,19.760053227630053
0.6108341698461738,1.1005110607864672,1001,-25,18.24779034598035,19.760053227630053
0.6218365056565374,1.1005000582263518,1001,-25,18.24779034598035,19.760053227630053
0.6328387290737713,1.1004890557790477,1001,-25,18.24779034598035,19.760053227630053
0.6438408402833232,1.1004780534443377,1001,-25,18.24779034598035,19.760053227630053
0.6548428394564567,1.1004670512220207,1001,-25,18.24779034598035,19.760053227630053
0.6658447267513425,1.1004560491119113,1001,-25,18.24779034598035,19.760053227630053
0.6768465023140664,1.1004450471138383,1001,-25,18.24779034598035,19.760053227630053
0.6878481662795585,1.1004340452276438,1001,-25,18.24779034598035,19.760053227630053
0.6988497187724517,1.1004230434531812,1001,-25,18.24779034598035,19.760053227630053
0.7098511599078744,1.1004120417903158,1001,-25,18.24779034598035,19.760053227630053
0.7208524897921809,1.1004010402389233,1001,-25,18.24779034598035,19.760053227630053
0.7318537085236274,1.1003900387988879,1001,-25,18.24779034598035,19.760053227630053
0.7428548161929946,1.1003790374701037,1001,-25,18.24779034598035,19.760053227630053
0.7538558128841631,1.1003680362524724,1001,-25,18.24779034598035,19.760053227630053
0.7648566986746439,1.1003570351459033,1001,-25,18.24779034598035,19.760053227630053
0.7758574736360693,1.1003460341503122,1001,-25,18.24779034598035,19.760053227630053
0.7868581378346441,1.1003350332656219,1001,-25,18.24779034598035,19.760053227630053
0.7978586913315638,1.1003240324917605,1001,-25,18.24779034598035,19.760053227630053
0.8088591341834007,1.100313031828662,1001,-25,18.24779034598035,19.760053227630053
0.8198594664424583,1.1003020312762652,1001,-25,18.24779034598035,19.760053227630053
0.8308596881571005,1.1002910308345133,1001,-25,18.24779034598035,19.760053227630053
0.8418597993720549,1.1002800305033544,1001,-25,18.24779034598035,19.760053227630053
0.8528598001286917,1.1002690302827398,1001,-25,18.24779034598035,19.760053227630053
0.863859690465283,1.1002580301726248,1001,-25,18.24779034598035,19.760053227630053
0.8748594704172409,1.1002470301729683,1001,-25,18.24779034598035,19.760053227630053
0.8858591400173372,1.1002360302837317,1001,-25,18.24779034598035,19.760053227630053
0.8968586992959064,1.1002250305048797,1001,-25,18.24779034598035,19.760053227630053
0.9078581482810345,1.1002140308363797,1001,-25,18.24779034598035,19.760053227630053
0.9188574869987304,1.100203031278201,1001,-25,18.24779034598035,19.760053227630053
0.9298567154730867,1.1001920318303158,1001,-25,18.24779034598035,19.760053227630053
0.9408558337264264,1.1001810324926982,1001,-25,18.24779034598035,19.760053227630053
0.9518548417794404,1.1001700332653237,1001,-25,18.24779034598035,19.760053227630053
0.9628537396513112,1.1001590341481704,1001,-25,18.24779034598035,19.760053227630053
0.9738525273598306,1.1001480351412172,1001,-25,18.24779034598035,19.760053227630053
0.984851204921506,1.1001370362444451,1001,-25,18.24779034598035,19.760053227630053
0.9958497723516591,1.1001260374578365,1001,-25,18.24779034598035,19.760053227630053
1.0068482296645171,1.1001150387813747,1001,-25,18.24779034598035,19.760053227630053
1.0178465768732978,1.1001040402150446,1001,-25,18.24779034598035,19.760053227630053
1.0288448139902857,1.1000930417588315,1001,-25,18.24779034598035,19.760053227630053
1.0398429410269052,1.1000820434127228,1001,-25,18.24779034598035,19.760053227630053
1.0508409579937863,1.1000710451767055,1001,-25,18.24779034598035,19.760053227630053
1.0618388649008255,1.1000600470507687,1001,-25,18.24779034598035,19.760053227630053
1.0728366617572422,1.1000490490349017,1001,-25,18.24779034598035,19.760053227630053
1.0838343485716317,1.1000380511290944,1001,-25,18.24779034598035,19.760053227630053
1.0948319253520118,1.1000270533333378,1001,-25,18.24779034598035,19.760053227630053
1.1058293921058686,1.1000160556476233,1001,-25,18.24779034598035,19.760053227630053
1.1168267488401964,1.1000050580719427,1001,-25,18.24779034598035,19.760053227630053
1.1278239955615357,1.0999940606062886,1001,-25,18.24779034598035,19.760053227630053
1.138821132276009,1.099983063250654,1001,-25,18.24779034598035,19.760053227630053
1.149818158989351,1.0999720660050323,1001,-25,18.24779034598035,19.760053227630053
1.1608150757069415,1.0999610688694177,1001,-25,18.24779034598035,19.760053227630053
1.17181188243383,1.099950071843804,1001,-25,18.24779034598035,19.760053227630053
1.1828085791747616,1.099939074928186,1001,-25,18.24779034598035,19.760053227630053
1.193805165934202,1.0999280781225589,1001,-25,18.24779034598035,19.760053227630053
1.2048016427163568,1.0999170814269177,1001,-25,18.24779034598035,19.760053227630053
1.215798009525193,1.0999060848412578,1001,-25,18.24779034598035,19.760053227630053
1.2267942663644569,1.0998950883655754,1001,-25,18.24779034598035,19.760053227630053
1.2377904132376913,1.0998840919998663,1001,-25,18.24779034598035,19.760053227630053
1.2487864501482506,1.0998730957441267,1001,-25,18.24779034598035,19.760053227630053
1.2597823770993162,1.099862099598353,1001,-25,18.24779034598035,19.760053227630053
1.2707781940939087,1.0998511035625422,1001,-25,18.24779034598035,19.760053227630053
1.2817739011349012,1.0998401076366906,1001,-25,18.24779034598035,19.760053227630053
1.2927694982250302,1.0998291118207957,1001,-25,18.24779034598035,19.760053227630053
1.303764985366906,1.0998181161148544,1001,-25,18.24779034598035,19.760053227630053
1.3147603625630233,1.0998071205188638,1001,-25,18.24779034598035,19.760053227630053
1.325755629815768,1.0997961250328214,1001,-25,18.24779034598035,19.760053227630053
1.3367507871274287,1.099785129656725,1001,-25,18.24779034598035,19.760053227630053
1.3477458345002011,1.0997741343905716,1001,-25,18.24779034598035,19.760053227630053
1.3587407719361972,1.0997631392343596,1001,-25,18.24779034598035,19.760053227630053
1.3697355994374512,1.0997521441880864,1001,-25,18.24779034598035,19.760053227630053
1.3807303170059249,1.09974114925175,1001,-25,18.24779034598035,19.760053227630053
1.391724924643514,1.0997301544253482,1001,-25,18.24779034598035,19.760053227630053
1.4027194223520518,1.0997191597088791,1001,-25,18.24779034598035,19.760053227630053
1.413713810133317,1.099708165102341,1001,-25,18.24779034598035,19.760053227630053
1.424708087989035,1.099697170605732,1001,-25,18.24779034598035,19.760053227630053
1.4357022559208819,1.0996861762190502,1001,-25,18.24779034598035,19.760053227630053
1.4466963139304916,1.0996751819422939,1001,-25,18.24779034598035,19.760053227630053
1.4576902620194552,1.0996641877754614,1001,-25,18.24779034598035,19.760053227630053
1.4686841001893265,1.0996531937185512,1001,-25,18.24779034598035,19.760053227630053
1.4796778284416239,1.0996421997715617,1001,-25,18.24779034598035,19.760053227630053
1.4906714467778341,1.0996312059344913,1001,-25,18.24779034598035,19.760053227630053
1.501664955199414,1.0996202122073384,1001,-25,18.24779034598035,19.760053227630053
1.512658353707792,1.0996092185901016,1001,-25,18.24779034598035,19.760053227630053
1.5236516423043713,1.0995982250827794,1001,-25,18.24779034598035,19.760053227630053
1.534644820990533,1.0995872316853703,1001,-25,18.24779034598035,19.760053227630053
1.5456378897676355,1.099576238397873,1001,-25,18.24779034598035,19.760053227630053
1.556630848637017,1.0995652452202862,1001,-25,18.24779034598035,19.760053227630053
1.5676236975999973,1.0995542521526085,1001,-25,18.24779034598035,19.760053227630053
1.5786164366578799,1.0995432591948384,1001,-25,18.24779034598035,19.760053227630053
1.5896090658119522,1.0995322663469747,1001,-25,18.24779034598035,19.760053227630053
1.6006015850634865,1.099521273609016,1001,-25,18.24779034598035,19.760053227630053
1.611593994413742,1.0995102809809614,1001,-25,18.24779034598035,19.760053227630053
1.6225862938639666,1.0994992884628092,1001,-25,18.24779034598035,19.760053227630053
1.633578483415395,1.0994882960545582,1001,-25,18.24779034598035,19.760053227630053
1.6445705630692524,1.0994773037562071,1001,-25,18.24779034598035,19.760053227630053
1.6555625328267545,1.099466311567755,1001,-25,18.24779034598035,19.760053227630053
1.666554392689107,1.0994553194892003,1001,-25,18.24779034598035,19.760053227630053
1.6775461426575085,1.099444327520542,1001,-25,18.24779034598035,19.760053227630053
1.6885377827331491,1.099433335661779,1001,-25,18.24779034598035,19.760053227630053
1.699529312917212,1.0994223439129096,1001,-25,18.24779034598035,19.760053227630053
1.7105207332108745,1.0994113522739333,1001,-25,18.24779034598035,19.760053227630053
1.721512043615307,1.0994003607448484,1001,-25,18.24779034598035,19.760053227630053
1.7325032441316748,1.0993893693256538,1001,-25,18.24779034598035,19.760053227630053
1.7434943347611376,1.0993783780163486,1001,-25,18.24779034598035,19.760053227630053
1.7544853155048514,1.0993673868169314,1001,-25,18.24779034598035,19.760053227630053
1.7654761863639665,1.099356395727401,1001,-25,18.24779034598035,19.760053227630053
1.7764669473396302,1.0993454047477564,1001,-25,18.24779034598035,19.760053227630053
1.7874575984329855,1.0993344138779964,1001,-25,18.24779034598035,19.760053227630053
1.7984481396451726,1.09932342311812,1001,-25,18.24779034598035,19.760053227630053
1.809438570977327,1.0993124324681256,1001,-25,18.24779034598035,19.760053227630053
1.8204288924305838,1.0993014419280125,1001,-25,18.24779034598035,19.760053227630053
1.831419104006073,1.0992904514977795,1001,-25,18.24779034598035,19.760053227630053
1.8424092057049228,1.0992794611774253,1001,-25,18.24779034598035,19.760053227630053
1.8533991975282598,1.0992684709669487,1001,-25,18.24779034598035,19.760053227630053
1.8643890794772078,1.099257480866349,1001,-25,18.24779034598035,19.760053227630053
1.8753788515528893,1.0992464908756245,1001,-25,18.24779034598035,19.760053227630053
1.8863685137564234,1.0992355009947747,1001,-25,18.24779034598035,19.760053227630053
1.8973580660889298,1.099224511223798,1001,-25,18.24779034598035,19.760053227630053
1.908347508551524,1.0992135215626935,1001,-25,18.24779034598035,19.760053227630053
1.9193368411453229,1.09920253201146,1001,-25,18.24779034598035,19.760053227630053
1.9303260638714395,1.0991915425700962,1001,-25,18.24779034598035,19.760053227630053
1.9413151767309882,1.0991805532386014,1001,-25,18.24779034598035,19.760053227630053
1.9523041797250797,1.0991695640169743,1001,-25,18.24779034598035,19.760053227630053
1.963293072854825,1.0991585749052137,1001,-25,18.24779034598035,19.760053227630053
1.9742818561213342,1.0991475859033184,1001,-25,18.24779034598035,19.760053227630053
1.9852705295257158,1.0991365970112876,1001,-25,18.24779034598035,19.760053227630053
1.9962590930690787,1.09912560822912,1001,-25,18.24779034598035,19.760053227630053
2.0072475467525295,1.0991146195568144,1001,-25,18.24779034598035,19.760053227630053
2.018235890577175,1.09910363099437,1001,-25,18.24779034598035,19.760053227630053
2.0292241245441214,1.0990926425417855,1001,-25,18.24779034598035,19.760053227630053
2.0402122486544734,1.0990816541990598,1001,-25,18.24779034598035,19.760053227630053
2.051200262909336,1.0990706659661915,1001,-25,18.24779034598035,19.760053227630053
2.0621881673098152,1.09905967784318,1001,-25,18.24779034598035,19.760053227630053
2.0731759618570127,1.099048689830024,1001,-25,18.24779034598035,19.760053227630053
2.0841636465520326,1.0990377019267223,1001,-25,18.24779034598035,19.760053227630053
2.0951512213959784,1.099026714133274,1001,-25,18.24779034598035,19.760053227630053
2.106138686389953,1.0990157264496778,1001,-25,18.24779034598035,19.760053227630053
2.1171260415350575,1.0990047388759325,1001,-25,18.24779034598035,19.760053227630053
2.1281132868323938,1.0989937514120374,1001,-25,18.24779034598035,19.760053227630053
2.139100422283065,1.098982764057991,1001,-25,18.24779034598035,19.760053227630053
2.1500874478881715,1.0989717768137923,1001,-25,18.24779034598035,19.760053227630053
2.1610743636488143,1.0989607896794404,1001,-25,18.24779034598035,19.760053227630053
2.172061169566095,1.098949802654934,1001,-25,18.24779034598035,19.760053227630053
2.1830478656411136,1.0989388157402722,1001,-25,18.24779034598035,19.760053227630053
2.194034451874972,1.0989278289354536,1001,-25,18.24779034598035,19.760053227630053
2.2050209282687683,1.0989168422404774,1001,-25,18.24779034598035,19.760053227630053
2.2160072948236036,1.0989058556553422,1001,-25,18.24779034598035,19.760053227630053
2.226993551540578,1.098894869180047,1001,-25,18.24779034598035,19.760053227630053
2.237979698420791,1.0988838828145908,1001,-25,18.24779034598035,19.760053227630053
2.2489657354653434,1.0988728965589725,1001,-25,18.24779034598035,19.760053227630053
2.259951662675333,1.098861910413191,1001,-25,18.24779034598035,19.760053227630053
2.27093748005186,1.098850924377245,1001,-25,18.24779034598035,19.760053227630053
2.281923187596023,1.0988399384511336,1001,-25,18.24779034598035,19.760053227630053
2.2929087853089234,1.0988289526348556,1001,-25,18.24779034598035,19.760053227630053
2.3038942731916574,1.0988179669284102,1001,-25,18.24779034598035,19.760053227630053
2.3148796512453256,1.0988069813317958,1001,-25,18.24779034598035,19.760053227630053
2.3258649194710266,1.0987959958450115,1001,-25,18.24779034598035,19.760053227630053
2.33685007786986,1.0987850104680565,1001,-25,18.24779034598035,19.760053227630053
2.3478351264429227,1.0987740252009293,1001,-25,18.24779034598035,19.760053227630053
2.3588200651913156,1.098763040043629,1001,-25,18.24779034598035,19.760053227630053
2.369804894116136,1.0987520549961545,1001,-25,18.24779034598035,19.760053227630053
2.3807896132184823,1.0987410700585047,1001,-25,18.24779034598035,19.760053227630053
2.3917742224994534,1.0987300852306783,1001,-25,18.24779034598035,19.760053227630053
2.402758721960148,1.0987191005126744,1001,-25,18.24779034598035,19.760053227630053
2.413743111601665,1.098708115904492,1001,-25,18.24779034598035,19.760053227630053
2.424727391425101,1.0986971314061298,1001,-25,18.24779034598035,19.760053227630053
2.4357115614315568,1.0986861470175868,1001,-25,18.24779034598035,19.760053227630053
2.4466956216221276,1.0986751627388618,1001,-25,18.24779034598035,19.760053227630053
2.4576795719979136,1.0986641785699538,1001,-25,18.24779034598035,19.760053227630053
2.4686634125600135,1.0986531945108615,1001,-25,18.24779034598035,19.760053227630053
2.4796471433095237,1.0986422105615843,1001,-25,18.24779034598035,19.760053227630053
2.490630764247544,1.0986312267221205,1001,-25,18.24779034598035,19.760053227630053
2.5016142753751716,1.0986202429924694,1001,-25,18.24779034598035,19.760053227630053
2.512597676693505,1.0986092593726298,1001,-25,18.24779034598035,19.760053227630053
2.5235809682036416,1.0985982758626005,1001,-25,18.24779034598035,19.760053227630053
2.534564149906681,1.0985872924623805,1001,-25,18.24779034598035,19.760053227630053
2.5455472218037185,1.0985763091719687,1001,-25,18.24779034598035,19.760053227630053
2.556530183895855,1.0985653259913641,1001,-25,18.24779034598035,19.760053227630053
2.5675130361841862,1.0985543429205653,1001,-25,18.24779034598035,19.760053227630053
2.578495778669811,1.0985433599595715,1001,-25,18.24779034598035,19.760053227630053
