Vout,Iout,Irradiance,Temperature,MaxVoltage,MaxPower
0.010805896097152913,2.1612,1801,25,21.937935481830703,46.93192687013008
0.03241748848021252,2.1612,1801,25,21.937935481830703,46.93192687013008
0.05402864150501968,2.161188977983903,1801,25,21.937935481830703,46.93192687013008
0.07563927668036807,2.1611673663915196,1801,25,21.937935481830703,46.93192687013008
0.09724936835396975,2.1611457552395974,1801,25,21.937935481830703,46.93192687013008
0.11885894172452545,2.161124144606583,1801,25,21.937935481830703,46.93192687013008
0.1404680200527926,2.1611025345170707,1801,25,21.937935481830703,46.93192687013008
0.16207662481021504,2.161080924945861,1801,25,21.937935481830703,46.93192687013008
0.18368477581635612,2.161059315869694,1801,25,21.937935481830703,46.93192687013008
0.20529249136599695,2.161037707267097,1801,25,21.937935481830703,46.93192687013008
0.22689978834645574,2.161016099118252,1801,25,21.937935481830703,46.93192687013008
0.24850668234587994,2.160994491404863,1801,25,21.937935481830703,46.93192687013008
0.2701131877532066,2.1609728841100435,1801,25,21.937935481830703,46.93192687013008
0.29171931785043154,2.160951277218205,1801,25,21.937935481830703,46.93192687013008
0.313325084897779,2.1609296707149586,1801,25,21.937935481830703,46.93192687013008
0.3349305002123184,2.160908064587022,1801,25,21.937935481830703,46.93192687013008
0.35653557424053234,2.160886458822135,1801,25,21.937935481830703,46.93192687013008
0.3781403166253008,2.1608648534089814,1801,25,21.937935481830703,46.93192687013008
0.39974473626773127,2.1608432483371134,1801,25,21.937935481830703,46.93192687013008
0.42134884138423256,2.1608216435968894,1801,25,21.937935481830703,46.93192687013008
0.4429526395591959,2.1608000391794073,1801,25,21.937935481830703,46.93192687013008
0.4645561377936236,2.1607784350764514,1801,25,21.937935481830703,46.93192687013008
0.48615934255001636,2.160756831280437,1801,25,21.937935481830703,46.93192687013008
0.5077622597938057,2.1607352277843628,1801,25,21.937935481830703,46.93192687013008
0.5293648950315997,2.160713624581767,1801,25,21.937935481830703,46.93192687013008
0.5509672533464856,2.1606920216666836,1801,25,21.937935481830703,46.93192687013008
0.5725693394306157,2.160670419033606,1801,25,21.937935481830703,46.93192687013008
0.5941711576152873,2.1606488166774516,1801,25,21.937935481830703,46.93192687013008
0.6157727118987064,2.1606272145935277,1801,25,21.937935481830703,46.93192687013008
0.6373740059716175,2.160605612777503,1801,25,21.937935481830703,46.93192687013008
0.6589750432409591,2.16058401122538,1801,25,21.937935481830703,46.93192687013008
0.6805758268517007,2.1605624099334673,1801,25,21.937935481830703,46.93192687013008
0.7021763597069991,2.1605408088983578,1801,25,21.937935481830703,46.93192687013008
0.7237766444868036,2.160519208116907,1801,25,21.937935481830703,46.93192687013008
0.7453766836650304,2.160497607586212,1801,25,21.937935481830703,46.93192687013008
0.7669764795254143,2.1604760073035925,1801,25,21.937935481830703,46.93192687013008
0.7885760341761425,2.1604544072665743,1801,25,21.937935481830703,46.93192687013008
0.8101753495633608,2.160432807472874,1801,25,21.937935481830703,46.93192687013008
0.8317744274836414,2.160411207920383,1801,25,21.937935481830703,46.93192687013008
0.8533732695954922,2.160389608607156,1801,25,21.937935481830703,46.93192687013008
0.8749718774299782,2.1603680095313957,1801,25,21.937935481830703,46.93192687013008
0.8965702524005286,2.1603464106914436,1801,25,21.937935481830703,46.93192687013008
0.9181683958119867,2.160324812085769,1801,25,21.937935481830703,46.93192687013008
0.9397663088689652,2.1603032137129583,1801,25,21.937935481830703,46.93192687013008
0.9613639926835587,2.160281615571707,1801,25,21.937935481830703,46.93192687013008
0.9829614482824608,2.1602600176608098,1801,25,21.937935481830703,46.93192687013008
1.0045586766135362,2.160238419979155,1801,25,21.937935481830703,46.93192687013008
1.0261556785518855,2.1602168225257157,1801,25,21.937935481830703,46.93192687013008
1.0477524549054433,2.1601952252995447,1801,25,21.937935481830703,46.93192687013008
1.0693490064201474,2.160173628299766,1801,25,21.937935481830703,46.93192687013008
1.0909453337847073,2.160152031525572,1801,25,21.937935481830703,46.93192687013008
1.1125414376350082,2.160130434976217,1801,25,21.937935481830703,46.93192687013008
1.1341373185581758,2.1601088386510123,1801,25,21.937935481830703,46.93192687013008
1.155732977096327,2.1600872425493214,1801,25,21.937935481830703,46.93192687013008
1.1773284137500335,2.160065646670558,1801,25,21.937935481830703,46.93192687013008
1.1989236289815186,2.1600440510141796,1801,25,21.937935481830703,46.93192687013008
1.2205186232176077,2.160022455579685,1801,25,21.937935481830703,46.93192687013008
1.242113396852451,2.160000860366613,1801,25,21.937935481830703,46.93192687013008
1.2637079502500383,2.159979265374537,1801,25,21.937935481830703,46.93192687013008
1.2853022837465202,2.1599576706030614,1801,25,21.937935481830703,46.93192687013008
1.3068963976523484,2.1599360760518236,1801,25,21.937935481830703,46.93192687013008
1.328490292254255,2.1599144817204863,1801,25,21.937935481830703,46.93192687013008
1.3500839678170753,2.15989288760874,1801,25,21.937935481830703,46.93192687013008
1.371677424585435,2.1598712937162974,1801,25,21.937935481830703,46.93192687013008
1.393270662785304,2.1598497000428942,1801,25,21.937935481830703,46.93192687013008
1.4148636826254304,2.1598281065882854,1801,25,21.937935481830703,46.93192687013008
1.4364564842986682,2.159806513352245,1801,25,21.937935481830703,46.93192687013008
1.4580490679831988,2.159784920334564,1801,25,21.937935481830703,46.93192687013008
1.4796414338436596,2.15976332753505,1801,25,21.937935481830703,46.93192687013008
1.5012335820321867,2.1597417349535246,1801,25,21.937935481830703,46.93192687013008
1.5228255126893768,2.1597201425898236,1801,25,21.937935481830703,46.93192687013008
1.5444172259451752,2.159698550443794,1801,25,21.937935481830703,46.93192687013008
1.5660087219196943,2.159676958515296,1801,25,21.937935481830703,46.93192687013008
1.587600000723972,2.1596553668042,1801,25,21.937935481830703,46.93192687013008
1.6091910624606667,2.1596337753103843,1801,25,21.937935481830703,46.93192687013008
1.630781907224707,2.1596121840337394,1801,25,21.937935481830703,46.93192687013008
1.6523725351038814,2.159590592974162,1801,25,21.937935481830703,46.93192687013008
1.6739629461793906,2.159569002131557,1801,25,21.937935481830703,46.93192687013008
1.695553140526354,2.159547411505837,1801,25,21.937935481830703,46.93192687013008
1.7171431182142762,2.1595258210969206,1801,25,21.937935481830703,46.93192687013008
1.738732879307481,2.1595042309047323,1801,25,21.937935481830703,46.93192687013008
1.7603224238655086,2.1594826409292036,1801,25,21.937935481830703,46.93192687013008
1.7819117519434842,2.1594610511702697,1801,25,21.937935481830703,46.93192687013008
1.8035008635924572,2.1594394616278705,1801,25,21.937935481830703,46.93192687013008
1.8250897588597157,2.1594178723019515,1801,25,21.937935481830703,46.93192687013008
1.8466784377890755,2.1593962831924616,1801,25,21.937935481830703,46.93192687013008
1.868266900421147,2.1593746942993532,1801,25,21.937935481830703,46.93192687013008
1.8898551467935814,2.1593531056225825,1801,25,21.937935481830703,46.93192687013008
1.9114431769412994,2.1593315171621095,1801,25,21.937935481830703,46.93192687013008
1.9330309908967012,2.159309928917896,1801,25,21.937935481830703,46.93192687013008
1.9546185886898595,2.159288340889907,1801,25,21.937935481830703,46.93192687013008
1.9762059703486998,2.1592667530781102,1801,25,21.937935481830703,46.93192687013008
1.997793135899164,2.159245165482476,1801,25,21.937935481830703,46.93192687013008
2.0193800853653654,2.159223578102976,1801,25,21.937935481830703,46.93192687013008
2.0409668187697267,2.159201990939584,1801,25,21.937935481830703,46.93192687013008
2.0625533361331114,2.1591804039922766,1801,25,21.937935481830703,46.93192687013008
2.0841396374749452,2.159158817261031,1801,25,21.937935481830703,46.93192687013008
2.105725722813323,2.1591372307458263,1801,25,21.937935481830703,46.93192687013008
2.1273115921651153,2.1591156444466435,1801,25,21.937935481830703,46.93192687013008
2.1488972455460593,2.1590940583634635,1801,25,21.937935481830703,46.93192687013008
2.1704826829708486,2.1590724724962707,1801,25,21.937935481830703,46.93192687013008
2.19206790445321,2.159050886845048,1801,25,21.937935481830703,46.93192687013008
2.2136529100059836,2.159029301409782,1801,25,21.937935481830703,46.93192687013008
2.235237699641184,2.159007716190458,1801,25,21.937935481830703,46.93192687013008
2.256822273370069,2.158986131187064,1801,25,21.937935481830703,46.93192687013008
2.2784066312031963,2.158964546399587,1801,25,21.937935481830703,46.93192687013008
2.2999907731504767,2.158942961828017,1801,25,21.937935481830703,46.93192687013008
2.3215746992212254,2.158921377472342,1801,25,21.937935481830703,46.93192687013008
2.343158409424206,2.1588997933325533,1801,25,21.937935481830703,46.93192687013008
2.3647419037676745,2.158878209408641,1801,25,21.937935481830703,46.93192687013008
2.3863251822594154,2.1588566257005963,1801,25,21.937935481830703,46.93192687013008
2.407908244906784,2.1588350422084113,1801,25,21.937935481830703,46.93192687013008
2.4294910917167325,2.158813458932078,1801,25,21.937935481830703,46.93192687013008
2.4510737226958454,2.158791875871589,1801,25,21.937935481830703,46.93192687013008
2.472656137850366,2.1587702930269375,1801,25,21.937935481830703,46.93192687013008
2.494238337186225,2.1587487103981164,1801,25,21.937935481830703,46.93192687013008
2.515820320709059,2.15872712798512,1801,25,21.937935481830703,46.93192687013008
2.5374020884242405,2.1587055457879427,1801,25,21.937935481830703,46.93192687013008
2.5589836403368937,2.158683963806578,1801,25,21.937935481830703,46.93192687013008
2.5805649764519134,2.158662382041021,1801,25,21.937935481830703,46.93192687013008
2.6021460967739847,2.1586408004912667,1801,25,21.937935481830703,46.93192687013008
2.623727001307597,2.15861921915731,1801,25,21.937935481830703,46.93192687013008
2.6453076900570616,2.158597638039146,1801,25,21.937935481830703,46.93192687013008
2.666888163026525,2.1585760571367705,1801,25,21.937935481830703,46.93192687013008
2.688468420219977,2.158554476450179,1801,25,21.937935481830703,46.93192687013008
2.7100484616412692,2.1585328959793677,1801,25,21.937935481830703,46.93192687013008
2.7316282872941233,2.1585113157243323,1801,25,21.937935481830703,46.93192687013008
2.753207897182137,2.158489735685069,1801,25,21.937935481830703,46.93192687013008
2.774787291308802,2.1584681558615744,1801,25,21.937935481830703,46.93192687013008
2.7963664696775035,2.1584465762538443,1801,25,21.937935481830703,46.93192687013008
2.817945432291533,2.158424996861876,1801,25,21.937935481830703,46.93192687013008
2.8395241791540964,2.158403417685665,1801,25,21.937935481830703,46.93192687013008
2.861102710268317,2.1583818387252087,1801,25,21.937935481830703,46.93192687013008
2.8826810256372433,2.1583602599805043,1801,25,21.937935481830703,46.93192687013008
2.904259125263858,2.1583386814515477,1801,25,21.937935481830703,46.93192687013008
2.925837009151078,2.158317103138337,1801,25,21.937935481830703,46.93192687013008
2.947414677301761,2.158295525040868,1801,25,21.937935481830703,46.93192687013008
2.968992129718714,2.1582739471591386,1801,25,21.937935481830703,46.93192687013008
2.99056936640469,2.158252369493146,1801,25,21.937935481830703,46.93192687013008
3.0121463873623995,2.1582307920428865,1801,25,21.937935481830703,46.93192687013008
3.0337231925945067,2.1582092148083585,1801,25,21.937935481830703,46.93192687013008
3.0552997821036407,2.1581876377895584,1801,25,21.937935481830703,46.93192687013008
3.076876155892392,2.158166060986484,1801,25,21.937935481830703,46.93192687013008
3.0984523139633176,2.1581444843991324,1801,25,21.937935481830703,46.93192687013008
3.120028256318944,2.1581229080275017,1801,25,21.937935481830703,46.93192687013008
3.14160398296177,2.1581013318715883,1801,25,21.937935481830703,46.93192687013008
3.163179493894267,2.1580797559313902,1801,25,21.937935481830703,46.93192687013008
3.1847547891188825,2.158058180206905,1801,25,21.937935481830703,46.93192687013008
3.206329868638043,2.1580366046981303,1801,25,21.937935481830703,46.93192687013008
3.227904732454151,2.158015029405063,1801,25,21.937935481830703,46.93192687013008
3.249479380569593,2.1579934543277015,1801,25,21.937935481830703,46.93192687013008
3.271053812986737,2.157971879466043,1801,25,21.937935481830703,46.93192687013008
3.2926280297079336,2.1579503048200848,1801,25,21.937935481830703,46.93192687013008
3.3142020307355193,2.157928730389825,1801,25,21.937935481830703,46.93192687013008
3.3357758160718163,2.1579071561752614,1801,25,21.937935481830703,46.93192687013008
3.357349385719136,2.1578855821763914,1801,25,21.937935481830703,46.93192687013008
3.3789227396797745,2.157864008393213,1801,25,21.937935481830703,46.93192687013008
3.40049587795602,2.1578424348257226,1801,25,21.937935481830703,46.93192687013008
3.42206880055015,2.1578208614739194,1801,25,21.937935481830703,46.93192687013008
3.44364150746443,2.1577992883378005,1801,25,21.937935481830703,46.93192687013008
3.46521399870112,2.157777715417364,1801,25,21.937935481830703,46.93192687013008
3.4867862742624722,2.1577561427126066,1801,25,21.937935481830703,46.93192687013008
3.50835833415073,2.1577345702235275,1801,25,21.937935481830703,46.93192687013008
3.5299301783681294,2.157712997950123,1801,25,21.937935481830703,46.93192687013008
3.551501806916901,2.1576914258923923,1801,25,21.937935481830703,46.93192687013008
3.5730732197992716,2.157669854050332,1801,25,21.937935481830703,46.93192687013008
3.5946444170174603,2.1576482824239407,1801,25,21.937935481830703,46.93192687013008
3.6162153985736816,2.1576267110132155,1801,25,21.937935481830703,46.93192687013008
3.637786164470145,2.157605139818154,1801,25,21.937935481830703,46.93192687013008
3.6593567147090575,2.157583568838755,1801,25,21.937935481830703,46.93192687013008
3.6809270492926216,2.157561998075016,1801,25,21.937935481830703,46.93192687013008
3.702497168223035,2.157540427526934,1801,25,21.937935481830703,46.93192687013008
3.7240670715024953,2.1575188571945074,1801,25,21.937935481830703,46.93192687013008
3.7456367591331907,2.1574972870777342,1801,25,21.937935481830703,46.93192687013008
3.7672062311173145,2.1574757171766117,1801,25,21.937935481830703,46.93192687013008
3.7887754874570514,2.157454147491138,1801,25,21.937935481830703,46.93192687013008
3.810344528154586,2.157432578021311,1801,25,21.937935481830703,46.93192687013008
3.8319133532121015,2.157411008767128,1801,25,21.937935481830703,46.93192687013008
3.8534819626317782,2.1573894397285875,1801,25,21.937935481830703,46.93192687013008
3.875050356415793,2.157367870905687,1801,25,21.937935481830703,46.93192687013008
3.8966185345663242,2.157346302298424,1801,25,21.937935481830703,46.93192687013008
3.918186497085546,2.157324733906797,1801,25,21.937935481830703,46.93192687013008
3.9397542439756315,2.1573031657308035,1801,25,21.937935481830703,46.93192687013008
3.9613217752387535,2.157281597770441,1801,25,21.937935481830703,46.93192687013008
3.9828890908770824,2.1572600300257077,1801,25,21.937935481830703,46.93192687013008
4.004456190892789,2.1572384624966014,1801,25,21.937935481830703,46.93192687013008
4.026023075288039,2.15721689518312,1801,25,21.937935481830703,46.93192687013008
4.047589744065003,2.157195328085261,1801,25,21.937935481830703,46.93192687013008
4.069156197225846,2.1571737612030226,1801,25,21.937935481830703,46.93192687013008
4.090722434772731,2.157152194536402,1801,25,21.937935481830703,46.93192687013008
4.11228845670783,2.157130628085398,1801,25,21.937935481830703,46.93192687013008
4.133854263033301,2.157109061850008,1801,25,21.937935481830703,46.93192687013008
4.15541985375131,2.1570874958302295,1801,25,21.937935481830703,46.93192687013008
4.17698522886402,2.1570659300260604,1801,25,21.937935481830703,46.93192687013008
4.198550388373593,2.1570443644374993,1801,25,21.937935481830703,46.93192687013008
4.220115332282191,2.157022799064543,1801,25,21.937935481830703,46.93192687013008
4.241680060591975,2.15700123390719,1801,25,21.937935481830703,46.93192687013008
4.263244573305103,2.156979668965438,1801,25,21.937935481830703,46.93192687013008
4.28480887042374,2.1569581042392847,1801,25,21.937935481830703,46.93192687013008
4.306372951950043,2.156936539728728,1801,25,21.937935481830703,46.93192687013008
4.327936817886174,2.1569149754337658,1801,25,21.937935481830703,46.93192687013008
4.3495004682342895,2.156893411354396,1801,25,21.937935481830703,46.93192687013008
4.371063902996551,2.156871847490616,1801,25,21.937935481830703,46.93192687013008
4.3926271221751145,2.1568502838424246,1801,25,21.937935481830703,46.93192687013008
4.41419012577214,2.156828720409819,1801,25,21.937935481830703,46.93192687013008
4.435752913789786,2.1568071571927967,1801,25,21.937935481830703,46.93192687013008
4.457315486230209,2.156785594191356,1801,25,21.937935481830703,46.93192687013008
4.478877843095567,2.1567640314054946,1801,25,21.937935481830703,46.93192687013008
4.500439984388019,2.1567424688352106,1801,25,21.937935481830703,46.93192687013008
4.52200191010972,2.1567209064805013,1801,25,21.937935481830703,46.93192687013008
4.543563620262829,2.156699344341365,1801,25,21.937935481830703,46.93192687013008
4.565125114849502,2.1566777824177996,1801,25,21.937935481830703,46.93192687013008
4.586686393871895,2.156656220709803,1801,25,21.937935481830703,46.93192687013008
4.608247457332167,2.156634659217372,1801,25,21.937935481830703,46.93192687013008
4.629808305232472,2.156613097940506,1801,25,21.937935481830703,46.93192687013008
4.651368937574966,2.156591536879202,1801,25,21.937935481830703,46.93192687013008
4.672929354361808,2.156569976033458,1801,25,21.937935481830703,46.93192687013008
4.694489555595152,2.1565484154032712,1801,25,21.937935481830703,46.93192687013008
4.7160495412771555,2.1565268549886407,1801,25,21.937935481830703,46.93192687013008
4.7376093114099715,2.156505294789563,1801,25,21.937935481830703,46.93192687013008
4.759168865995759,2.1564837348060375,1801,25,21.937935481830703,46.93192687013008
4.780728205036673,2.1564621750380604,1801,25,21.937935481830703,46.93192687013008
4.802287328534868,2.156440615485631,1801,25,21.937935481830703,46.93192687013008
4.823846236492502,2.1564190561487457,1801,25,21.937935481830703,46.93192687013008
4.845404928911727,2.156397497027404,1801,25,21.937935481830703,46.93192687013008
4.866963405794702,2.156375938121602,1801,25,21.937935481830703,46.93192687013008
4.888521667143579,2.1563543794313387,1801,25,21.937935481830703,46.93192687013008
4.910079712960517,2.1563328209566115,1801,25,21.937935481830703,46.93192687013008
4.931637543247668,2.1563112626974186,1801,25,21.937935481830703,46.93192687013008
4.953195158007188,2.1562897046537572,1801,25,21.937935481830703,46.93192687013008
4.974752557241232,2.156268146825626,1801,25,21.937935481830703,46.93192687013008
4.996309740951958,2.1562465892130223,1801,25,21.937935481830703,46.93192687013008
5.017866709141517,2.156225031815944,1801,25,21.937935481830703,46.93192687013008
5.039423461812065,2.156203474634389,1801,25,21.937935481830703,46.93192687013008
5.06097999896576,2.156181917668355,1801,25,21.937935481830703,46.93192687013008
5.082536320604753,2.1561603609178404,1801,25,21.937935481830703,46.93192687013008
5.104092426731201,2.1561388043828424,1801,25,21.937935481830703,46.93192687013008
5.125648317347258,2.1561172480633592,1801,25,21.937935481830703,46.93192687013008
5.147203992455079,2.1560956919593885,1801,25,21.937935481830703,46.93192687013008
5.16875945205682,2.156074136070928,1801,25,21.937935481830703,46.93192687013008
