Vout,Iout,Irradiance,Temperature,MaxVoltage,MaxPower
0.005360898452899492,1.07219,901,20,21.556906402629707,22.648849865548385
0.016082596230612194,1.07219,901,20,21.556906402629707,22.648849865548385
0.02680407603889832,1.0721845318825471,901,20,21.556906402629707,22.648849865548385
0.037525298937592017,1.0721738101847693,901,20,21.556906402629707,22.648849865548385
0.04824625220037148,1.0721630887055078,901,20,21.556906402629707,22.648849865548385
0.05896694832852997,1.0721523674836813,901,20,21.556906402629707,22.648849865548385
0.06968739886193029,1.0721416465314908,901,20,21.556906402629707,22.648849865548385
0.0804076144527413,1.0721309258364347,901,20,21.556906402629707,22.648849865548385
0.0911276049336197,1.0721202053869734,901,20,21.556906402629707,22.648849865548385
0.10184737938076452,1.0721094851724546,901,20,21.556906402629707,22.648849865548385
0.11256694617212032,1.0720987651830458,901,20,21.556906402629707,22.648849865548385
0.12328631304110173,1.0720880454096706,901,20,21.556906402629707,22.648849865548385
0.13400548712618482,1.0720773258439513,901,20,21.556906402629707,22.648849865548385
0.14472447501668248,1.0720666064781543,901,20,21.556906402629707,22.648849865548385
0.155443282794998,1.0720558873051411,901,20,21.556906402629707,22.648849865548385
0.16616191607562728,1.0720451683183227,901,20,21.556906402629707,22.648849865548385
0.1768803800411607,1.0720344495116163,901,20,21.556906402629707,22.648849865548385
0.18759867947551423,1.0720237308794076,901,20,21.556906402629707,22.648849865548385
0.19831681879460436,1.072013012416514,901,20,21.556906402629707,22.648849865548385
0.20903480207466238,1.0720022941181513,901,20,21.556906402629707,22.648849865548385
0.21975263307837045,1.0719915759799041,901,20,21.556906402629707,22.648849865548385
0.23047031527898634,1.071980857997696,901,20,21.556906402629707,22.648849865548385
0.24118785188261244,1.071970140167764,901,20,21.556906402629707,22.648849865548385
0.25190524584875085,1.0719594224866351,901,20,21.556906402629707,22.648849865548385
0.2626224999092776,1.0719487049511034,901,20,21.556906402629707,22.648849865548385
0.273339616585956,1.071937987558209,901,20,21.556906402629707,22.648849865548385
0.2840565982066036,1.0719272703052203,901,20,21.556906402629707,22.648849865548385
0.2947734469200141,1.0719165531896153,901,20,21.556906402629707,22.648849865548385
0.30549016470973245,1.0719058362090663,901,20,21.556906402629707,22.648849865548385
0.3162067534067686,1.0718951193614246,901,20,21.556906402629707,22.648849865548385
0.32692321470133434,1.0718844026447065,901,20,21.556906402629707,22.648849865548385
0.3376395501536761,1.0718736860570812,901,20,21.556906402629707,22.648849865548385
0.348355761204075,1.0718629695968585,901,20,21.556906402629707,22.648849865548385
0.3590718491820774,1.0718522532624777,901,20,21.556906402629707,22.648849865548385
0.36978781531501403,1.071841537052499,901,20,21.556906402629707,22.648849865548385
0.38050366073586583,1.0718308209655927,901,20,21.556906402629707,22.648849865548385
0.3912193864905227,1.0718201050005312,901,20,21.556906402629707,22.648849865548385
0.40193499354448414,1.071809389156182,901,20,21.556906402629707,22.648849865548385
0.41265048278904537,1.071798673431499,901,20,21.556906402629707,22.648849865548385
0.4233658550470064,1.0717879578255165,901,20,21.556906402629707,22.648849865548385
0.43408111107794184,1.0717772423373435,901,20,21.556906402629707,22.648849865548385
0.444796251583066,1.0717665269661572,901,20,21.556906402629707,22.648849865548385
0.45551127720972306,1.0717558117111978,901,20,21.556906402629707,22.648849865548385
0.4662261885555318,1.0717450965717643,901,20,21.556906402629707,22.648849865548385
0.4769409861722118,1.0717343815472091,901,20,21.556906402629707,22.648849865548385
0.4876556705691149,1.0717236666369347,901,20,21.556906402629707,22.648849865548385
0.49837024221648485,1.0717129518403896,901,20,21.556906402629707,22.648849865548385
0.5090847015484665,1.0717022371570641,901,20,21.556906402629707,22.648849865548385
0.5197990489658835,1.0716915225864883,901,20,21.556906402629707,22.648849865548385
0.5305132848388016,1.0716808081282279,901,20,21.556906402629707,22.648849865548385
0.5412274095088957,1.071670093781882,901,20,21.556906402629707,22.648849865548385
0.5519414232916341,1.0716593795470803,901,20,21.556906402629707,22.648849865548385
0.5626553264782946,1.0716486654234818,901,20,21.556906402629707,22.648849865548385
0.5733691193378264,1.0716379514107703,901,20,21.556906402629707,22.648849865548385
0.5840828021185674,1.071627237508655,901,20,21.556906402629707,22.648849865548385
0.5947963750498308,1.071616523716867,901,20,21.556906402629707,22.648849865548385
0.6055098383433679,1.0716058100351578,901,20,21.556906402629707,22.648849865548385
0.6162231921947201,1.0715950964632979,901,20,21.556906402629707,22.648849865548385
0.6269364367844661,1.0715843830010756,901,20,21.556906402629707,22.648849865548385
0.6376495722793729,1.0715736696482956,901,20,21.556906402629707,22.648849865548385
0.6483625988334586,1.0715629564047773,901,20,21.556906402629707,22.648849865548385
0.6590755165889731,1.0715522432703537,901,20,21.556906402629707,22.648849865548385
0.6697883256773038,1.071541530244871,901,20,21.556906402629707,22.648849865548385
0.6805010262198117,1.0715308173281868,901,20,21.556906402629707,22.648849865548385
0.6912136183286018,1.0715201045201697,901,20,21.556906402629707,22.648849865548385
0.7019261021072364,1.0715093918206984,901,20,21.556906402629707,22.648849865548385
0.7126384776513918,1.071498679229661,901,20,21.556906402629707,22.648849865548385
0.7233507450494654,1.0714879667469535,901,20,21.556906402629707,22.648849865548385
0.7340629043831353,1.0714772543724806,901,20,21.556906402629707,22.648849865548385
0.7447749557278773,1.0714665421061538,901,20,21.556906402629707,22.648849865548385
0.7554868991534432,1.0714558299478913,901,20,21.556906402629707,22.648849865548385
0.7661987347242994,1.0714451178976179,901,20,21.556906402629707,22.648849865548385
0.7769104625000348,1.0714344059552636,901,20,21.556906402629707,22.648849865548385
0.7876220825357364,1.071423694120764,901,20,21.556906402629707,22.648849865548385
0.7983335948823342,1.0714129823940592,901,20,21.556906402629707,22.648849865548385
0.8090449995869227,1.0714022707750948,901,20,21.556906402629707,22.648849865548385
0.8197562966930545,1.0713915592638195,901,20,21.556906402629707,22.648849865548385
0.8304674862410142,1.071380847860186,901,20,21.556906402629707,22.648849865548385
0.8411785682680689,1.071370136564151,901,20,21.556906402629707,22.648849865548385
0.851889542808701,1.0713594253756742,901,20,21.556906402629707,22.648849865548385
0.8626004098948212,1.0713487142947182,901,20,21.556906402629707,22.648849865548385
0.8733111695559685,1.0713380033212487,901,20,21.556906402629707,22.648849865548385
0.8840218218194908,1.0713272924552337,901,20,21.556906402629707,22.648849865548385
0.8947323667107144,1.0713165816966437,901,20,21.556906402629707,22.648849865548385
0.9054428042530993,1.0713058710454513,901,20,21.556906402629707,22.648849865548385
0.9161531344683824,1.071295160501631,901,20,21.556906402629707,22.648849865548385
0.9268633573767115,1.0712844500651597,901,20,21.556906402629707,22.648849865548385
0.9375734729967654,1.0712737397360155,901,20,21.556906402629707,22.648849865548385
0.9482834813458686,1.0712630295141783,901,20,21.556906402629707,22.648849865548385
0.9589933824400951,1.0712523193996293,901,20,21.556906402629707,22.648849865548385
0.9697031762943642,1.0712416093923511,901,20,21.556906402629707,22.648849865548385
0.98041286292253,1.0712308994923279,901,20,21.556906402629707,22.648849865548385
0.9911224423374627,1.0712201896995446,901,20,21.556906402629707,22.648849865548385
1.0018319145511245,1.0712094800139875,901,20,21.556906402629707,22.648849865548385
1.0125412795746402,1.0711987704356436,901,20,21.556906402629707,22.648849865548385
1.0232505374183603,1.0711880609645008,901,20,21.556906402629707,22.648849865548385
1.0339596880919217,1.0711773516005483,901,20,21.556906402629707,22.648849865548385
1.0446687316043013,1.0711666423437756,901,20,21.556906402629707,22.648849865548385
1.0553776679638691,1.071155933194173,901,20,21.556906402629707,22.648849865548385
1.0660864971784325,1.0711452241517314,901,20,21.556906402629707,22.648849865548385
1.0767952192552808,1.0711345152164429,901,20,21.556906402629707,22.648849865548385
1.0875038342012247,1.071123806388299,901,20,21.556906402629707,22.648849865548385
1.0982123420226328,1.0711130976672931,901,20,21.556906402629707,22.648849865548385
1.1089207427254668,1.0711023890534181,901,20,21.556906402629707,22.648849865548385
1.1196290363153116,1.0710916805466675,901,20,21.556906402629707,22.648849865548385
1.1303372227974056,1.0710809721470356,901,20,21.556906402629707,22.648849865548385
1.141045302176665,1.0710702638545166,901,20,21.556906402629707,22.648849865548385
1.1517532744577106,1.0710595556691054,901,20,21.556906402629707,22.648849865548385
1.162461139644891,1.0710488475907969,901,20,21.556906402629707,22.648849865548385
1.1731688977423014,1.0710381396195867,901,20,21.556906402629707,22.648849865548385
1.1838765487538043,1.0710274317554702,901,20,21.556906402629707,22.648849865548385
1.1945840926830484,1.0710167239984436,901,20,21.556906402629707,22.648849865548385
1.2052915295334823,1.071006016348503,901,20,21.556906402629707,22.648849865548385
1.215998859308374,1.0709953088056445,901,20,21.556906402629707,22.648849865548385
1.2267060820108195,1.070984601369865,901,20,21.556906402629707,22.648849865548385
1.237413197643761,1.0709738940411606,901,20,21.556906402629707,22.648849865548385
1.2481202062099965,1.070963186819529,901,20,21.556906402629707,22.648849865548385
1.2588271077121902,1.0709524797049668,901,20,21.556906402629707,22.648849865548385
1.2695339021528838,1.0709417726974713,901,20,21.556906402629707,22.648849865548385
1.2802405895345061,1.07093106579704,901,20,21.556906402629707,22.648849865548385
1.290947169859382,1.0709203590036698,901,20,21.556906402629707,22.648849865548385
1.3016536431297385,1.070909652317359,901,20,21.556906402629707,22.648849865548385
1.3123600093477144,1.0708989457381046,901,20,21.556906402629707,22.648849865548385
1.3230662685153656,1.070888239265905,901,20,21.556906402629707,22.648849865548385
1.333772420634673,1.0708775329007576,901,20,21.556906402629707,22.648849865548385
1.3444784657075473,1.0708668266426606,901,20,21.556906402629707,22.648849865548385
1.3551844037358336,1.070856120491612,901,20,21.556906402629707,22.648849865548385
1.3658902347213184,1.0708454144476098,901,20,21.556906402629707,22.648849865548385
1.376595958665733,1.070834708510652,901,20,21.556906402629707,22.648849865548385
1.3873015755707567,1.0708240026807372,901,20,21.556906402629707,22.648849865548385
1.3980070854380233,1.0708132969578634,901,20,21.556906402629707,22.648849865548385
1.4087124882691224,1.070802591342029,901,20,21.556906402629707,22.648849865548385
1.4194177840656041,1.0707918858332321,901,20,21.556906402629707,22.648849865548385
1.4301229728289808,1.0707811804314717,901,20,21.556906402629707,22.648849865548385
1.4408280545607315,1.0707704751367457,901,20,21.556906402629707,22.648849865548385
1.4515330292623037,1.070759769949053,901,20,21.556906402629707,22.648849865548385
1.4622378969351157,1.0707490648683917,901,20,21.556906402629707,22.648849865548385
1.4729426575805593,1.0707383598947606,901,20,21.556906402629707,22.648849865548385
1.4836473112000006,1.0707276550281584,901,20,21.556906402629707,22.648849865548385
1.4943518577947839,1.0707169502685834,901,20,21.556906402629707,22.648849865548385
1.505056297366232,1.0707062456160346,901,20,21.556906402629707,22.648849865548385
1.5157606299156483,1.0706955410705101,901,20,21.556906402629707,22.648849865548385
1.5264648554443179,1.0706848366320092,901,20,21.556906402629707,22.648849865548385
1.5371689739535095,1.0706741323005302,901,20,21.556906402629707,22.648849865548385
1.5478729854444773,1.070663428076072,901,20,21.556906402629707,22.648849865548385
1.5585768899184602,1.0706527239586332,901,20,21.556906402629707,22.648849865548385
1.5692806873766842,1.0706420199482127,901,20,21.556906402629707,22.648849865548385
1.5799843778203642,1.070631316044809,901,20,21.556906402629707,22.648849865548385
1.5906879612507028,1.0706206122484212,901,20,21.556906402629707,22.648849865548385
1.6013914376688931,1.070609908559048,901,20,21.556906402629707,22.648849865548385
1.6120948070761187,1.0705992049766881,901,20,21.556906402629707,22.648849865548385
1.6227980694735538,1.0705885015013403,901,20,21.556906402629707,22.648849865548385
1.6335012248623653,1.0705777981330034,901,20,21.556906402629707,22.648849865548385
1.6442042732437125,1.0705670948716763,901,20,21.556906402629707,22.648849865548385
1.6549072146187471,1.0705563917173577,901,20,21.556906402629707,22.648849865548385
1.6656100489886154,1.0705456886700468,901,20,21.556906402629707,22.648849865548385
1.6763127763544574,1.0705349857297422,901,20,21.556906402629707,22.648849865548385
1.6870153967174073,1.0705242828964425,901,20,21.556906402629707,22.648849865548385
1.6977179100785953,1.0705135801701469,901,20,21.556906402629707,22.648849865548385
1.708420316439146,1.0705028775508543,901,20,21.556906402629707,22.648849865548385
1.71912261580018,1.0704921750385634,901,20,21.556906402629707,22.648849865548385
1.7298248081628145,1.070481472633273,901,20,21.556906402629707,22.648849865548385
1.7405268935281624,1.0704707703349823,901,20,21.556906402629707,22.648849865548385
1.7512288718973343,1.07046006814369,901,20,21.556906402629707,22.648849865548385
1.7619307432714355,1.0704493660593948,901,20,21.556906402629707,22.648849865548385
1.772632507651571,1.0704386640820958,901,20,21.556906402629707,22.648849865548385
1.7833341650388415,1.070427962211792,901,20,21.556906402629707,22.648849865548385
1.7940357154343458,1.070417260448482,901,20,21.556906402629707,22.648849865548385
1.8047371588391812,1.070406558792165,901,20,21.556906402629707,22.648849865548385
1.8154384952544411,1.0703958572428396,901,20,21.556906402629707,22.648849865548385
1.8261397246812183,1.0703851558005049,901,20,21.556906402629707,22.648849865548385
1.8368408471206044,1.0703744544651599,901,20,21.556906402629707,22.648849865548385
1.8475418625736875,1.070363753236803,901,20,21.556906402629707,22.648849865548385
1.8582427710415552,1.0703530521154339,901,20,21.556906402629707,22.648849865548385
1.8689435725252945,1.070342351101051,901,20,21.556906402629707,22.648849865548385
1.8796442670259896,1.0703316501936533,901,20,21.556906402629707,22.648849865548385
1.8903448545447246,1.0703209493932395,901,20,21.556906402629707,22.648849865548385
1.9010453350825822,1.070310248699809,901,20,21.556906402629707,22.648849865548385
1.9117457086406435,1.0702995481133604,901,20,21.556906402629707,22.648849865548385
1.9224459752199903,1.0702888476338925,901,20,21.556906402629707,22.648849865548385
1.9331461348217014,1.0702781472614045,901,20,21.556906402629707,22.648849865548385
1.943846187446856,1.0702674469958953,901,20,21.556906402629707,22.648849865548385
1.9545461330965326,1.0702567468373636,901,20,21.556906402629707,22.648849865548385
1.965245971771809,1.0702460467858084,901,20,21.556906402629707,22.648849865548385
1.9759457034737615,1.0702353468412287,901,20,21.556906402629707,22.648849865548385
1.9866453282034666,1.0702246470036234,901,20,21.556906402629707,22.648849865548385
1.9973448459620007,1.0702139472729915,901,20,21.556906402629707,22.648849865548385
2.008044256750439,1.0702032476493317,901,20,21.556906402629707,22.648849865548385
2.018743560569856,1.0701925481326433,901,20,21.556906402629707,22.648849865548385
2.0294427574213256,1.0701818487229249,901,20,21.556906402629707,22.648849865548385
2.040141847305924,1.0701711494201753,901,20,21.556906402629707,22.648849865548385
2.0508408302247223,1.0701604502243938,901,20,21.556906402629707,22.648849865548385
2.061539706178795,1.070149751135579,901,20,21.556906402629707,22.648849865548385
2.072238475169215,1.0701390521537302,901,20,21.556906402629707,22.648849865548385
2.0829371371970553,1.0701283532788461,901,20,21.556906402629707,22.648849865548385
2.093635692263388,1.0701176545109254,901,20,21.556906402629707,22.648849865548385
2.1043341403692852,1.0701069558499676,901,20,21.556906402629707,22.648849865548385
2.11503248151582,1.0700962572959711,901,20,21.556906402629707,22.648849865548385
2.125730715704063,1.070085558848935,901,20,21.556906402629707,22.648849865548385
2.136428842935086,1.0700748605088584,901,20,21.556906402629707,22.648849865548385
2.1471268632099614,1.07006416227574,901,20,21.556906402629707,22.648849865548385
2.1578247765297585,1.070053464149579,901,20,21.556906402629707,22.648849865548385
2.1685225828955503,1.0700427661303737,901,20,21.556906402629707,22.648849865548385
2.179220282308406,1.070032068218124,901,20,21.556906402629707,22.648849865548385
2.1899178747693977,1.0700213704128279,901,20,21.556906402629707,22.648849865548385
2.200615360279595,1.0700106727144847,901,20,21.556906402629707,22.648849865548385
2.21131273884007,1.0699999751230935,901,20,21.556906402629707,22.648849865548385
2.2220100104518914,1.069989277638653,901,20,21.556906402629707,22.648849865548385
2.2327071751161305,1.0699785802611623,901,20,21.556906402629707,22.648849865548385
2.2434042328338575,1.0699678829906203,901,20,21.556906402629707,22.648849865548385
2.2541011836061418,1.0699571858270258,901,20,21.556906402629707,22.648849865548385
2.264798027434055,1.0699464887703778,901,20,21.556906402629707,22.648849865548385
2.275494764318665,1.0699357918206753,901,20,21.556906402629707,22.648849865548385
2.286191394261043,1.069925094977917,901,20,21.556906402629707,22.648849865548385
2.2968879172622594,1.0699143982421022,901,20,21.556906402629707,22.648849865548385
2.3075843333233825,1.0699037016132293,901,20,21.556906402629707,22.648849865548385
2.318280642445483,1.0698930050912978,901,20,21.556906402629707,22.648849865548385
2.3289768446296306,1.0698823086763065,901,20,21.556906402629707,22.648849865548385
2.3396729398768943,1.069871612368254,901,20,21.556906402629707,22.648849865548385
2.3503689281883444,1.0698609161671395,901,20,21.556906402629707,22.648849865548385
2.36106480956505,1.0698502200729618,901,20,21.556906402629707,22.648849865548385
2.37176058400808,1.06983952408572,901,20,21.556906402629707,22.648849865548385
2.3824562515185046,1.069828828205413,901,20,21.556906402629707,22.648849865548385
2.393151812097393,1.0698181324320395,901,20,21.556906402629707,22.648849865548385
2.4038472657458154,1.0698074367655988,901,20,21.556906402629707,22.648849865548385
2.4145426124648397,1.0697967412060894,901,20,21.556906402629707,22.648849865548385
2.425237852255536,1.0697860457535104,901,20,21.556906402629707,22.648849865548385
2.4359329851189737,1.069775350407861,901,20,21.556906402629707,22.648849865548385
2.4466280110562217,1.0697646551691398,901,20,21.556906402629707,22.648849865548385
2.4573229300683495,1.069753960037346,901,20,21.556906402629707,22.648849865548385
2.4680177421564253,1.0697432650124783,901,20,21.556906402629707,22.648849865548385
2.4787124473215205,1.0697325700945357,901,20,21.556906402629707,22.648849865548385
2.4894070455647017,1.0697218752835171,901,20,21.556906402629707,22.648849865548385
2.500101536887039,1.0697111805794215,901,20,21.556906402629707,22.648849865548385
2.5107959212896023,1.0697004859822477,901,20,21.556906402629707,22.648849865548385
2.5214901987734595,1.069689791491995,901,20,21.556906402629707,22.648849865548385
2.5321843693396806,1.0696790971086618,901,20,21.556906402629707,22.648849865548385
2.5428784329893337,1.0696684028322474,901,20,21.556906402629707,22.648849865548385
