Vout,Iout,Irradiance,Temperature,MaxVoltage,MaxPower
0.002466126287247238,0.49323,401,40,22.81675028702096,10.718368348012975
0.007398333260732567,0.49323,401,40,22.81675028702096,10.718368348012975
0.012330439963687236,0.49322748455071275,401,40,22.81675028702096,10.718368348012975
0.01726242848281415,0.4932225523437393,401,40,22.81675028702096,10.718368348012975
0.022194292963737046,0.4932176202372879,401,40,22.81675028702096,10.718368348012975
0.027126039157314315,0.49321268824926195,401,40,22.81675028702096,10.718368348012975
0.03205767237212608,0.49320775638527425,401,40,22.81675028702096,10.718368348012975
0.03698919750839458,0.4932028246395739,401,40,22.81675028702096,10.718368348012975
0.041920619089349125,0.49319789300685224,401,40,22.81675028702096,10.718368348012975
0.046851941290232596,0.49319296148220915,401,40,22.81675028702096,10.718368348012975
0.051783167965076066,0.49318803006112133,401,40,22.81675028702096,10.718368348012975
0.05671430267141329,0.49318309873941363,401,40,22.81675028702096,10.718368348012975
0.061645348693093724,0.4931781675132319,401,40,22.81675028702096,10.718368348012975
0.06657630906134017,0.4931732363790187,401,40,22.81675028702096,10.718368348012975
0.07150718657418635,0.49316830533349015,401,40,22.81675028702096,10.718368348012975
0.07643798381441877,0.493163374373615,401,40,22.81675028702096,10.718368348012975
0.08136870316613817,0.49315844349659527,401,40,22.81675028702096,10.718368348012975
0.0862993468300468,0.49315351269984814,401,40,22.81675028702096,10.718368348012975
0.0912299168375593,0.4931485819809895,401,40,22.81675028702096,10.718368348012975
0.096160415063828,0.4931436513378187,401,40,22.81675028702096,10.718368348012975
0.10109084323976596,0.49313872076830423,401,40,22.81675028702096,10.718368348012975
0.10602120296314502,0.493133790270571,401,40,22.81675028702096,10.718368348012975
0.1109514957088398,0.4931288598428882,401,40,22.81675028702096,10.718368348012975
0.11588172283828373,0.49312392948365785,401,40,22.81675028702096,10.718368348012975
0.12081188560819729,0.49311899919140517,401,40,22.81675028702096,10.718368348012975
0.12574198517864477,0.4931140689647688,401,40,22.81675028702096,10.718368348012975
0.1306720226204713,0.4931091388024919,401,40,22.81675028702096,10.718368348012975
0.13560199892216737,0.4931042087034145,401,40,22.81675028702096,10.718368348012975
0.14053191499620535,0.49309927866646563,401,40,22.81675028702096,10.718368348012975
0.14546177168488844,0.493094348690657,401,40,22.81675028702096,10.718368348012975
0.15039156976574974,0.49308941877507595,401,40,22.81675028702096,10.718368348012975
0.15532130995653545,0.49308448891888024,401,40,22.81675028702096,10.718368348012975
0.16025099291980532,0.49307955912129237,401,40,22.81675028702096,10.718368348012975
0.16518061926717853,0.4930746293815946,401,40,22.81675028702096,10.718368348012975
0.17011018956325324,0.4930696996991243,401,40,22.81675028702096,10.718368348012975
0.17503970432922453,0.4930647700732699,401,40,22.81675028702096,10.718368348012975
0.1799691640462237,0.4930598405034668,401,40,22.81675028702096,10.718368348012975
0.18489856915840103,0.4930549109891938,401,40,22.81675028702096,10.718368348012975
0.189827920075771,0.4930499815299697,401,40,22.81675028702096,10.718368348012975
0.19475721717683897,0.4930450521253505,401,40,22.81675028702096,10.718368348012975
0.19968646081102534,0.4930401227749261,401,40,22.81675028702096,10.718368348012975
0.20461565130090342,0.4930351934783179,401,40,22.81675028702096,10.718368348012975
0.2095447889442652,0.4930302642351767,401,40,22.81675028702096,10.718368348012975
0.2144738740160279,0.49302533504517976,401,40,22.81675028702096,10.718368348012975
0.21940290676999424,0.4930204059080293,401,40,22.81675028702096,10.718368348012975
0.22433188744047658,0.4930154768234505,401,40,22.81675028702096,10.718368348012975
0.2292608162437971,0.4930105477911894,401,40,22.81675028702096,10.718368348012975
0.23418969337967166,0.49300561881101185,401,40,22.81675028702096,10.718368348012975
0.23911851903248746,0.4930006898827014,401,40,22.81675028702096,10.718368348012975
0.24404729337248257,0.49299576100605846,401,40,22.81675028702096,10.718368348012975
0.24897601655683468,0.4929908321808985,401,40,22.81675028702096,10.718368348012975
0.25390468873066585,0.4929859034070514,401,40,22.81675028702096,10.718368348012975
0.2588333100279701,0.49298097468436,401,40,22.81675028702096,10.718368348012975
0.2637618805724695,0.49297604601267897,401,40,22.81675028702096,10.718368348012975
0.268690400478405,0.49297111739187455,401,40,22.81675028702096,10.718368348012975
0.27361886985126516,0.4929661888218229,401,40,22.81675028702096,10.718368348012975
0.2785472887884603,0.49296126030240983,401,40,22.81675028702096,10.718368348012975
0.2834756573799437,0.4929563318335299,401,40,22.81675028702096,10.718368348012975
0.28840397570878507,0.49295140341508553,401,40,22.81675028702096,10.718368348012975
0.29333224385170087,0.49294647504698685,401,40,22.81675028702096,10.718368348012975
0.29826046187954264,0.49294154672915086,401,40,22.81675028702096,10.718368348012975
0.3031886298577484,0.4929366184615008,401,40,22.81675028702096,10.718368348012975
0.30811674784675913,0.49293169024396577,401,40,22.81675028702096,10.718368348012975
0.3130448159024033,0.4929267620764804,401,40,22.81675028702096,10.718368348012975
0.31797283407625165,0.4929218339589842,401,40,22.81675028702096,10.718368348012975
0.32290080241594515,0.4929169058914214,401,40,22.81675028702096,10.718368348012975
0.3278287209654969,0.49291197787374036,401,40,22.81675028702096,10.718368348012975
0.3327565897655713,0.49290704990589346,401,40,22.81675028702096,10.718368348012975
0.33768440885374224,0.4929021219878367,401,40,22.81675028702096,10.718368348012975
0.3426121782647302,0.4928971941195294,401,40,22.81675028702096,10.718368348012975
0.34753989803062224,0.4928922663009341,401,40,22.81675028702096,10.718368348012975
0.35246756818107444,0.4928873385320159,401,40,22.81675028702096,10.718368348012975
0.3573951887434991,0.49288241081274276,401,40,22.81675028702096,10.718368348012975
0.3623227597432371,0.49287748314308505,401,40,22.81675028702096,10.718368348012975
0.36725028120371744,0.4928725555230154,401,40,22.81675028702096,10.718368348012975
0.37217775314660445,0.49286762795250844,401,40,22.81675028702096,10.718368348012975
0.3771051755919335,0.49286270043154073,401,40,22.81675028702096,10.718368348012975
0.38203254855823626,0.4928577729600906,401,40,22.81675028702096,10.718368348012975
0.3869598720626564,0.492852845538138,401,40,22.81675028702096,10.718368348012975
0.3918871461210563,0.4928479181656645,401,40,22.81675028702096,10.718368348012975
0.39681437074811593,0.4928429908426528,401,40,22.81675028702096,10.718368348012975
0.40174154595742373,0.4928380635690871,401,40,22.81675028702096,10.718368348012975
0.4066686717615603,0.4928331363449528,401,40,22.81675028702096,10.718368348012975
0.4115957481721762,0.49282820917023623,401,40,22.81675028702096,10.718368348012975
0.4165227752000635,0.4928232820449248,401,40,22.81675028702096,10.718368348012975
0.4214497528552218,0.4928183549690069,401,40,22.81675028702096,10.718368348012975
0.42637668114691923,0.49281342794247174,401,40,22.81675028702096,10.718368348012975
0.4313035600837487,0.49280850096530926,401,40,22.81675028702096,10.718368348012975
0.43623038967367966,0.4928035740375103,401,40,22.81675028702096,10.718368348012975
0.4411571699241067,0.4927986471590662,401,40,22.81675028702096,10.718368348012975
0.4460839008418928,0.49279372032996893,401,40,22.81675028702096,10.718368348012975
0.45101058243341136,0.49278879355021116,401,40,22.81675028702096,10.718368348012975
0.45593721470458276,0.4927838668197861,401,40,22.81675028702096,10.718368348012975
0.46086379766091,0.4927789401386872,401,40,22.81675028702096,10.718368348012975
0.4657903313075105,0.49277401350690875,401,40,22.81675028702096,10.718368348012975
0.4707168156491459,0.4927690869244451,401,40,22.81675028702096,10.718368348012975
0.47564325069024926,0.4927641603912911,401,40,22.81675028702096,10.718368348012975
0.4805696364349504,0.49275923390744214,401,40,22.81675028702096,10.718368348012975
0.4854959728870994,0.4927543074728937,401,40,22.81675028702096,10.718368348012975
0.490422260050288,0.49274938108764166,401,40,22.81675028702096,10.718368348012975
0.4953484979278693,0.49274445475168216,401,40,22.81675028702096,10.718368348012975
0.5002746865229762,0.4927395284650116,401,40,22.81675028702096,10.718368348012975
0.5052008258385391,0.49273460222762666,401,40,22.81675028702096,10.718368348012975
0.5101269158772999,0.49272967603952417,401,40,22.81675028702096,10.718368348012975
0.5150529566418279,0.49272474990070125,401,40,22.81675028702096,10.718368348012975
0.5199789481345327,0.4927198238111551,401,40,22.81675028702096,10.718368348012975
0.5249048903576761,0.4927148977708832,401,40,22.81675028702096,10.718368348012975
0.5298307833133838,0.49270997177988307,401,40,22.81675028702096,10.718368348012975
0.5347566270036561,0.49270504583815256,401,40,22.81675028702096,10.718368348012975
0.5396824214303767,0.49270011994568946,401,40,22.81675028702096,10.718368348012975
0.544608166595323,0.49269519410249174,401,40,22.81675028702096,10.718368348012975
0.5495338625001728,0.4926902683085576,401,40,22.81675028702096,10.718368348012975
0.5544595091465133,0.49268534256388524,401,40,22.81675028702096,10.718368348012975
0.5593851065358467,0.492680416868473,401,40,22.81675028702096,10.718368348012975
0.5643106546695986,0.49267549122231924,401,40,22.81675028702096,10.718368348012975
0.5692361535491216,0.49267056562542244,401,40,22.81675028702096,10.718368348012975
0.5741616031757031,0.4926656400777813,401,40,22.81675028702096,10.718368348012975
0.5790870035505685,0.4926607145793943,401,40,22.81675028702096,10.718368348012975
0.5840123546748873,0.4926557891302603,401,40,22.81675028702096,10.718368348012975
0.5889376565497768,0.492650863730378,401,40,22.81675028702096,10.718368348012975
0.593862909176306,0.4926459383797462,401,40,22.81675028702096,10.718368348012975
0.5987881125555,0.49264101307836383,401,40,22.81675028702096,10.718368348012975
0.6037132666883424,0.49263608782622986,401,40,22.81675028702096,10.718368348012975
0.6086383715757789,0.49263116262334317,401,40,22.81675028702096,10.718368348012975
0.6135634272187209,0.49262623746970285,401,40,22.81675028702096,10.718368348012975
0.6184884336180473,0.492621312365308,401,40,22.81675028702096,10.718368348012975
0.6234133907746071,0.49261638731015756,401,40,22.81675028702096,10.718368348012975
0.6283382986892218,0.49261146230425074,401,40,22.81675028702096,10.718368348012975
0.6332631573626878,0.49260653734758664,401,40,22.81675028702096,10.718368348012975
0.6381879667957779,0.49260161244016454,401,40,22.81675028702096,10.718368348012975
0.6431127269892435,0.4925966875819836,401,40,22.81675028702096,10.718368348012975
0.6480374379438159,0.492591762773043,401,40,22.81675028702096,10.718368348012975
0.6529620996602081,0.492586838013342,401,40,22.81675028702096,10.718368348012975
0.6578867121391161,0.4925819133028799,401,40,22.81675028702096,10.718368348012975
0.6628112753812203,0.492576988641656,401,40,22.81675028702096,10.718368348012975
0.667735789387186,0.4925720640296696,401,40,22.81675028702096,10.718368348012975
0.6726602541576663,0.49256713946691993,401,40,22.81675028702096,10.718368348012975
0.6775846696933008,0.4925622149534064,401,40,22.81675028702096,10.718368348012975
0.6825090359947185,0.4925572904891284,401,40,22.81675028702096,10.718368348012975
0.6874333530625376,0.4925523660740852,401,40,22.81675028702096,10.718368348012975
0.6923576208973665,0.49254744170827625,401,40,22.81675028702096,10.718368348012975
0.697281839499805,0.49254251739170085,401,40,22.81675028702096,10.718368348012975
0.7022060088704443,0.49253759312435846,401,40,22.81675028702096,10.718368348012975
0.7071301290098679,0.49253266890624847,401,40,22.81675028702096,10.718368348012975
0.7120541999186528,0.49252774473737027,401,40,22.81675028702096,10.718368348012975
0.716978221597369,0.49252282061772323,401,40,22.81675028702096,10.718368348012975
0.7219021940465804,0.4925178965473069,401,40,22.81675028702096,10.718368348012975
0.7268261172668454,0.4925129725261206,401,40,22.81675028702096,10.718368348012975
0.7317499912587184,0.49250804855416375,401,40,22.81675028702096,10.718368348012975
0.7366738160227471,0.4925031246314359,401,40,22.81675028702096,10.718368348012975
0.7415975915594764,0.49249820075793643,401,40,22.81675028702096,10.718368348012975
0.7465213178694466,0.4924932769336648,401,40,22.81675028702096,10.718368348012975
0.7514449949531943,0.49248835315862044,401,40,22.81675028702096,10.718368348012975
0.7563686228112528,0.4924834294328029,401,40,22.81675028702096,10.718368348012975
0.761292201444152,0.4924785057562115,401,40,22.81675028702096,10.718368348012975
0.7662157308524195,0.4924735821288458,401,40,22.81675028702096,10.718368348012975
0.7711392110365789,0.49246865855070526,401,40,22.81675028702096,10.718368348012975
0.7760626419971528,0.49246373502178936,401,40,22.81675028702096,10.718368348012975
0.7809860237346609,0.4924588115420976,401,40,22.81675028702096,10.718368348012975
0.7859093562496204,0.4924538881116293,401,40,22.81675028702096,10.718368348012975
0.7908326395425469,0.4924489647303842,401,40,22.81675028702096,10.718368348012975
0.7957558736139544,0.49244404139836156,401,40,22.81675028702096,10.718368348012975
0.8006790584643546,0.49243911811556096,401,40,22.81675028702096,10.718368348012975
0.8056021940942584,0.4924341948819819,401,40,22.81675028702096,10.718368348012975
0.8105252805041745,0.49242927169762385,401,40,22.81675028702096,10.718368348012975
0.8154483176946109,0.49242434856248624,401,40,22.81675028702096,10.718368348012975
0.8203713056660745,0.49241942547656864,401,40,22.81675028702096,10.718368348012975
0.8252942444190706,0.49241450243987056,401,40,22.81675028702096,10.718368348012975
0.8302171339541033,0.4924095794523914,401,40,22.81675028702096,10.718368348012975
0.8351399742716762,0.4924046565141307,401,40,22.81675028702096,10.718368348012975
0.8400627653722924,0.49239973362508793,401,40,22.81675028702096,10.718368348012975
0.8449855072564527,0.49239481078526265,401,40,22.81675028702096,10.718368348012975
0.849908199924659,0.49238988799465433,401,40,22.81675028702096,10.718368348012975
0.8548308433774112,0.4923849652532625,401,40,22.81675028702096,10.718368348012975
0.8597534376152092,0.49238004256108653,401,40,22.81675028702096,10.718368348012975
0.864675982638552,0.49237511991812605,401,40,22.81675028702096,10.718368348012975
0.8695984784479381,0.49237019732438053,401,40,22.81675028702096,10.718368348012975
0.8745209250438657,0.4923652747798495,401,40,22.81675028702096,10.718368348012975
0.8794433224268322,0.49236035228453234,401,40,22.81675028702096,10.718368348012975
0.8843656705973347,0.49235542983842867,401,40,22.81675028702096,10.718368348012975
0.88928796955587,0.49235050744153797,401,40,22.81675028702096,10.718368348012975
0.8942102193029345,0.4923455850938597,401,40,22.81675028702096,10.718368348012975
0.8991324198390244,0.4923406627953934,401,40,22.81675028702096,10.718368348012975
0.904054571164635,0.49233574054613854,401,40,22.81675028702096,10.718368348012975
0.9089766732802617,0.4923308183460947,401,40,22.81675028702096,10.718368348012975
0.9138987261864,0.4923258961952613,401,40,22.81675028702096,10.718368348012975
0.918820729883545,0.4923209740936379,401,40,22.81675028702096,10.718368348012975
0.9237426843721908,0.492316052041224,401,40,22.81675028702096,10.718368348012975
0.9286645896528323,0.4923111300380191,401,40,22.81675028702096,10.718368348012975
0.9335864457259636,0.4923062080840226,401,40,22.81675028702096,10.718368348012975
0.9385082525920788,0.4923012861792342,401,40,22.81675028702096,10.718368348012975
0.9434300102516717,0.49229636432365326,401,40,22.81675028702096,10.718368348012975
0.9483517187052363,0.4922914425172793,401,40,22.81675028702096,10.718368348012975
0.9532733779532658,0.4922865207601119,401,40,22.81675028702096,10.718368348012975
0.9581949879962542,0.4922815990521505,401,40,22.81675028702096,10.718368348012975
0.9631165488346946,0.49227667739339465,401,40,22.81675028702096,10.718368348012975
0.9680380604690803,0.49227175578384386,401,40,22.81675028702096,10.718368348012975
0.9729595228999044,0.49226683422349754,401,40,22.81675028702096,10.718368348012975
0.9778809361276597,0.49226191271235537,401,40,22.81675028702096,10.718368348012975
0.9828023001528396,0.49225699125041666,401,40,22.81675028702096,10.718368348012975
0.9877236149759366,0.49225206983768105,401,40,22.81675028702096,10.718368348012975
0.9926448805974438,0.492247148474148,401,40,22.81675028702096,10.718368348012975
0.9975660970178536,0.4922422271598171,401,40,22.81675028702096,10.718368348012975
1.002487264237659,0.4922373058946877,401,40,22.81675028702096,10.718368348012975
1.007408382257352,0.4922323846787594,401,40,22.81675028702096,10.718368348012975
1.0123294510774257,0.4922274635120317,401,40,22.81675028702096,10.718368348012975
1.0172504706983725,0.4922225423945042,401,40,22.81675028702096,10.718368348012975
1.0221714411206846,0.49221762132617625,401,40,22.81675028702096,10.718368348012975
1.0270923623448545,0.4922127003070474,401,40,22.81675028702096,10.718368348012975
1.0320132343713744,0.4922077793371172,401,40,22.81675028702096,10.718368348012975
1.0369340572007364,0.4922028584163851,401,40,22.81675028702096,10.718368348012975
1.0418548308334332,0.4921979375448507,401,40,22.81675028702096,10.718368348012975
1.0467755552699571,0.4921930167225134,401,40,22.81675028702096,10.718368348012975
1.0516962305108,0.4921880959493728,401,40,22.81675028702096,10.718368348012975
1.056616856556454,0.49218317522542837,401,40,22.81675028702096,10.718368348012975
1.0615374334074112,0.4921782545506796,401,40,22.81675028702096,10.718368348012975
1.0664579610641636,0.492173333925126,401,40,22.81675028702096,10.718368348012975
1.0713784395272037,0.49216841334876715,401,40,22.81675028702096,10.718368348012975
1.0762988687970234,0.49216349282160243,401,40,22.81675028702096,10.718368348012975
1.0812192488741146,0.4921585723436315,401,40,22.81675028702096,10.718368348012975
1.0861395797589692,0.4921536519148537,401,40,22.81675028702096,10.718368348012975
1.0910598614520794,0.49214873153526867,401,40,22.81675028702096,10.718368348012975
1.095980093953937,0.4921438112048758,401,40,22.81675028702096,10.718368348012975
1.1009002772650343,0.49213889092367474,401,40,22.81675028702096,10.718368348012975
1.1058204113858627,0.4921339706916649,401,40,22.81675028702096,10.718368348012975
1.1107404963169147,0.49212905050884587,401,40,22.81675028702096,10.718368348012975
1.1156605320586817,0.4921241303752171,401,40,22.81675028702096,10.718368348012975
1.120580518611656,0.49211921029077804,401,40,22.81675028702096,10.718368348012975
1.1255004559763286,0.4921142902555283,401,40,22.81675028702096,10.718368348012975
1.1304203441531928,0.4921093702694673,401,40,22.81675028702096,10.718368348012975
1.1353401831427392,0.49210445033259465,401,40,22.81675028702096,10.718368348012975
1.1402599729454606,0.4920995304449098,401,40,22.81675028702096,10.718368348012975
1.1451797135618478,0.49209461060641224,401,40,22.81675028702096,10.718368348012975
1.1500994049923934,0.4920896908171015,401,40,22.81675028702096,10.718368348012975
1.1550190472375887,0.49208477107697707,401,40,22.81675028702096,10.718368348012975
1.159938640297926,0.49207985138603855,401,40,22.81675028702096,10.718368348012975
1.1648581841738965,0.4920749317442853,401,40,22.81675028702096,10.718368348012975
1.1697776788659928,0.4920700121517169,401,40,22.81675028702096,10.718368348012975
1.174697124374706,0.4920650926083329,401,40,22.81675028702096,10.718368348012975
