Vout,Iout,Irradiance,Temperature,MaxVoltage,MaxPower
0.004311108547033203,0.86223,701,40,22.841830117695853,19.147331909306708
0.012933245924622269,0.86223,701,40,22.841830117695853,19.147331909306708
0.02155520801632108,0.862225602668453,701,40,22.841830117695853,19.147331909306708
0.0301769635073634,0.8622169805310754,701,40,22.841830117695853,19.147331909306708
0.03879850216354032,0.8622083585694235,701,40,22.841830117695853,19.147331909306708
0.047419834038098095,0.8621997368147947,701,40,22.841830117695853,19.147331909306708
0.056040968411123174,0.8621911152770007,701,40,22.841830117695853,19.147331909306708
0.06466191384883942,0.8621824939459882,701,40,22.841830117695853,19.147331909306708
0.07328267825843825,0.8621738728124774,701,40,22.841830117695853,19.147331909306708
0.08190326893878568,0.8621652518679018,701,40,22.841830117695853,19.147331909306708
0.09052369262722773,0.8621566311043544,701,40,22.841830117695853,19.147331909306708
0.09914395554279479,0.862148010514536,701,40,22.841830117695853,19.147331909306708
0.10776406342608151,0.8621393900917097,701,40,22.841830117695853,19.147331909306708
0.1163840215760585,0.8621307698296562,701,40,22.841830117695853,19.147331909306708
0.12500383488405148,0.862122149722635,701,40,22.841830117695853,19.147331909306708
0.13362350786510613,0.862113529765347,701,40,22.841830117695853,19.147331909306708
0.1422430446869398,0.862104909952901,701,40,22.841830117695853,19.147331909306708
0.1508624491966654,0.8620962902807819,701,40,22.841830117695853,19.147331909306708
0.15948172494545904,0.8620876707448221,701,40,22.841830117695853,19.147331909306708
0.16810087521133021,0.8620790513411744,701,40,22.841830117695853,19.147331909306708
0.1767199030201395,0.8620704320662875,701,40,22.841830117695853,19.147331909306708
0.18533881116499915,0.8620618129168836,701,40,22.841830117695853,19.147331909306708
0.1939576022241813,0.8620531938899367,701,40,22.841830117695853,19.147331909306708
0.2025762785776481,0.8620445749826537,701,40,22.841830117695853,19.147331909306708
0.21119484242230996,0.8620359561924564,701,40,22.841830117695853,19.147331909306708
0.2198132957861097,0.8620273375169649,701,40,22.841830117695853,19.147331909306708
0.22843164054102344,0.8620187189539821,701,40,22.841830117695853,19.147331909306708
0.2370498784150607,0.8620101005014802,701,40,22.841830117695853,19.147331909306708
0.24566801100334154,0.8620014821575871,701,40,22.841830117695853,19.147331909306708
0.2542860397783212,0.861992863920575,701,40,22.841830117695853,19.147331909306708
0.26290396609922834,0.8619842457888485,701,40,22.841830117695853,19.147331909306708
0.2715217912207764,0.8619756277609354,701,40,22.841830117695853,19.147331909306708
0.2801395163012058,0.8619670098354762,701,40,22.841830117695853,19.147331909306708
0.2887571424097062,0.8619583920112165,701,40,22.841830117695853,19.147331909306708
0.29737467053326816,0.8619497742869978,701,40,22.841830117695853,19.147331909306708
0.3059921015830085,0.8619411566617512,701,40,22.841830117695853,19.147331909306708
0.3146094364000071,0.8619325391344893,701,40,22.841830117695853,19.147331909306708
0.32322667576069614,0.8619239217043014,701,40,22.841830117695853,19.147331909306708
0.33184382038183413,0.8619153043703461,701,40,22.841830117695853,19.147331909306708
0.3404608709250977,0.8619066871318471,701,40,22.841830117695853,19.147331909306708
0.3490778280013188,0.8618980699880878,701,40,22.841830117695853,19.147331909306708
0.3576946921743974,0.8618894529384062,701,40,22.841830117695853,19.147331909306708
0.36631146396491265,0.8618808359821918,701,40,22.841830117695853,19.147331909306708
0.37492814385345546,0.8618722191188803,701,40,22.841830117695853,19.147331909306708
0.38354473228370584,0.8618636023479516,701,40,22.841830117695853,19.147331909306708
0.3921612296652722,0.8618549856689247,701,40,22.841830117695853,19.147331909306708
0.40077763637631386,0.8618463690813561,701,40,22.841830117695853,19.147331909306708
0.4093939527659599,0.8618377525848362,701,40,22.841830117695853,19.147331909306708
0.41801017915654315,0.8618291361789868,701,40,22.841830117695853,19.147331909306708
0.42662631584566185,0.8618205198634589,701,40,22.841830117695853,19.147331909306708
0.43524236310808295,0.8618119036379299,701,40,22.841830117695853,19.147331909306708
0.44385832119749846,0.8618032875021024,701,40,22.841830117695853,19.147331909306708
0.4524741903481475,0.8617946714557017,701,40,22.841830117695853,19.147331909306708
0.4610899707763123,0.8617860554984738,701,40,22.841830117695853,19.147331909306708
0.4697056626817008,0.8617774396301847,701,40,22.841830117695853,19.147331909306708
0.4783212662487208,0.8617688238506181,701,40,22.841830117695853,19.147331909306708
0.48693678164765797,0.8617602081595744,701,40,22.841830117695853,19.147331909306708
0.49555220903576225,0.861751592556869,701,40,22.841830117695853,19.147331909306708
0.5041675485582505,0.8617429770423316,701,40,22.841830117695853,19.147331909306708
0.5127828003492332,0.8617343616158051,701,40,22.841830117695853,19.147331909306708
0.5213979645325675,0.861725746277144,701,40,22.841830117695853,19.147331909306708
0.5300130412226478,0.8617171310262146,701,40,22.841830117695853,19.147331909306708
0.5386280305251329,0.8617085158628929,701,40,22.841830117695853,19.147331909306708
0.5472429325376181,0.8616999007870643,701,40,22.841830117695853,19.147331909306708
0.5558577473502558,0.8616912857986233,701,40,22.841830117695853,19.147331909306708
0.5644724750463286,0.8616826708974723,701,40,22.841830117695853,19.147331909306708
0.5730871157027768,0.8616740560835212,701,40,22.841830117695853,19.147331909306708
0.5817016693906876,0.8616654413566867,701,40,22.841830117695853,19.147331909306708
0.5903161361757443,0.8616568267168917,701,40,22.841830117695853,19.147331909306708
0.5989305161186437,0.8616482121640652,701,40,22.841830117695853,19.147331909306708
0.6075448092754774,0.8616395976981417,701,40,22.841830117695853,19.147331909306708
0.6161590156980885,0.8616309833190602,701,40,22.841830117695853,19.147331909306708
0.6247731354343968,0.8616223690267648,701,40,22.841830117695853,19.147331909306708
0.6333871685287018,0.8616137548212036,701,40,22.841830117695853,19.147331909306708
0.6420011150219606,0.8616051407023287,701,40,22.841830117695853,19.147331909306708
0.650614974952045,0.8615965266700959,701,40,22.841830117695853,19.147331909306708
0.6592287483539794,0.861587912724464,701,40,22.841830117695853,19.147331909306708
0.6678424352601595,0.8615792988653953,701,40,22.841830117695853,19.147331909306708
0.6764560357005547,0.8615706850928548,701,40,22.841830117695853,19.147331909306708
0.6850695497028947,0.86156207140681,701,40,22.841830117695853,19.147331909306708
0.6936829772928419,0.861553457807231,701,40,22.841830117695853,19.147331909306708
0.7022963184941505,0.8615448442940901,701,40,22.841830117695853,19.147331909306708
0.710909573328813,0.8615362308673614,701,40,22.841830117695853,19.147331909306708
0.7195227418171964,0.8615276175270214,701,40,22.841830117695853,19.147331909306708
0.7281358239781665,0.8615190042730482,701,40,22.841830117695853,19.147331909306708
0.7367488198292037,0.8615103911054212,701,40,22.841830117695853,19.147331909306708
0.7453617293865102,0.8615017780241214,701,40,22.841830117695853,19.147331909306708
0.7539745526651072,0.8614931650291318,701,40,22.841830117695853,19.147331909306708
0.7625872896789265,0.8614845521204357,701,40,22.841830117695853,19.147331909306708
0.771199940440895,0.8614759392980185,701,40,22.841830117695853,19.147331909306708
0.77981250496301,0.8614673265618659,701,40,22.841830117695853,19.147331909306708
0.7884249832564125,0.8614587139119653,701,40,22.841830117695853,19.147331909306708
0.7970373753314528,0.8614501013483044,701,40,22.841830117695853,19.147331909306708
0.8056496811977505,0.8614414888708722,701,40,22.841830117695853,19.147331909306708
0.8142619008642518,0.8614328764796585,701,40,22.841830117695853,19.147331909306708
0.8228740343392802,0.8614242641746535,701,40,22.841830117695853,19.147331909306708
0.8314860816305856,0.8614156519558481,701,40,22.841830117695853,19.147331909306708
0.8400980427453874,0.8614070398232343,701,40,22.841830117695853,19.147331909306708
0.8487099176904158,0.8613984277768043,701,40,22.841830117695853,19.147331909306708
0.8573217064719498,0.8613898158165507,701,40,22.841830117695853,19.147331909306708
0.8659334090958515,0.8613812039424669,701,40,22.841830117695853,19.147331909306708
0.8745450255675971,0.8613725921545465,701,40,22.841830117695853,19.147331909306708
0.8831565558923091,0.8613639804527838,701,40,22.841830117695853,19.147331909306708
0.8917680000747811,0.8613553688371732,701,40,22.841830117695853,19.147331909306708
0.9003793581195049,0.8613467573077097,701,40,22.841830117695853,19.147331909306708
0.9089906300306918,0.8613381458643884,701,40,22.841830117695853,19.147331909306708
0.9176018158122966,0.8613295345072048,701,40,22.841830117695853,19.147331909306708
0.926212915468035,0.8613209232361547,701,40,22.841830117695853,19.147331909306708
0.9348239290014034,0.8613123120512343,701,40,22.841830117695853,19.147331909306708
0.9434348564156957,0.8613037009524397,701,40,22.841830117695853,19.147331909306708
0.9520456977140181,0.8612950899397674,701,40,22.841830117695853,19.147331909306708
0.9606564528993043,0.8612864790132143,701,40,22.841830117695853,19.147331909306708
0.9692671219743283,0.8612778681727771,701,40,22.841830117695853,19.147331909306708
0.9778777049417171,0.8612692574184528,701,40,22.841830117695853,19.147331909306708
0.9864882018039614,0.861260646750239,701,40,22.841830117695853,19.147331909306708
0.995098612563427,0.8612520361681326,701,40,22.841830117695853,19.147331909306708
1.0037089372223633,0.8612434256721314,701,40,22.841830117695853,19.147331909306708
1.0123191757829135,0.861234815262233,701,40,22.841830117695853,19.147331909306708
1.0209293282471217,0.8612262049384352,701,40,22.841830117695853,19.147331909306708
1.029539394616941,0.8612175947007357,701,40,22.841830117695853,19.147331909306708
1.03814937489424,0.8612089845491324,701,40,22.841830117695853,19.147331909306708
1.0467592690808112,0.8612003744836236,701,40,22.841830117695853,19.147331909306708
1.0553690771783732,0.8611917645042073,701,40,22.841830117695853,19.147331909306708
1.0639787991885805,0.8611831546108818,701,40,22.841830117695853,19.147331909306708
1.0725884351130255,0.8611745448036452,701,40,22.841830117695853,19.147331909306708
1.0811979849532443,0.8611659350824961,701,40,22.841830117695853,19.147331909306708
1.0898074487107214,0.8611573254474325,701,40,22.841830117695853,19.147331909306708
1.0984168263868932,0.8611487158984533,701,40,22.841830117695853,19.147331909306708
1.107026117983152,0.8611401064355568,701,40,22.841830117695853,19.147331909306708
1.1156353235008483,0.8611314970587416,701,40,22.841830117695853,19.147331909306708
1.1242444429412957,0.8611228877680063,701,40,22.841830117695853,19.147331909306708
1.132853476305773,0.8611142785633495,701,40,22.841830117695853,19.147331909306708
1.141462423595526,0.86110566944477,701,40,22.841830117695853,19.147331909306708
1.1500712848117718,0.8610970604122664,701,40,22.841830117695853,19.147331909306708
1.1586800599556992,0.8610884514658376,701,40,22.841830117695853,19.147331909306708
1.1672887490284725,0.8610798426054822,701,40,22.841830117695853,19.147331909306708
1.1758973520312321,0.8610712338311992,701,40,22.841830117695853,19.147331909306708
1.184505868965097,0.8610626251429874,701,40,22.841830117695853,19.147331909306708
1.1931142998311663,0.8610540165408455,701,40,22.841830117695853,19.147331909306708
1.2017226446305211,0.8610454080247725,701,40,22.841830117695853,19.147331909306708
1.2103309033642249,0.8610367995947672,701,40,22.841830117695853,19.147331909306708
1.2189390760333254,0.8610281912508287,701,40,22.841830117695853,19.147331909306708
1.227547162638857,0.8610195829929559,701,40,22.841830117695853,19.147331909306708
1.2361551631818397,0.8610109748211476,701,40,22.841830117695853,19.147331909306708
1.2447630776632812,0.8610023667354029,701,40,22.841830117695853,19.147331909306708
1.253370906084179,0.8609937587357207,701,40,22.841830117695853,19.147331909306708
1.2619786484455184,0.8609851508221001,701,40,22.841830117695853,19.147331909306708
1.2705863047482764,0.86097654299454,701,40,22.841830117695853,19.147331909306708
1.2791938749934202,0.8609679352530395,701,40,22.841830117695853,19.147331909306708
1.2878013591819095,0.8609593275975975,701,40,22.841830117695853,19.147331909306708
1.2964087573146956,0.8609507200282132,701,40,22.841830117695853,19.147331909306708
1.3050160693927235,0.8609421125448854,701,40,22.841830117695853,19.147331909306708
1.3136232954169307,0.8609335051476134,701,40,22.841830117695853,19.147331909306708
1.3222304353882501,0.860924897836396,701,40,22.841830117695853,19.147331909306708
1.3308374893076074,0.8609162906112326,701,40,22.841830117695853,19.147331909306708
1.339444457175925,0.860907683472122,701,40,22.841830117695853,19.147331909306708
1.3480513389941196,0.8608990764190634,701,40,22.841830117695853,19.147331909306708
1.3566581347631033,0.8608904694520558,701,40,22.841830117695853,19.147331909306708
1.365264844483784,0.8608818625710983,701,40,22.841830117695853,19.147331909306708
1.3738714681570674,0.86087325577619,701,40,22.841830117695853,19.147331909306708
1.382478005783854,0.86086464906733,701,40,22.841830117695853,19.147331909306708
1.391084457365042,0.8608560424445174,701,40,22.841830117695853,19.147331909306708
1.3996908229015272,0.8608474359077513,701,40,22.841830117695853,19.147331909306708
1.408297102394202,0.8608388294570307,701,40,22.841830117695853,19.147331909306708
1.416903295843956,0.8608302230923549,701,40,22.841830117695853,19.147331909306708
1.4255094032516766,0.8608216168137229,701,40,22.841830117695853,19.147331909306708
1.4341154246182504,0.8608130106211338,701,40,22.841830117695853,19.147331909306708
1.4427213599445599,0.8608044045145867,701,40,22.841830117695853,19.147331909306708
1.4513272092314875,0.8607957984940807,701,40,22.841830117695853,19.147331909306708
1.4599329724799133,0.860787192559615,701,40,22.841830117695853,19.147331909306708
1.4685386496907153,0.8607785867111887,701,40,22.841830117695853,19.147331909306708
1.4771442408647717,0.8607699809488009,701,40,22.841830117695853,19.147331909306708
1.4857497460029578,0.8607613752724507,701,40,22.841830117695853,19.147331909306708
1.4943551651061484,0.8607527696821372,701,40,22.841830117695853,19.147331909306708
1.5029604981752167,0.8607441641778596,701,40,22.841830117695853,19.147331909306708
1.5115657452110351,0.8607355587596169,701,40,22.841830117695853,19.147331909306708
1.5201709062144761,0.8607269534274085,701,40,22.841830117695853,19.147331909306708
1.5287759811864092,0.8607183481812332,701,40,22.841830117695853,19.147331909306708
1.5373809701277046,0.8607097430210903,701,40,22.841830117695853,19.147331909306708
1.5459858730392313,0.8607011379469788,701,40,22.841830117695853,19.147331909306708
1.554590689921858,0.860692532958898,701,40,22.841830117695853,19.147331909306708
1.5631954207764522,0.860683928056847,701,40,22.841830117695853,19.147331909306708
1.571800065603881,0.8606753232408249,701,40,22.841830117695853,19.147331909306708
1.5804046244050107,0.8606667185108308,701,40,22.841830117695853,19.147331909306708
1.589009097180708,0.8606581138668639,701,40,22.841830117695853,19.147331909306708
1.5976134839318379,0.8606495093089231,701,40,22.841830117695853,19.147331909306708
1.6062177846592653,0.860640904837008,701,40,22.841830117695853,19.147331909306708
1.614821999363856,0.8606323004511173,701,40,22.841830117695853,19.147331909306708
1.6234261280464735,0.8606236961512503,701,40,22.841830117695853,19.147331909306708
1.6320301707079823,0.8606150919374062,701,40,22.841830117695853,19.147331909306708
1.6406341273492464,0.8606064878095839,701,40,22.841830117695853,19.147331909306708
1.6492379979711278,0.8605978837677829,701,40,22.841830117695853,19.147331909306708
1.6578417825744916,0.8605892798120021,701,40,22.841830117695853,19.147331909306708
1.6664454811601994,0.8605806759422405,701,40,22.841830117695853,19.147331909306708
1.675049093729114,0.8605720721584976,701,40,22.841830117695853,19.147331909306708
1.683652620282098,0.8605634684607723,701,40,22.841830117695853,19.147331909306708
1.692256060820014,0.8605548648490637,701,40,22.841830117695853,19.147331909306708
1.7008594153437238,0.8605462613233711,701,40,22.841830117695853,19.147331909306708
1.7094626838540898,0.8605376578836935,701,40,22.841830117695853,19.147331909306708
1.7180658663519726,0.8605290545300301,701,40,22.841830117695853,19.147331909306708
1.7266689628382346,0.8605204512623802,701,40,22.841830117695853,19.147331909306708
1.7352719733137372,0.8605118480807427,701,40,22.841830117695853,19.147331909306708
1.7438748977793415,0.8605032449851167,701,40,22.841830117695853,19.147331909306708
1.7524777362359087,0.8604946419755015,701,40,22.841830117695853,19.147331909306708
1.7610804886843001,0.8604860390518962,701,40,22.841830117695853,19.147331909306708
1.7696831551253764,0.8604774362143,701,40,22.841830117695853,19.147331909306708
1.7782857355599988,0.8604688334627119,701,40,22.841830117695853,19.147331909306708
1.7868882299890279,0.8604602307971311,701,40,22.841830117695853,19.147331909306708
1.7954906384133247,0.8604516282175567,701,40,22.841830117695853,19.147331909306708
1.8040929608337497,0.8604430257239879,701,40,22.841830117695853,19.147331909306708
1.8126951972511633,0.860434423316424,701,40,22.841830117695853,19.147331909306708
1.8212973476664267,0.8604258209948638,701,40,22.841830117695853,19.147331909306708
1.8298994120803995,0.8604172187593065,701,40,22.841830117695853,19.147331909306708
1.8385013904939427,0.8604086166097515,701,40,22.841830117695853,19.147331909306708
1.8471032829079164,0.8604000145461977,701,40,22.841830117695853,19.147331909306708
1.855705089323181,0.8603914125686445,701,40,22.841830117695853,19.147331909306708
1.8643068097405966,0.8603828106770907,701,40,22.841830117695853,19.147331909306708
1.8729084441610235,0.8603742088715356,701,40,22.841830117695853,19.147331909306708
1.8815099925853216,0.8603656071519784,701,40,22.841830117695853,19.147331909306708
1.8901114550143516,0.8603570055184181,701,40,22.841830117695853,19.147331909306708
1.898712831448973,0.860348403970854,701,40,22.841830117695853,19.147331909306708
1.9073141218900458,0.8603398025092851,701,40,22.841830117695853,19.147331909306708
1.9159153263384305,0.8603312011337106,701,40,22.841830117695853,19.147331909306708
1.9245164447949872,0.8603225998441297,701,40,22.841830117695853,19.147331909306708
1.9331174772605753,0.8603139986405415,701,40,22.841830117695853,19.147331909306708
1.941718423736055,0.8603053975229451,701,40,22.841830117695853,19.147331909306708
1.9503192842222865,0.8602967964913396,701,40,22.841830117695853,19.147331909306708
1.958920058720129,0.8602881955457242,701,40,22.841830117695853,19.147331909306708
1.9675207472304428,0.8602795946860982,701,40,22.841830117695853,19.147331909306708
1.9761213497540875,0.8602709939124603,701,40,22.841830117695853,19.147331909306708
1.984721866291923,0.8602623932248101,701,40,22.841830117695853,19.147331909306708
1.9933222968448097,0.8602537926231466,701,40,22.841830117695853,19.147331909306708
2.001922641413607,0.8602451921074689,701,40,22.841830117695853,19.147331909306708
2.0105228999991747,0.860236591677776,701,40,22.841830117695853,19.147331909306708
2.0191230726023717,0.8602279913340672,701,40,22.841830117695853,19.147331909306708
2.027723159224058,0.8602193910763417,701,40,22.841830117695853,19.147331909306708
2.036323159865094,0.8602107909045985,701,40,22.841830117695853,19.147331909306708
2.044923074526339,0.8602021908188369,701,40,22.841830117695853,19.147331909306708
