Vout,Iout,Irradiance,Temperature,MaxVoltage,MaxPower
0.008475968500302883,1.69521,1401,30,22.299969328347352,37.306584594969515
0.025427748772228892,1.69521,1401,30,22.299969328347352,37.306584594969515
0.04237918441871387,1.6952013545104998,1401,30,22.299969328347352,37.306584594969515
0.059330213872536904,1.6951844027302279,1401,30,22.299969328347352,37.306584594969515
0.07628081701246209,1.695167451295446,1401,30,22.299969328347352,37.306584594969515
0.09323101360393893,1.6951505002676872,1401,30,22.299969328347352,37.306584594969515
0.11018082189232585,1.6951335496662425,1401,30,22.299969328347352,37.306584594969515
0.1271302587194728,1.6951165994713462,1401,30,22.299969328347352,37.306584594969515
0.14407933963152186,1.6950996496647528,1401,30,22.299969328347352,37.306584594969515
0.16102807897860066,1.6950827002296207,1401,30,22.299969328347352,37.306584594969515
0.17797649000684587,1.6950657511504037,1401,30,22.299969328347352,37.306584594969515
0.19492458494334597,1.6950488024127515,1401,30,22.299969328347352,37.306584594969515
0.21187237507454817,1.6950318540034182,1401,30,22.299969328347352,37.306584594969515
0.2288198708186332,1.6950149059101765,1401,30,22.299969328347352,37.306584594969515
0.2457670817923209,1.6949979581217403,1401,30,22.299969328347352,37.306584594969515
0.26271401687253576,1.6949810106276908,1401,30,22.299969328347352,37.306584594969515
0.27966068425332824,1.694964063418412,1401,30,22.299969328347352,37.306584594969515
0.2966070914984158,1.6949471164850265,1401,30,22.299969328347352,37.306584594969515
0.313553245589682,1.6949301698193404,1401,30,22.299969328347352,37.306584594969515
0.33049915297194377,1.69491322341379,1401,30,22.299969328347352,37.306584594969515
0.34744481959427365,1.6948962772613934,1401,30,22.299969328347352,37.306584594969515
0.3643902509481439,1.6948793313557058,1401,30,22.299969328347352,37.306584594969515
0.38133545210263425,1.694862385690778,1401,30,22.299969328347352,37.306584594969515
0.3982804277369319,1.6948454402611188,1401,30,22.299969328347352,37.306584594969515
0.41522518217033044,1.694828495061659,1401,30,22.299969328347352,37.306584594969515
0.43216971938992027,1.6948115500877192,1401,30,22.299969328347352,37.306584594969515
0.4491140430761493,1.6947946053349803,1401,30,22.299969328347352,37.306584594969515
0.46605815662641625,1.6947776607994551,1401,30,22.299969328347352,37.306584594969515
0.48300206317684885,1.6947607164774634,1401,30,22.299969328347352,37.306584594969515
0.49994576562240667,1.6947437723656076,1401,30,22.299969328347352,37.306584594969515
0.5168892666354368,1.6947268284607515,1401,30,22.299969328347352,37.306584594969515
0.5338325686828018,1.6947098847600004,1401,30,22.299969328347352,37.306584594969515
0.5507756740416906,1.694692941260682,1401,30,22.299969328347352,37.306584594969515
0.5677185848142118,1.6946759979603288,1401,30,22.299969328347352,37.306584594969515
0.5846613029408643,1.6946590548566642,1401,30,22.299969328347352,37.306584594969515
0.6016038302129729,1.694642111947586,1401,30,22.299969328347352,37.306584594969515
0.6185461682841653,1.6946251692311538,1401,30,22.299969328347352,37.306584594969515
0.6354883186809661,1.694608226705576,1401,30,22.299969328347352,37.306584594969515
0.652430282812578,1.694591284369199,1401,30,22.299969328347352,37.306584594969515
0.6693720619799065,1.6945743422204964,1401,30,22.299969328347352,37.306584594969515
0.6863136573838946,1.694557400258059,1401,30,22.299969328347352,37.306584594969515
0.703255070133213,1.6945404584805859,1401,30,22.299969328347352,37.306584594969515
0.7201963012513594,1.6945235168868762,1401,30,22.299969328347352,37.306584594969515
0.7371373516832124,1.694506575475821,1401,30,22.299969328347352,37.306584594969515
0.7540782223010806,1.694489634246397,1401,30,22.299969328347352,37.306584594969515
0.7710189139102863,1.6944726931976593,1401,30,22.299969328347352,37.306584594969515
0.7879594272543186,1.6944557523287356,1401,30,22.299969328347352,37.306584594969515
0.8048997630195919,1.6944388116388205,1401,30,22.299969328347352,37.306584594969515
0.8218399218398375,1.6944218711271706,1401,30,22.299969328347352,37.306584594969515
0.8387799043001566,1.6944049307930993,1401,30,22.299969328347352,37.306584594969515
0.8557197109407616,1.6943879906359731,1401,30,22.299969328347352,37.306584594969515
0.8726593422604306,1.6943710506552068,1401,30,22.299969328347352,37.306584594969515
0.8895987987196953,1.6943541108502602,1401,30,22.299969328347352,37.306584594969515
0.9065380807437832,1.6943371712206345,1401,30,22.299969328347352,37.306584594969515
0.9234771887253352,1.6943202317658694,1401,30,22.299969328347352,37.306584594969515
0.9404161230269111,1.6943032924855392,1401,30,22.299969328347352,37.306584594969515
0.957354883983306,1.6942863533792516,1401,30,22.299969328347352,37.306584594969515
0.9742934719036848,1.694269414446644,1401,30,22.299969328347352,37.306584594969515
0.9912318870735554,1.6942524756873814,1401,30,22.299969328347352,37.306584594969515
1.0081701297565884,1.694235537101155,1401,30,22.299969328347352,37.306584594969515
1.0251082001962974,1.694218598687679,1401,30,22.299969328347352,37.306584594969515
1.04204609861759,1.6942016604466898,1401,30,22.299969328347352,37.306584594969515
1.0589838252281993,1.694184722377944,1401,30,22.299969328347352,37.306584594969515
1.0759213802200054,1.6941677844812164,1401,30,22.299969328347352,37.306584594969515
1.0928587637702551,1.6941508467562996,1401,30,22.299969328347352,37.306584594969515
1.1097959760426874,1.6941339092030017,1401,30,22.299969328347352,37.306584594969515
1.1267330171885737,1.694116971821145,1401,30,22.299969328347352,37.306584594969515
1.1436698873476763,1.6941000346105666,1401,30,22.299969328347352,37.306584594969515
1.1606065866491349,1.6940830975711143,1401,30,22.299969328347352,37.306584594969515
1.1775431152122815,1.694066160702649,1401,30,22.299969328347352,37.306584594969515
1.1944794731473989,1.6940492240050413,1401,30,22.299969328347352,37.306584594969515
1.2114156605564133,1.6940322874781717,1401,30,22.299969328347352,37.306584594969515
1.228351677533539,1.6940153511219302,1401,30,22.299969328347352,37.306584594969515
1.2452875241658727,1.6939984149362148,1401,30,22.299969328347352,37.306584594969515
1.2622232005339378,1.6939814789209315,1401,30,22.299969328347352,37.306584594969515
1.2791587067121948,1.6939645430759926,1401,30,22.299969328347352,37.306584594969515
1.2960940427695036,1.6939476074013182,1401,30,22.299969328347352,37.306584594969515
1.3130292087695563,1.6939306718968337,1401,30,22.299969328347352,37.306584594969515
1.3299642047712756,1.69391373656247,1401,30,22.299969328347352,37.306584594969515
1.3468990308291804,1.6938968013981635,1401,30,22.299969328347352,37.306584594969515
1.363833686993724,1.6938798664038552,1401,30,22.299969328347352,37.306584594969515
1.380768173311609,1.6938629315794909,1401,30,22.299969328347352,37.306584594969515
1.3977024898260755,1.6938459969250197,1401,30,22.299969328347352,37.306584594969515
1.4146366365771657,1.6938290624403953,1401,30,22.299969328347352,37.306584594969515
1.431570613601971,1.6938121281255742,1401,30,22.299969328347352,37.306584594969515
1.44850442093486,1.6937951939805167,1401,30,22.299969328347352,37.306584594969515
1.4654380586076867,1.6937782600051854,1401,30,22.299969328347352,37.306584594969515
1.4823715266499846,1.693761326199546,1401,30,22.299969328347352,37.306584594969515
1.4993048250891448,1.6937443925635665,1401,30,22.299969328347352,37.306584594969515
1.5162379539505815,1.6937274590972176,1401,30,22.299969328347352,37.306584594969515
1.533170913257883,1.6937105258004717,1401,30,22.299969328347352,37.306584594969515
1.5501037030329534,1.6936935926733037,1401,30,22.299969328347352,37.306584594969515
1.567036323296142,1.6936766597156896,1401,30,22.299969328347352,37.306584594969515
1.583968774066362,1.693659726927608,1401,30,22.299969328347352,37.306584594969515
1.6009010553612013,1.693642794309038,1401,30,22.299969328347352,37.306584594969515
1.617833167197026,1.6936258618599611,1401,30,22.299969328347352,37.306584594969515
1.6347651095890723,1.6936089295803596,1401,30,22.299969328347352,37.306584594969515
1.651696882551534,1.693591997470217,1401,30,22.299969328347352,37.306584594969515
1.6686284860976435,1.693575065529518,1401,30,22.299969328347352,37.306584594969515
1.6855599202397453,1.6935581337582488,1401,30,22.299969328347352,37.306584594969515
1.7024911849893642,1.6935412021563958,1401,30,22.299969328347352,37.306584594969515
1.7194222803572687,1.693524270723947,1401,30,22.299969328347352,37.306584594969515
1.7363532063535285,1.6935073394608906,1401,30,22.299969328347352,37.306584594969515
1.7532839629875687,1.6934904083672158,1401,30,22.299969328347352,37.306584594969515
1.7702145502682198,1.6934734774429125,1401,30,22.299969328347352,37.306584594969515
1.7871449682037626,1.6934565466879716,1401,30,22.299969328347352,37.306584594969515
1.804075216801972,1.6934396161023841,1401,30,22.299969328347352,37.306584594969515
1.821005296070154,1.6934226856861416,1401,30,22.299969328347352,37.306584594969515
1.837935206015182,1.6934057554392365,1401,30,22.299969328347352,37.306584594969515
1.854864946643532,1.6933888253616614,1401,30,22.299969328347352,37.306584594969515
1.871794517961312,1.6933718954534094,1401,30,22.299969328347352,37.306584594969515
1.8887239199742885,1.693354965714474,1401,30,22.299969328347352,37.306584594969515
1.9056531526879164,1.6933380361448493,1401,30,22.299969328347352,37.306584594969515
1.9225822161073598,1.6933211067445293,1401,30,22.299969328347352,37.306584594969515
1.9395111102375169,1.6933041775135085,1401,30,22.299969328347352,37.306584594969515
1.956439835083038,1.693287248451782,1401,30,22.299969328347352,37.306584594969515
1.9733683906483461,1.6932703195593448,1401,30,22.299969328347352,37.306584594969515
1.9902967769376543,1.6932533908361922,1401,30,22.299969328347352,37.306584594969515
2.007224993954982,1.6932364622823197,1401,30,22.299969328347352,37.306584594969515
2.0241530417041687,1.6932195338977234,1401,30,22.299969328347352,37.306584594969515
2.0410809201888895,1.693202605682399,1401,30,22.299969328347352,37.306584594969515
2.058008629412666,1.6931856776363425,1401,30,22.299969328347352,37.306584594969515
2.07493616937888,1.6931687497595507,1401,30,22.299969328347352,37.306584594969515
2.0918635400907815,1.6931518220520196,1401,30,22.299969328347352,37.306584594969515
2.1087907415515033,1.6931348945137463,1401,30,22.299969328347352,37.306584594969515
2.1257177737640656,1.6931179671447272,1401,30,22.299969328347352,37.306584594969515
2.1426446367313865,1.693101039944959,1401,30,22.299969328347352,37.306584594969515
2.1595713304562896,1.6930841129144394,1401,30,22.299969328347352,37.306584594969515
2.176497854941512,1.6930671860531648,1401,30,22.299969328347352,37.306584594969515
2.19342421018971,1.6930502593611325,1401,30,22.299969328347352,37.306584594969515
2.2103503962034665,1.69303333283834,1401,30,22.299969328347352,37.306584594969515
2.2272764129852938,1.6930164064847844,1401,30,22.299969328347352,37.306584594969515
2.244202260537643,1.6929994803004633,1401,30,22.299969328347352,37.306584594969515
2.261127938862906,1.6929825542853743,1401,30,22.299969328347352,37.306584594969515
2.278053447963422,1.6929656284395145,1401,30,22.299969328347352,37.306584594969515
2.294978787841477,1.6929487027628818,1401,30,22.299969328347352,37.306584594969515
2.311903958499316,1.692931777255474,1401,30,22.299969328347352,37.306584594969515
2.328828959939137,1.6929148519172883,1401,30,22.299969328347352,37.306584594969515
2.3457537921631024,1.692897926748323,1401,30,22.299969328347352,37.306584594969515
2.3626784551733357,1.6928810017485758,1401,30,22.299969328347352,37.306584594969515
2.37960294897193,1.6928640769180443,1401,30,22.299969328347352,37.306584594969515
2.396527273560945,1.6928471522567266,1401,30,22.299969328347352,37.306584594969515
2.4134514289424134,1.6928302277646206,1401,30,22.299969328347352,37.306584594969515
2.4303754151183403,1.6928133034417239,1401,30,22.299969328347352,37.306584594969515
2.4472992320907085,1.692796379288035,1401,30,22.299969328347352,37.306584594969515
2.4642228798614765,1.6927794553035513,1401,30,22.299969328347352,37.306584594969515
2.481146358432585,1.6927625314882715,1401,30,22.299969328347352,37.306584594969515
2.498069667805952,1.6927456078421932,1401,30,22.299969328347352,37.306584594969515
2.5149928079834805,1.6927286843653144,1401,30,22.299969328347352,37.306584594969515
2.5319157789670563,1.6927117610576334,1401,30,22.299969328347352,37.306584594969515
2.548838580758551,1.6926948379191482,1401,30,22.299969328347352,37.306584594969515
2.565761213359821,1.692677914949857,1401,30,22.299969328347352,37.306584594969515
2.582683676772712,1.6926609921497577,1401,30,22.299969328347352,37.306584594969515
2.599605970999055,1.6926440695188487,1401,30,22.299969328347352,37.306584594969515
2.616528096040673,1.6926271470571281,1401,30,22.299969328347352,37.306584594969515
2.633450051899377,1.692610224764594,1401,30,22.299969328347352,37.306584594969515
2.650371838576971,1.6925933026412447,1401,30,22.299969328347352,37.306584594969515
2.6672934560752473,1.6925763806870782,1401,30,22.299969328347352,37.306584594969515
2.6842149043959918,1.692559458902093,1401,30,22.299969328347352,37.306584594969515
2.7011361835409833,1.6925425372862868,1401,30,22.299969328347352,37.306584594969515
2.718057293511995,1.6925256158396582,1401,30,22.299969328347352,37.306584594969515
2.734978234310792,1.6925086945622054,1401,30,22.299969328347352,37.306584594969515
2.7518990059391335,1.6924917734539264,1401,30,22.299969328347352,37.306584594969515
2.7688196083987746,1.6924748525148199,1401,30,22.299969328347352,37.306584594969515
2.785740041691466,1.6924579317448836,1401,30,22.299969328347352,37.306584594969515
2.8026603058189523,1.6924410111441162,1401,30,22.299969328347352,37.306584594969515
2.8195804007829746,1.6924240907125154,1401,30,22.299969328347352,37.306584594969515
2.8365003265852704,1.69240717045008,1401,30,22.299969328347352,37.306584594969515
2.8534200832275727,1.692390250356808,1401,30,22.299969328347352,37.306584594969515
2.870339670711612,1.6923733304326978,1401,30,22.299969328347352,37.306584594969515
2.887259089039117,1.6923564106777476,1401,30,22.299969328347352,37.306584594969515
2.904178338211811,1.6923394910919554,1401,30,22.299969328347352,37.306584594969515
2.921097418231416,1.6923225716753199,1401,30,22.299969328347352,37.306584594969515
2.938016329099653,1.6923056524278393,1401,30,22.299969328347352,37.306584594969515
2.9549350708182383,1.6922887333495116,1401,30,22.299969328347352,37.306584594969515
2.971853643388886,1.6922718144403353,1401,30,22.299969328347352,37.306584594969515
2.988772046813312,1.6922548957003085,1401,30,22.299969328347352,37.306584594969515
3.005690281093227,1.6922379771294298,1401,30,22.299969328347352,37.306584594969515
3.0226083462303404,1.6922210587276971,1401,30,22.299969328347352,37.306584594969515
3.039526242226362,1.6922041404951091,1401,30,22.299969328347352,37.306584594969515
3.0564439690829976,1.6921872224316639,1401,30,22.299969328347352,37.306584594969515
3.0733615268019543,1.6921703045373597,1401,30,22.299969328347352,37.306584594969515
3.0902789153849377,1.692153386812195,1401,30,22.299969328347352,37.306584594969515
3.1071961348336496,1.6921364692561678,1401,30,22.299969328347352,37.306584594969515
3.124113185149794,1.6921195518692764,1401,30,22.299969328347352,37.306584594969515
3.141030066335072,1.6921026346515196,1401,30,22.299969328347352,37.306584594969515
3.1579467783911856,1.6920857176028952,1401,30,22.299969328347352,37.306584594969515
3.1748633213198345,1.6920688007234015,1401,30,22.299969328347352,37.306584594969515
3.1917796951227184,1.6920518840130372,1401,30,22.299969328347352,37.306584594969515
3.2086958998015347,1.6920349674718003,1401,30,22.299969328347352,37.306584594969515
3.2256119353579837,1.692018051099689,1401,30,22.299969328347352,37.306584594969515
3.242527801793761,1.692001134896702,1401,30,22.299969328347352,37.306584594969515
3.259443499110565,1.6919842188628371,1401,30,22.299969328347352,37.306584594969515
3.2763590273100918,1.6919673029980928,1401,30,22.299969328347352,37.306584594969515
3.2932743863940366,1.6919503873024677,1401,30,22.299969328347352,37.306584594969515
3.310189576364096,1.6919334717759598,1401,30,22.299969328347352,37.306584594969515
3.327104597221965,1.6919165564185674,1401,30,22.299969328347352,37.306584594969515
3.344019448969339,1.691899641230289,1401,30,22.299969328347352,37.306584594969515
3.360934131607912,1.6918827262111225,1401,30,22.299969328347352,37.306584594969515
3.3778486451393785,1.6918658113610667,1401,30,22.299969328347352,37.306584594969515
3.394762989565432,1.6918488966801195,1401,30,22.299969328347352,37.306584594969515
3.4116771648877666,1.6918319821682797,1401,30,22.299969328347352,37.306584594969515
3.4285911711080748,1.691815067825545,1401,30,22.299969328347352,37.306584594969515
3.4455050082280514,1.6917981536519142,1401,30,22.299969328347352,37.306584594969515
3.462418676249389,1.6917812396473852,1401,30,22.299969328347352,37.306584594969515
3.4793321751737794,1.6917643258119568,1401,30,22.299969328347352,37.306584594969515
3.4962455050029155,1.6917474121456268,1401,30,22.299969328347352,37.306584594969515
3.513158665738491,1.6917304986483936,1401,30,22.299969328347352,37.306584594969515
3.5300716573821953,1.691713585320256,1401,30,22.299969328347352,37.306584594969515
3.5469844799357237,1.6916966721612117,1401,30,22.299969328347352,37.306584594969515
3.563897133400767,1.6916797591712593,1401,30,22.299969328347352,37.306584594969515
3.5808096177790167,1.691662846350397,1401,30,22.299969328347352,37.306584594969515
3.5977219330721644,1.6916459336986234,1401,30,22.299969328347352,37.306584594969515
3.6146340792819025,1.6916290212159364,1401,30,22.299969328347352,37.306584594969515
3.6315460564099227,1.6916121089023346,1401,30,22.299969328347352,37.306584594969515
3.648457864457914,1.691595196757816,1401,30,22.299969328347352,37.306584594969515
3.6653695034275704,1.6915782847823793,1401,30,22.299969328347352,37.306584594969515
3.682280973320582,1.6915613729760226,1401,30,22.299969328347352,37.306584594969515
3.6991922741386403,1.691544461338744,1401,30,22.299969328347352,37.306584594969515
3.7161034058834375,1.6915275498705422,1401,30,22.299969328347352,37.306584594969515
3.7330143685566615,1.6915106385714154,1401,30,22.299969328347352,37.306584594969515
3.749925162160006,1.6914937274413617,1401,30,22.299969328347352,37.306584594969515
3.7668357866951605,1.6914768164803795,1401,30,22.299969328347352,37.306584594969515
3.7837462421638164,1.6914599056884674,1401,30,22.299969328347352,37.306584594969515
3.8006565285676643,1.6914429950656233,1401,30,22.299969328347352,37.306584594969515
3.817566645908395,1.6914260846118456,1401,30,22.299969328347352,37.306584594969515
3.834476594187699,1.691409174327133,1401,30,22.299969328347352,37.306584594969515
3.851386373407267,1.6913922642114831,1401,30,22.299969328347352,37.306584594969515
3.86829598356879,1.691375354264895,1401,30,22.299969328347352,37.306584594969515
3.8852054246739574,1.6913584444873664,1401,30,22.299969328347352,37.306584594969515
3.90211469672446,1.6913415348788958,1401,30,22.299969328347352,37.306584594969515
3.919023799721988,1.6913246254394818,1401,30,22.299969328347352,37.306584594969515
3.935932733668232,1.6913077161691221,1401,30,22.299969328347352,37.306584594969515
3.9528414985648825,1.6912908070678156,1401,30,22.299969328347352,37.306584594969515
3.96975009441363,1.6912738981355602,1401,30,22.299969328347352,37.306584594969515
3.986658521216165,1.6912569893723546,1401,30,22.299969328347352,37.306584594969515
