Vout,Iout,Irradiance,Temperature,MaxVoltage,MaxPower
0.011405890327977616,2.2811999999999997,1901,25,21.936640625994468,49.5616344326211
0.03421746007822543,2.2811999999999997,1901,25,21.936640625994468,49.5616344326211
0.05702856607498189,2.2811883659896717,1901,25,21.936640625994468,49.5616344326211
0.07983912546883934,2.2811655544199216,1901,25,21.936640625994468,49.5616344326211
0.10264911118317406,2.281142743315088,1901,25,21.936640625994468,49.5616344326211
0.12545854981583723,2.281119932757975,1901,25,21.936640625994468,49.5616344326211
0.1482674659191331,2.281097122774542,1901,25,21.936640625994468,49.5616344326211
0.17107588215670114,2.2810743133381908,1901,25,21.936640625994468,49.5616344326211
0.19388381944858013,2.281051504424368,1901,25,21.936640625994468,49.5616344326211
0.2166912971053638,2.2810286960104116,1901,25,21.936640625994468,49.5616344326211
0.23949833295203354,2.2810058880754007,1901,25,21.936640625994468,49.5616344326211
0.2623049434422641,2.280983080600025,1901,25,21.936640625994468,49.5616344326211
0.2851111437639343,2.2809602735664587,1901,25,21.936640625994468,49.5616344326211
0.30791694793651875,2.280937466958249,1901,25,21.936640625994468,49.5616344326211
0.330722368900987,2.2809146607602084,1901,25,21.936640625994468,49.5616344326211
0.35352741860278575,2.2808918549583166,1901,25,21.936640625994468,49.5616344326211
0.37633210806843526,2.2808690495396324,1901,25,21.936640625994468,49.5616344326211
0.3991364474762335,2.2808462444922113,1901,25,21.936640625994468,49.5616344326211
0.4219404462215197,2.2808234398050264,1901,25,21.936640625994468,49.5616344326211
0.4447441129769161,2.280800635467899,1901,25,21.936640625994468,49.5616344326211
0.4675474557479351,2.280777831471434,1901,25,21.936640625994468,49.5616344326211
0.49035048192430775,2.280755027806959,1901,25,21.936640625994468,49.5616344326211
0.5131531983273631,2.2807322244664685,1901,25,21.936640625994468,49.5616344326211
0.5359556112537615,2.2807094214425727,1901,25,21.936640625994468,49.5616344326211
0.5587577265158639,2.28068661872845,1901,25,21.936640625994468,49.5616344326211
0.5815595494789941,2.2806638163178037,1901,25,21.936640625994468,49.5616344326211
0.6043610850958356,2.280641014204822,1901,25,21.936640625994468,49.5616344326211
0.627162337938179,2.280618212384139,1901,25,21.936640625994468,49.5616344326211
0.6499633122262302,2.280595410850802,1901,25,21.936640625994468,49.5616344326211
0.6727640118556605,2.2805726096002403,1901,25,21.936640625994468,49.5616344326211
0.695564440422578,2.2805498086282325,1901,25,21.936640625994468,49.5616344326211
0.7183646012465756,2.2805270079308833,1901,25,21.936640625994468,49.5616344326211
0.7411644973920072,2.2805042075045963,1901,25,21.936640625994468,49.5616344326211
0.7639641316876254,2.2804814073460524,1901,25,21.936640625994468,49.5616344326211
0.7867635067447097,2.280458607452187,1901,25,21.936640625994468,49.5616344326211
0.8095626249737988,2.2804358078201714,1901,25,21.936640625994468,49.5616344326211
0.8323614886001364,2.280413008447394,1901,25,21.936640625994468,49.5616344326211
0.8551600996779274,2.280390209331445,1901,25,21.936640625994468,49.5616344326211
0.8779584601034988,2.280367410470099,1901,25,21.936640625994468,49.5616344326211
0.9007565716274454,2.2803446118613007,1901,25,21.936640625994468,49.5616344326211
0.9235544358658452,2.2803218135031553,1901,25,21.936640625994468,49.5616344326211
0.9463520543106071,2.280299015393911,1901,25,21.936640625994468,49.5616344326211
0.9691494283390256,2.2802762175319526,1901,25,21.936640625994468,49.5616344326211
0.9919465592225994,2.2802534199157876,1901,25,21.936640625994468,49.5616344326211
1.0147434481351711,2.280230622544039,1901,25,21.936640625994468,49.5616344326211
1.0375400961604422,2.280207825415435,1901,25,21.936640625994468,49.5616344326211
1.0603365042989064,2.2801850285288023,1901,25,21.936640625994468,49.5616344326211
1.0831326734742546,2.2801622318830566,1901,25,21.936640625994468,49.5616344326211
1.1059286045392818,2.280139435477198,1901,25,21.936640625994468,49.5616344326211
1.1287242982813432,2.280116639310302,1901,25,21.936640625994468,49.5616344326211
1.1515197554273888,2.280093843381517,1901,25,21.936640625994468,49.5616344326211
1.1743149766486114,2.2800710476900545,1901,25,21.936640625994468,49.5616344326211
1.1971099625647366,2.280048252235188,1901,25,21.936640625994468,49.5616344326211
1.2199047137479822,2.2800254570162464,1901,25,21.936640625994468,49.5616344326211
1.242699230726714,2.2800026620326097,1901,25,21.936640625994468,49.5616344326211
1.2654935139888204,2.279979867283706,1901,25,21.936640625994468,49.5616344326211
1.2882875639848255,2.279957072769007,1901,25,21.936640625994468,49.5616344326211
1.3110813811307651,2.279934278488024,1901,25,21.936640625994468,49.5616344326211
1.333874965810839,2.2799114844403077,1901,25,21.936640625994468,49.5616344326211
1.3566683183798631,2.279888690625441,1901,25,21.936640625994468,49.5616344326211
1.3794614391655264,2.2798658970430403,1901,25,21.936640625994468,49.5616344326211
1.4022543284704816,2.279843103692751,1901,25,21.936640625994468,49.5616344326211
1.4250469865742692,2.2798203105742445,1901,25,21.936640625994468,49.5616344326211
1.4478394137350978,2.2797975176872187,1901,25,21.936640625994468,49.5616344326211
1.4706316101914836,2.2797747250313942,1901,25,21.936640625994468,49.5616344326211
1.4934235761637662,2.279751932606513,1901,25,21.936640625994468,49.5616344326211
1.516215311855507,2.2797291404123357,1901,25,21.936640625994468,49.5616344326211
1.539006817454781,2.279706348448643,1901,25,21.936640625994468,49.5616344326211
1.5617980931353674,2.2796835567152303,1901,25,21.936640625994468,49.5616344326211
1.5845891390578495,2.27966076521191,1901,25,21.936640625994468,49.5616344326211
1.6073799553706307,2.2796379739385086,1901,25,21.936640625994468,49.5616344326211
1.630170542210871,2.279615182894865,1901,25,21.936640625994468,49.5616344326211
1.6529608997053522,2.279592392080832,1901,25,21.936640625994468,49.5616344326211
1.6757510279712773,2.2795696014962705,1901,25,21.936640625994468,49.5616344326211
1.698540927117006,2.279546811141055,1901,25,21.936640625994468,49.5616344326211
1.7213305972427366,2.2795240210150682,1901,25,21.936640625994468,49.5616344326211
1.7441200384411322,2.2795012311182017,1901,25,21.936640625994468,49.5616344326211
1.7669092507979027,2.279478441450355,1901,25,21.936640625994468,49.5616344326211
1.7896982343923373,2.2794556520114355,1901,25,21.936640625994468,49.5616344326211
1.8124869892978015,2.279432862801358,1901,25,21.936640625994468,49.5616344326211
1.8352755155821894,2.279410073820042,1901,25,21.936640625994468,49.5616344326211
1.8580638133083476,2.2793872850674157,1901,25,21.936640625994468,49.5616344326211
1.8808518825344613,2.27936449654341,1901,25,21.936640625994468,49.5616344326211
1.9036397233144156,2.279341708247963,1901,25,21.936640625994468,49.5616344326211
1.9264273356981239,2.2793189201810153,1901,25,21.936640625994468,49.5616344326211
1.9492147197318346,2.2792961323425143,1901,25,21.936640625994468,49.5616344326211
1.9720018754584132,2.2792733447324096,1901,25,21.936640625994468,49.5616344326211
1.994788802917601,2.2792505573506547,1901,25,21.936640625994468,49.5616344326211
2.0175755021462587,2.2792277701972066,1901,25,21.936640625994468,49.5616344326211
2.040361973178584,2.2792049832720265,1901,25,21.936640625994468,49.5616344326211
2.063148216046321,2.2791821965750763,1901,25,21.936640625994468,49.5616344326211
2.085934230778945,2.2791594101063226,1901,25,21.936640625994468,49.5616344326211
2.108720017403838,2.2791366238657336,1901,25,21.936640625994468,49.5616344326211
2.1315055759464525,2.27911383785328,1901,25,21.936640625994468,49.5616344326211
2.154290906430456,2.2790910520689334,1901,25,21.936640625994468,49.5616344326211
2.1770760088778713,2.2790682665126694,1901,25,21.936640625994468,49.5616344326211
2.199860883309201,2.279045481184464,1901,25,21.936640625994468,49.5616344326211
2.2226455297435472,2.279022696084295,1901,25,21.936640625994468,49.5616344326211
2.2454299481987148,2.2789999112121424,1901,25,21.936640625994468,49.5616344326211
2.2682141386913153,2.2789771265679866,1901,25,21.936640625994468,49.5616344326211
2.290998101236859,2.2789543421518097,1901,25,21.936640625994468,49.5616344326211
2.313781835849835,2.278931557963596,1901,25,21.936640625994468,49.5616344326211
2.336565342543795,2.2789087740033285,1901,25,21.936640625994468,49.5616344326211
2.3593486213314216,2.278885990270994,1901,25,21.936640625994468,49.5616344326211
2.382131672224598,2.2788632067665784,1901,25,21.936640625994468,49.5616344326211
2.4049144952344674,2.2788404234900694,1901,25,21.936640625994468,49.5616344326211
2.427697090371492,2.278817640441454,1901,25,21.936640625994468,49.5616344326211
2.4504794576455033,2.278794857620723,1901,25,21.936640625994468,49.5616344326211
2.473261597065751,2.278772075027864,1901,25,21.936640625994468,49.5616344326211
2.496043508640949,2.2787492926628685,1901,25,21.936640625994468,49.5616344326211
2.518825192379317,2.2787265105257264,1901,25,21.936640625994468,49.5616344326211
2.5416066482886164,2.2787037286164296,1901,25,21.936640625994468,49.5616344326211
2.564387876376185,2.278680946934969,1901,25,21.936640625994468,49.5616344326211
2.5871688766489744,2.278658165481338,1901,25,21.936640625994468,49.5616344326211
2.6099496491135743,2.2786353842555287,1901,25,21.936640625994468,49.5616344326211
2.632730193776243,2.278612603257534,1901,25,21.936640625994468,49.5616344326211
2.6555105106429333,2.2785898224873478,1901,25,21.936640625994468,49.5616344326211
2.6782905997193134,2.2785670419449633,1901,25,21.936640625994468,49.5616344326211
2.7010704610107914,2.2785442616303744,1901,25,21.936640625994468,49.5616344326211
2.7238500945225366,2.278521481543576,1901,25,21.936640625994468,49.5616344326211
2.7466295002594916,2.278498701684563,1901,25,21.936640625994468,49.5616344326211
2.7694086782263976,2.278475922053329,1901,25,21.936640625994468,49.5616344326211
2.7921876284278047,2.27845314264987,1901,25,21.936640625994468,49.5616344326211
2.8149663508680867,2.278430363474181,1901,25,21.936640625994468,49.5616344326211
2.8377448455514585,2.2784075845262577,1901,25,21.936640625994468,49.5616344326211
2.8605231124819843,2.278384805806095,1901,25,21.936640625994468,49.5616344326211
2.883301151663592,2.27836202731369,1901,25,21.936640625994468,49.5616344326211
2.90607896310008,2.2783392490490373,1901,25,21.936640625994468,49.5616344326211
2.9288565467951324,2.2783164710121335,1901,25,21.936640625994468,49.5616344326211
2.9516339027523237,2.2782936932029747,1901,25,21.936640625994468,49.5616344326211
2.974411030975128,2.2782709156215573,1901,25,21.936640625994468,49.5616344326211
2.9971879314669287,2.278248138267878,1901,25,21.936640625994468,49.5616344326211
3.019964604231023,2.278225361141933,1901,25,21.936640625994468,49.5616344326211
3.0427410492706284,2.278202584243719,1901,25,21.936640625994468,49.5616344326211
3.0655172665888935,2.2781798075732325,1901,25,21.936640625994468,49.5616344326211
3.0882932561888965,2.2781570311304704,1901,25,21.936640625994468,49.5616344326211
3.111069018073654,2.27813425491543,1901,25,21.936640625994468,49.5616344326211
3.1338445522461287,2.278111478928108,1901,25,21.936640625994468,49.5616344326211
3.156619858709228,2.2780887031685007,1901,25,21.936640625994468,49.5616344326211
3.1793949374658097,2.2780659276366055,1901,25,21.936640625994468,49.5616344326211
3.20216978851869,2.2780431523324203,1901,25,21.936640625994468,49.5616344326211
3.22494441187064,2.2780203772559413,1901,25,21.936640625994468,49.5616344326211
3.2477188075243966,2.2779976024071655,1901,25,21.936640625994468,49.5616344326211
3.270492975482658,2.277974827786091,1901,25,21.936640625994468,49.5616344326211
3.2932669157480925,2.277952053392715,1901,25,21.936640625994468,49.5616344326211
3.3160406283233352,2.2779292792270343,1901,25,21.936640625994468,49.5616344326211
3.3388141132109963,2.2779065052890464,1901,25,21.936640625994468,49.5616344326211
3.3615873704136576,2.2778837315787483,1901,25,21.936640625994468,49.5616344326211
3.384360399933882,2.277860958096138,1901,25,21.936640625994468,49.5616344326211
3.4071332017742058,2.277838184841213,1901,25,21.936640625994468,49.5616344326211
3.4299057759371454,2.27781541181397,1901,25,21.936640625994468,49.5616344326211
3.452678122425202,2.277792639014407,1901,25,21.936640625994468,49.5616344326211
3.475450241240856,2.2777698664425214,1901,25,21.936640625994468,49.5616344326211
3.4982221323865756,2.2777470940983107,1901,25,21.936640625994468,49.5616344326211
3.520993795864811,2.277724321981772,1901,25,21.936640625994468,49.5616344326211
3.543765231678001,2.2777015500929036,1901,25,21.936640625994468,49.5616344326211
3.56653643982857,2.2776787784317025,1901,25,21.936640625994468,49.5616344326211
3.589307420318932,2.277656006998167,1901,25,21.936640625994468,49.5616344326211
3.6120781731514913,2.277633235792293,1901,25,21.936640625994468,49.5616344326211
3.634848698328641,2.2776104648140802,1901,25,21.936640625994468,49.5616344326211
3.6576189958527654,2.2775876940635245,1901,25,21.936640625994468,49.5616344326211
3.6803890657262417,2.2775649235406243,1901,25,21.936640625994468,49.5616344326211
3.703158907951437,2.2775421532453777,1901,25,21.936640625994468,49.5616344326211
3.7259285225307126,2.277519383177781,1901,25,21.936640625994468,49.5616344326211
3.748697909466424,2.2774966133378327,1901,25,21.936640625994468,49.5616344326211
3.7714670687609195,2.277473843725531,1901,25,21.936640625994468,49.5616344326211
3.794236000416541,2.277451074340872,1901,25,21.936640625994468,49.5616344326211
3.8170047044356283,2.277428305183854,1901,25,21.936640625994468,49.5616344326211
3.8397731808205138,2.277405536254476,1901,25,21.936640625994468,49.5616344326211
3.862541429573525,2.2773827675527336,1901,25,21.936640625994468,49.5616344326211
3.885309450696986,2.2773599990786257,1901,25,21.936640625994468,49.5616344326211
3.9080772441932186,2.2773372308321496,1901,25,21.936640625994468,49.5616344326211
3.9308448100645412,2.277314462813303,1901,25,21.936640625994468,49.5616344326211
3.9536121483132662,2.2772916950220834,1901,25,21.936640625994468,49.5616344326211
3.9763792589417046,2.277268927458489,1901,25,21.936640625994468,49.5616344326211
3.999146141952165,2.277246160122517,1901,25,21.936640625994468,49.5616344326211
4.021912797346954,2.2772233930141654,1901,25,21.936640625994468,49.5616344326211
4.044679225128373,2.2772006261334314,1901,25,21.936640625994468,49.5616344326211
4.067445425298727,2.2771778594803136,1901,25,21.936640625994468,49.5616344326211
4.090211397860311,2.277155093054809,1901,25,21.936640625994468,49.5616344326211
4.112977142815424,2.277132326856915,1901,25,21.936640625994468,49.5616344326211
4.135742660166363,2.27710956088663,1901,25,21.936640625994468,49.5616344326211
4.158507949915421,2.2770867951439517,1901,25,21.936640625994468,49.5616344326211
4.18127301206489,2.2770640296288773,1901,25,21.936640625994468,49.5616344326211
4.204037846617063,2.277041264341405,1901,25,21.936640625994468,49.5616344326211
4.226802453574228,2.2770184992815317,1901,25,21.936640625994468,49.5616344326211
4.249566832938676,2.276995734449256,1901,25,21.936640625994468,49.5616344326211
4.272330984712695,2.2769729698445755,1901,25,21.936640625994468,49.5616344326211
4.29509490889857,2.2769502054674877,1901,25,21.936640625994468,49.5616344326211
4.317858605498588,2.27692744131799,1901,25,21.936640625994468,49.5616344326211
4.340622074515037,2.2769046773960806,1901,25,21.936640625994468,49.5616344326211
4.363385315950195,2.276881913701757,1901,25,21.936640625994468,49.5616344326211
4.386148329806351,2.276859150235017,1901,25,21.936640625994468,49.5616344326211
4.408911116085785,2.276836386995858,1901,25,21.936640625994468,49.5616344326211
4.43167367479078,2.2768136239842782,1901,25,21.936640625994468,49.5616344326211
4.454436005923618,2.276790861200275,1901,25,21.936640625994468,49.5616344326211
4.477198109486582,2.2767680986438465,1901,25,21.936640625994468,49.5616344326211
4.499959985481951,2.27674533631499,1901,25,21.936640625994468,49.5616344326211
4.522721633912006,2.276722574213703,1901,25,21.936640625994468,49.5616344326211
4.545483054779026,2.276699812339984,1901,25,21.936640625994468,49.5616344326211
4.568244248085291,2.2766770506938303,1901,25,21.936640625994468,49.5616344326211
4.59100521383308,2.2766542892752395,1901,25,21.936640625994468,49.5616344326211
4.613765952024672,2.2766315280842093,1901,25,21.936640625994468,49.5616344326211
4.636526462662346,2.2766087671207376,1901,25,21.936640625994468,49.5616344326211
4.65928674574838,2.276586006384822,1901,25,21.936640625994468,49.5616344326211
4.6820468012850505,2.2765632458764604,1901,25,21.936640625994468,49.5616344326211
4.7048066292746356,2.2765404855956506,1901,25,21.936640625994468,49.5616344326211
4.727566229719415,2.27651772554239,1901,25,21.936640625994468,49.5616344326211
4.750325602621664,2.2764949657166764,1901,25,21.936640625994468,49.5616344326211
4.77308474798366,2.2764722061185076,1901,25,21.936640625994468,49.5616344326211
4.795843665807679,2.2764494467478813,1901,25,21.936640625994468,49.5616344326211
4.818602356096,2.2764266876047956,1901,25,21.936640625994468,49.5616344326211
4.841360818850896,2.2764039286892475,1901,25,21.936640625994468,49.5616344326211
4.864119054074647,2.276381170001235,1901,25,21.936640625994468,49.5616344326211
4.886877061769527,2.276358411540756,1901,25,21.936640625994468,49.5616344326211
4.909634841937813,2.276335653307808,1901,25,21.936640625994468,49.5616344326211
4.932392394581781,2.276312895302389,1901,25,21.936640625994468,49.5616344326211
4.955149719703707,2.2762901375244966,1901,25,21.936640625994468,49.5616344326211
4.977906817305864,2.2762673799741284,1901,25,21.936640625994468,49.5616344326211
5.000663687390532,2.2762446226512822,1901,25,21.936640625994468,49.5616344326211
5.023420329959983,2.276221865555956,1901,25,21.936640625994468,49.5616344326211
5.046176745016495,2.276199108688147,1901,25,21.936640625994468,49.5616344326211
5.068932932562341,2.276176352047853,1901,25,21.936640625994468,49.5616344326211
5.091688892599799,2.2761535956350722,1901,25,21.936640625994468,49.5616344326211
5.114444625131141,2.2761308394498023,1901,25,21.936640625994468,49.5616344326211
5.137200130158645,2.27610808349204,1901,25,21.936640625994468,49.5616344326211
5.159955407684584,2.2760853277617845,1901,25,21.936640625994468,49.5616344326211
5.182710457711234,2.2760625722590326,1901,25,21.936640625994468,49.5616344326211
5.20546528024087,2.2760398169837823,1901,25,21.936640625994468,49.5616344326211
5.228219875275767,2.2760170619360314,1901,25,21.936640625994468,49.5616344326211
5.250974242818199,2.275994307115777,1901,25,21.936640625994468,49.5616344326211
5.27372838287044,2.2759715525230177,1901,25,21.936640625994468,49.5616344326211
5.2964822954347675,2.2759487981577506,1901,25,21.936640625994468,49.5616344326211
5.319235980513454,2.275926044019974,1901,25,21.936640625994468,49.5616344326211
5.341989438108774,2.275903290109685,1901,25,21.936640625994468,49.5616344326211
5.364742668223003,2.275880536426882,1901,25,21.936640625994468,49.5616344326211
5.387495670858415,2.275857782971562,1901,25,21.936640625994468,49.5616344326211
5.410248446017287,2.275835029743723,1901,25,21.936640625994468,49.5616344326211
5.433000993701889,2.275812276743363,1901,25,21.936640625994468,49.5616344326211
5.455753313914498,2.2757895239704795,1901,25,21.936640625994468,49.5616344326211
5.478505406657388,2.27576677142507,1901,25,21.936640625994468,49.5616344326211
5.501257271932834,2.2757440191071328,1901,25,21.936640625994468,49.5616344326211
5.524008909743109,2.275721267016665,1901,25,21.936640625994468,49.5616344326211
