Vout,Iout,Irradiance,Temperature,MaxVoltage,MaxPower
0.010461049412986414,2.09223,1701,40,22.893541175208092,47.31449465151795
0.0313829548042546,2.09223,1701,40,22.893541175208092,47.31449465151795
0.05230443485843388,2.0922193297275866,1701,40,22.893541175208092,47.31449465151795
0.07322541358919418,2.0921984078221953,1701,40,22.893541175208092,47.31449465151795
0.09414586616288458,2.0921774863432083,1701,40,22.893541175208092,47.31449465151795
0.11506581697404403,2.0921565653665697,1701,40,22.893541175208092,47.31449465151795
0.13598528854111344,2.0921356449160884,1701,40,22.893541175208092,47.31449465151795
0.15690430165032215,2.0921147249673693,1701,40,22.893541175208092,47.31449465151795
0.17782287548873532,2.0920938054978944,1701,40,22.893541175208092,47.31449465151795
0.1987410277672959,2.092072886486877,1701,40,22.893541175208092,47.31449465151795
0.2196587748344,2.0920519679151304,1701,40,22.893541175208092,47.31449465151795
0.24057613178073317,2.0920310497649437,1701,40,22.893541175208092,47.31449465151795
0.26149311253604096,2.0920101320199684,1701,40,22.893541175208092,47.31449465151795
0.282409729958453,2.091989214665114,1701,40,22.893541175208092,47.31449465151795
0.30332599591693515,2.0919682976864507,1701,40,22.893541175208092,47.31449465151795
0.3242419213673974,2.0919473810711198,1701,40,22.893541175208092,47.31449465151795
0.3451575164229453,2.091926464807253,1701,40,22.893541175208092,47.31449465151795
0.36607279041872726,2.0919055488838945,1701,40,22.893541175208092,47.31449465151795
0.38698775197179147,2.09188463329093,1701,40,22.893541175208092,47.31449465151795
0.4079024090363376,2.091863718019026,1701,40,22.893541175208092,47.31449465151795
0.4288167689547179,2.091842803059565,1701,40,22.893541175208092,47.31449465151795
0.4497308385045128,2.0918218884045916,1701,40,22.893541175208092,47.31449465151795
0.47064462394198625,2.0918009740467647,1701,40,22.893541175208092,47.31449465151795
0.49155813104219603,2.0917800599793064,1701,40,22.893541175208092,47.31449465151795
0.5124713651360189,2.0917591461959604,1701,40,22.893541175208092,47.31449465151795
0.533384331144326,2.0917382326909517,1701,40,22.893541175208092,47.31449465151795
0.5542970336095304,2.091717319458949,1701,40,22.893541175208092,47.31449465151795
0.575209476724705,2.091696406495032,1701,40,22.893541175208092,47.31449465151795
0.596121664360462,2.0916754937946584,1701,40,22.893541175208092,47.31449465151795
0.6170336000897636,2.0916545813536342,1701,40,22.893541175208092,47.31449465151795
0.6379452872108236,2.09163366916809,1701,40,22.893541175208092,47.31449465151795
0.6588567287682463,2.091612757234452,1701,40,22.893541175208092,47.31449465151795
0.6797679275725407,2.0915918455494222,1701,40,22.893541175208092,47.31449465151795
0.7006788862181312,2.091570934109956,1701,40,22.893541175208092,47.31449465151795
0.7215896070999844,2.0915500229132427,1701,40,22.893541175208092,47.31449465151795
0.7425000924289551,2.0915291119566883,1701,40,22.893541175208092,47.31449465151795
0.7634103442459516,2.0915082012378976,1701,40,22.893541175208092,47.31449465151795
0.7843203644350132,2.09148729075466,1701,40,22.893541175208092,47.31449465151795
0.8052301547353782,2.091466380504934,1701,40,22.893541175208092,47.31449465151795
0.8261397167526267,2.091445470486836,1701,40,22.893541175208092,47.31449465151795
0.8470490519689633,2.0914245606986266,1701,40,22.893541175208092,47.31449465151795
0.8679581617527106,2.0914036511387,1701,40,22.893541175208092,47.31449465151795
0.8888670473670707,2.0913827418055746,1701,40,22.893541175208092,47.31449465151795
0.9097757099782138,2.091361832697882,1701,40,22.893541175208092,47.31449465151795
0.930684150662744,2.0913409238143585,1701,40,22.893541175208092,47.31449465151795
0.9515923704145908,2.0913200151538383,1701,40,22.893541175208092,47.31449465151795
0.9725003701513695,2.091299106715245,1701,40,22.893541175208092,47.31449465151795
0.9934081507202537,2.0912781984975837,1701,40,22.893541175208092,47.31449465151795
1.0143157129033948,2.0912572904999376,1701,40,22.893541175208092,47.31449465151795
1.0352230574229253,2.0912363827214597,1701,40,22.893541175208092,47.31449465151795
1.0561301849455762,2.091215475161367,1701,40,22.893541175208092,47.31449465151795
1.0770370960869398,2.0911945678189388,1701,40,22.893541175208092,47.31449465151795
1.0979437914154047,2.0911736606935065,1701,40,22.893541175208092,47.31449465151795
1.118850271455788,2.0911527537844563,1701,40,22.893541175208092,47.31449465151795
1.139756536692686,2.0911318470912184,1701,40,22.893541175208092,47.31449465151795
1.1606625875735719,2.0911109406132686,1701,40,22.893541175208092,47.31449465151795
1.181568424511649,2.091090034350122,1701,40,22.893541175208092,47.31449465151795
1.2024740478884899,2.0910691283013323,1701,40,22.893541175208092,47.31449465151795
1.2233794580564679,2.0910482224664846,1701,40,22.893541175208092,47.31449465151795
1.2442846553410056,2.0910273168451985,1701,40,22.893541175208092,47.31449465151795
1.265189640042649,2.091006411437121,1701,40,22.893541175208092,47.31449465151795
1.2860944124389782,2.090985506241927,1701,40,22.893541175208092,47.31449465151795
1.3069989727863778,2.090964601259316,1701,40,22.893541175208092,47.31449465151795
1.3279033213216662,2.0909436964890102,1701,40,22.893541175208092,47.31449465151795
1.3488074582636018,2.0909227919307534,1701,40,22.893541175208092,47.31449465151795
1.369711383814272,2.0909018875843084,1701,40,22.893541175208092,47.31449465151795
1.390615098160375,2.090880983449457,1701,40,22.893541175208092,47.31449465151795
1.411518601474407,2.0908600795259966,1701,40,22.893541175208092,47.31449465151795
1.4324218939157505,2.0908391758137412,1701,40,22.893541175208092,47.31449465151795
1.4533249756316875,2.0908182723125175,1701,40,22.893541175208092,47.31449465151795
1.4742278467583265,2.0907973690221664,1701,40,22.893541175208092,47.31449465151795
1.4951305074214667,2.090776465942541,1701,40,22.893541175208092,47.31449465151795
1.5160329577373874,2.0907555630735044,1701,40,22.893541175208092,47.31449465151795
1.5369351978135828,2.090734660414932,1701,40,22.893541175208092,47.31449465151795
1.557837227749436,2.0907137579667063,1701,40,22.893541175208092,47.31449465151795
1.5787390476368444,2.09069285572872,1701,40,22.893541175208092,47.31449465151795
1.5996406575607967,2.0906719537008747,1701,40,22.893541175208092,47.31449465151795
1.6205420575999012,2.090651051883077,1701,40,22.893541175208092,47.31449465151795
1.6414432478268803,2.090630150275244,1701,40,22.893541175208092,47.31449465151795
1.6623442283090208,2.090609248877295,1701,40,22.893541175208092,47.31449465151795
1.6832449991085932,2.090588347689158,1701,40,22.893541175208092,47.31449465151795
1.7041455602832376,2.0905674467107658,1701,40,22.893541175208092,47.31449465151795
1.7250459118863202,2.0905465459420562,1701,40,22.893541175208092,47.31449465151795
1.745946053967262,2.090525645382972,1701,40,22.893541175208092,47.31449465151795
1.766845986571841,2.090504745033459,1701,40,22.893541175208092,47.31449465151795
1.7877457097424752,2.090483844893468,1701,40,22.893541175208092,47.31449465151795
1.8086452235184782,2.0904629449629533,1701,40,22.893541175208092,47.31449465151795
1.829544527936301,2.090442045241873,1701,40,22.893541175208092,47.31449465151795
1.8504436230297492,2.0904211457301867,1701,40,22.893541175208092,47.31449465151795
1.871342508830189,2.090400246427859,1701,40,22.893541175208092,47.31449465151795
1.892241185366733,2.0903793473348555,1701,40,22.893541175208092,47.31449465151795
1.9131396526664164,2.090358448451145,1701,40,22.893541175208092,47.31449465151795
1.9340379107543526,2.0903375497766983,1701,40,22.893541175208092,47.31449465151795
1.9549359596538856,2.0903166513114884,1701,40,22.893541175208092,47.31449465151795
1.9758337993867225,2.0902957530554906,1701,40,22.893541175208092,47.31449465151795
1.9967314299730614,2.0902748550086807,1701,40,22.893541175208092,47.31449465151795
2.0176288514317067,2.0902539571710377,1701,40,22.893541175208092,47.31449465151795
2.038526063780177,2.090233059542541,1701,40,22.893541175208092,47.31449465151795
2.0594230670348046,2.0902121621231724,1701,40,22.893541175208092,47.31449465151795
2.0803198612108234,2.0901912649129137,1701,40,22.893541175208092,47.31449465151795
2.101216446322459,2.0901703679117487,1701,40,22.893541175208092,47.31449465151795
2.1221128223830004,2.0901494711196626,1701,40,22.893541175208092,47.31449465151795
2.1430089894048763,2.0901285745366405,1701,40,22.893541175208092,47.31449465151795
2.163904947399719,2.0901076781626697,1701,40,22.893541175208092,47.31449465151795
2.1848006963784288,2.0900867819977376,1701,40,22.893541175208092,47.31449465151795
2.205696236351223,2.0900658860418324,1701,40,22.893541175208092,47.31449465151795
2.226591567327699,2.090044990294943,1701,40,22.893541175208092,47.31449465151795
2.2474866893168732,2.09002409475706,1701,40,22.893541175208092,47.31449465151795
2.268381602327229,2.090003199428173,1701,40,22.893541175208092,47.31449465151795
2.2892763063667605,2.0899823043082733,1701,40,22.893541175208092,47.31449465151795
2.310170801443004,2.0899614093973526,1701,40,22.893541175208092,47.31449465151795
2.3310650875630774,2.0899405146954027,1701,40,22.893541175208092,47.31449465151795
2.3519591647337137,2.0899196202024157,1701,40,22.893541175208092,47.31449465151795
2.372853032961286,2.089898725918385,1701,40,22.893541175208092,47.31449465151795
2.3937466922518387,2.089877831843304,1701,40,22.893541175208092,47.31449465151795
2.4146401426111126,2.089856937977166,1701,40,22.893541175208092,47.31449465151795
2.4355333840445663,2.0898360443199646,1701,40,22.893541175208092,47.31449465151795
2.4564264165573997,2.089815150871695,1701,40,22.893541175208092,47.31449465151795
2.4773192401545727,2.089794257632351,1701,40,22.893541175208092,47.31449465151795
2.498211854840824,2.0897733646019274,1701,40,22.893541175208092,47.31449465151795
2.51910426062069,2.0897524717804195,1701,40,22.893541175208092,47.31449465151795
2.5399964574985177,2.0897315791678226,1701,40,22.893541175208092,47.31449465151795
2.5608884454784797,2.089710686764132,1701,40,22.893541175208092,47.31449465151795
2.5817802245645884,2.0896897945693436,1701,40,22.893541175208092,47.31449465151795
2.602671794760709,2.0896689025834525,1701,40,22.893541175208092,47.31449465151795
2.62356315607057,2.0896480108064557,1701,40,22.893541175208092,47.31449465151795
2.644454308497772,2.0896271192383487,1701,40,22.893541175208092,47.31449465151795
2.665345252045801,2.0896062278791283,1701,40,22.893541175208092,47.31449465151795
2.6862359867180348,2.08958533672879,1701,40,22.893541175208092,47.31449465151795
2.7071265125177524,2.0895644457873312,1701,40,22.893541175208092,47.31449465151795
2.7280168294481384,2.0895435550547483,1701,40,22.893541175208092,47.31449465151795
2.748906937512297,2.0895226645310374,1701,40,22.893541175208092,47.31449465151795
2.7697968367132533,2.0895017742161963,1701,40,22.893541175208092,47.31449465151795
2.7906865270539574,2.089480884110221,1701,40,22.893541175208092,47.31449465151795
2.8115760085372967,2.0894599942131094,1701,40,22.893541175208092,47.31449465151795
2.8324652811660944,2.0894391045248573,1701,40,22.893541175208092,47.31449465151795
2.8533543449431193,2.089418215045463,1701,40,22.893541175208092,47.31449465151795
2.8742431998710853,2.0893973257749234,1701,40,22.893541175208092,47.31449465151795
2.8951318459526605,2.089376436713235,1701,40,22.893541175208092,47.31449465151795
2.9160202831904667,2.089355547860396,1701,40,22.893541175208092,47.31449465151795
2.9369085115870854,2.0893346592164033,1701,40,22.893541175208092,47.31449465151795
2.9577965311450605,2.0893137707812546,1701,40,22.893541175208092,47.31449465151795
2.978684341866899,2.089292882554947,1701,40,22.893541175208092,47.31449465151795
2.999571943755078,2.089271994537478,1701,40,22.893541175208092,47.31449465151795
3.0204593368120434,2.089251106728845,1701,40,22.893541175208092,47.31449465151795
3.041346521040213,2.0892302191290453,1701,40,22.893541175208092,47.31449465151795
3.06223349644198,2.089209331738077,1701,40,22.893541175208092,47.31449465151795
3.083120263019714,2.089188444555938,1701,40,22.893541175208092,47.31449465151795
3.104006820775762,2.0891675575826247,1701,40,22.893541175208092,47.31449465151795
3.124893169712453,2.0891466708181357,1701,40,22.893541175208092,47.31449465151795
3.1457793098320948,2.0891257842624684,1701,40,22.893541175208092,47.31449465151795
3.1666652411369807,2.0891048979156204,1701,40,22.893541175208092,47.31449465151795
3.1875509636293877,2.0890840117775893,1701,40,22.893541175208092,47.31449465151795
3.2084364773115754,2.089063125848373,1701,40,22.893541175208092,47.31449465151795
3.2293217821857936,2.089042240127969,1701,40,22.893541175208092,47.31449465151795
3.2502068782542786,2.0890213546163756,1701,40,22.893541175208092,47.31449465151795
3.271091765519255,2.08900046931359,1701,40,22.893541175208092,47.31449465151795
3.291976443982937,2.08897958421961,1701,40,22.893541175208092,47.31449465151795
3.3128609136475284,2.088958699334434,1701,40,22.893541175208092,47.31449465151795
3.333745174515225,2.0889378146580584,1701,40,22.893541175208092,47.31449465151795
3.354629226588213,2.088916930190482,1701,40,22.893541175208092,47.31449465151795
3.3755130698686715,2.088896045931703,1701,40,22.893541175208092,47.31449465151795
3.3963967043587737,2.0888751618817185,1701,40,22.893541175208092,47.31449465151795
3.4172801300606848,2.0888542780405266,1701,40,22.893541175208092,47.31449465151795
3.4381633469765647,2.088833394408125,1701,40,22.893541175208092,47.31449465151795
3.4590463551085664,2.0888125109845115,1701,40,22.893541175208092,47.31449465151795
3.4799291544588384,2.088791627769684,1701,40,22.893541175208092,47.31449465151795
3.5008117450295266,2.0887707447636403,1701,40,22.893541175208092,47.31449465151795
3.521694126822771,2.0887498619663782,1701,40,22.893541175208092,47.31449465151795
3.542576299840706,2.088728979377896,1701,40,22.893541175208092,47.31449465151795
3.563458264085464,2.088708096998191,1701,40,22.893541175208092,47.31449465151795
3.584340019559172,2.088687214827261,1701,40,22.893541175208092,47.31449465151795
3.6052215662639577,2.0886663328651047,1701,40,22.893541175208092,47.31449465151795
3.6261029042019417,2.088645451111719,1701,40,22.893541175208092,47.31449465151795
3.6469840333752446,2.0886245695671026,1701,40,22.893541175208092,47.31449465151795
3.667864953785983,2.088603688231253,1701,40,22.893541175208092,47.31449465151795
3.6887456654362714,2.0885828071041677,1701,40,22.893541175208092,47.31449465151795
3.7096261683282235,2.088561926185845,1701,40,22.893541175208092,47.31449465151795
3.730506462463949,2.088541045476283,1701,40,22.893541175208092,47.31449465151795
3.751386547845557,2.088520164975479,1701,40,22.893541175208092,47.31449465151795
3.7722664244751547,2.088499284683431,1701,40,22.893541175208092,47.31449465151795
3.793146092354847,2.0884784046001377,1701,40,22.893541175208092,47.31449465151795
3.8140255514867385,2.0884575247255963,1701,40,22.893541175208092,47.31449465151795
3.8349048018729315,2.0884366450598044,1701,40,22.893541175208092,47.31449465151795
3.855783843515529,2.0884157656027607,1701,40,22.893541175208092,47.31449465151795
3.8766626764166303,2.0883948863544624,1701,40,22.893541175208092,47.31449465151795
3.8975413005783346,2.0883740073149077,1701,40,22.893541175208092,47.31449465151795
3.9184197160027403,2.0883531284840946,1701,40,22.893541175208092,47.31449465151795
3.9392979226919453,2.0883322498620207,1701,40,22.893541175208092,47.31449465151795
3.960175920648046,2.0883113714486843,1701,40,22.893541175208092,47.31449465151795
3.9810537098731382,2.0882904932440827,1701,40,22.893541175208092,47.31449465151795
4.001931290369317,2.0882696152482145,1701,40,22.893541175208092,47.31449465151795
4.022808662138677,2.088248737461077,1701,40,22.893541175208092,47.31449465151795
4.043685825183311,2.088227859882669,1701,40,22.893541175208092,47.31449465151795
4.064562779505313,2.0882069825129874,1701,40,22.893541175208092,47.31449465151795
4.085439525106778,2.0881861053520305,1701,40,22.893541175208092,47.31449465151795
4.106316061989796,2.0881652283997965,1701,40,22.893541175208092,47.31449465151795
4.127192390156457,2.0881443516562825,1701,40,22.893541175208092,47.31449465151795
4.148068509608855,2.088123475121487,1701,40,22.893541175208092,47.31449465151795
4.168944420349082,2.088102598795408,1701,40,22.893541175208092,47.31449465151795
4.189820122379228,2.0880817226780435,1701,40,22.893541175208092,47.31449465151795
4.210695615701381,2.0880608467693906,1701,40,22.893541175208092,47.31449465151795
4.231570900317633,2.088039971069448,1701,40,22.893541175208092,47.31449465151795
4.252445976230074,2.088019095578214,1701,40,22.893541175208092,47.31449465151795
4.273320843440793,2.087998220295685,1701,40,22.893541175208092,47.31449465151795
4.294195501951879,2.08797734522186,1701,40,22.893541175208092,47.31449465151795
4.315069951765421,2.087956470356737,1701,40,22.893541175208092,47.31449465151795
4.335944192883508,2.0879355957003134,1701,40,22.893541175208092,47.31449465151795
4.356818225308229,2.0879147212525875,1701,40,22.893541175208092,47.31449465151795
4.377692049041672,2.087893847013557,1701,40,22.893541175208092,47.31449465151795
4.398565664085924,2.0878729729832193,1701,40,22.893541175208092,47.31449465151795
4.419439070443074,2.0878520991615734,1701,40,22.893541175208092,47.31449465151795
4.440312268115211,2.0878312255486167,1701,40,22.893541175208092,47.31449465151795
4.461185257104423,2.0878103521443467,1701,40,22.893541175208092,47.31449465151795
4.482058037412795,2.087789478948762,1701,40,22.893541175208092,47.31449465151795
4.502930609042417,2.0877686059618603,1701,40,22.893541175208092,47.31449465151795
4.523802971995375,2.087747733183639,1701,40,22.893541175208092,47.31449465151795
4.5446751262737575,2.087726860614097,1701,40,22.893541175208092,47.31449465151795
4.565547071879651,2.087705988253231,1701,40,22.893541175208092,47.31449465151795
4.586418808815143,2.08768511610104,1701,40,22.893541175208092,47.31449465151795
4.60729033708232,2.0876642441575215,1701,40,22.893541175208092,47.31449465151795
4.628161656683269,2.087643372422673,1701,40,22.893541175208092,47.31449465151795
4.649032767620078,2.0876225008964933,1701,40,22.893541175208092,47.31449465151795
4.669903669894832,2.0876016295789794,1701,40,22.893541175208092,47.31449465151795
4.690774363509618,2.08758075847013,1701,40,22.893541175208092,47.31449465151795
4.711644848466524,2.087559887569942,1701,40,22.893541175208092,47.31449465151795
4.732515124767636,2.0875390168784143,1701,40,22.893541175208092,47.31449465151795
4.753385192415039,2.0875181463955443,1701,40,22.893541175208092,47.31449465151795
4.774255051410823,2.0874972761213306,1701,40,22.893541175208092,47.31449465151795
4.795124701757071,2.08747640605577,1701,40,22.893541175208092,47.31449465151795
4.81599414345587,2.0874555361988616,1701,40,22.893541175208092,47.31449465151795
4.836863376509308,2.0874346665506023,1701,40,22.893541175208092,47.31449465151795
4.857732400919471,2.0874137971109903,1701,40,22.893541175208092,47.31449465151795
4.878601216688442,2.087392927880024,1701,40,22.893541175208092,47.31449465151795
4.899469823818312,2.0873720588577007,1701,40,22.893541175208092,47.31449465151795
4.920338222311164,2.0873511900440187,1701,40,22.893541175208092,47.31449465151795
4.941206412169084,2.0873303214389756,1701,40,22.893541175208092,47.31449465151795
4.96207439339416,2.0873094530425695,1701,40,22.893541175208092,47.31449465151795
4.982942165988477,2.0872885848547984,1701,40,22.893541175208092,47.31449465151795
5.0038097299541215,2.0872677168756604,1701,40,22.893541175208092,47.31449465151795
