Vout,Iout,Irradiance,Temperature,MaxVoltage,MaxPower
0.001760833068912799,0.35217,301,10,20.814107285024246,6.897014317963616
0.0052824666472683895,0.35217,301,10,20.814107285024246,6.897014317963616
0.008804028631696641,0.3521682039499311,301,10,20.814107285024246,6.897014317963616
0.01232550623196614,0.35216468231635273,301,10,20.814107285024246,6.897014317963616
0.01584689526800737,0.3521611607545479,301,10,20.814107285024246,6.897014317963616
0.0193681998459773,0.35215763927729976,301,10,20.814107285024246,6.897014317963616
0.022889423756242814,0.3521541178886159,301,10,20.814107285024246,6.897014317963616
0.026410570497600146,0.3521505965843901,301,10,20.814107285024246,6.897014317963616
0.029931643299669686,0.35214707536083195,301,10,20.814107285024246,6.897014317963616
0.03345264514360686,0.3521435542144427,301,10,20.814107285024246,6.897014317963616
0.03697357878121938,0.35214003314199277,301,10,20.814107285024246,6.897014317963616
0.04049444675261362,0.35213651214050096,301,10,20.814107285024246,6.897014317963616
0.044015251402483246,0.3521329912072155,301,10,20.814107285024246,6.897014317963616
0.04753599489514458,0.35212947033959613,301,10,20.814107285024246,6.897014317963616
0.05105667922841515,0.35212594953529835,301,10,20.814107285024246,6.897014317963616
0.05457730624642428,0.3521224287921578,301,10,20.814107285024246,6.897014317963616
0.05809787765143822,0.3521189081081766,301,10,20.814107285024246,6.897014317963616
0.0616183950147752,0.35211538748151067,301,10,20.814107285024246,6.897014317963616
0.06513885978688086,0.35211186691045776,301,10,20.814107285024246,6.897014317963616
0.06865927330662834,0.35210834639344646,301,10,20.814107285024246,6.897014317963616
0.07217963680990282,0.3521048259290264,301,10,20.814107285024246,6.897014317963616
0.07569995143752564,0.3521013055158587,301,10,20.814107285024246,6.897014317963616
0.07922021824256859,0.3520977851527075,301,10,20.814107285024246,6.897014317963616
0.08274043819710554,0.3520942648384319,301,10,20.814107285024246,6.897014317963616
0.08626061219844461,0.3520907445719789,301,10,20.814107285024246,6.897014317963616
0.08978074107488052,0.3520872243523764,301,10,20.814107285024246,6.897014317963616
0.09330082559100496,0.3520837041787271,301,10,20.814107285024246,6.897014317963616
0.09682086645260767,0.3520801840502027,301,10,20.814107285024246,6.897014317963616
0.10034086431120091,0.35207666396603854,301,10,20.814107285024246,6.897014317963616
0.10386081976819571,0.35207314392552896,301,10,20.814107285024246,6.897014317963616
0.10738073337875652,0.3520696239280224,301,10,20.814107285024246,6.897014317963616
0.11090060565535972,0.3520661039729174,301,10,20.814107285024246,6.897014317963616
0.11442043707107803,0.35206258405965885,301,10,20.814107285024246,6.897014317963616
0.11794022806261227,0.35205906418773425,301,10,20.814107285024246,6.897014317963616
0.12145997903308982,0.3520555443566705,301,10,20.814107285024246,6.897014317963616
0.12497969035464793,0.35205202456603096,301,10,20.814107285024246,6.897014317963616
0.12849936237081805,0.35204850481541244,301,10,20.814107285024246,6.897014317963616
0.13201899539872694,0.3520449851044429,301,10,20.814107285024246,6.897014317963616
0.13553858973112803,0.3520414654327787,301,10,20.814107285024246,6.897014317963616
0.1390581456382771,0.3520379458001027,301,10,20.814107285024246,6.897014317963616
0.14257766336966285,0.3520344262061223,301,10,20.814107285024246,6.897014317963616
0.14609714315560524,0.35203090665056713,301,10,20.814107285024246,6.897014317963616
0.14961658520872997,0.3520273871331877,301,10,20.814107285024246,6.897014317963616
0.15313598972533007,0.3520238676537537,301,10,20.814107285024246,6.897014317963616
0.1566553568866226,0.3520203482120525,301,10,20.814107285024246,6.897014317963616
0.1601746868599084,0.35201682880788787,301,10,20.814107285024246,6.897014317963616
0.16369397979964323,0.35201330944107856,301,10,20.814107285024246,6.897014317963616
0.16721323584842557,0.3520097901114572,301,10,20.814107285024246,6.897014317963616
0.17073245513790944,0.35200627081886937,301,10,20.814107285024246,6.897014317963616
0.17425163778964614,0.35200275156317257,301,10,20.814107285024246,6.897014317963616
0.17777078391586165,0.35199923234423497,301,10,20.814107285024246,6.897014317963616
0.18128989362017428,0.3519957131619352,301,10,20.814107285024246,6.897014317963616
0.18480896699825675,0.3519921940161609,301,10,20.814107285024246,6.897014317963616
0.1883280041384477,0.3519886749068085,301,10,20.814107285024246,6.897014317963616
0.1918470051223159,0.3519851558337823,301,10,20.814107285024246,6.897014317963616
0.19536597002518105,0.35198163679699407,301,10,20.814107285024246,6.897014317963616
0.19888489891659483,0.35197811779636207,301,10,20.814107285024246,6.897014317963616
0.20240379186078453,0.35197459883181115,301,10,20.814107285024246,6.897014317963616
0.20592264891706266,0.3519710799032716,301,10,20.814107285024246,6.897014317963616
0.20944147014020534,0.35196756101067933,301,10,20.814107285024246,6.897014317963616
0.2129602555808011,0.3519640421539749,301,10,20.814107285024246,6.897014317963616
0.21647900528557315,0.3519605233331037,301,10,20.814107285024246,6.897014317963616
0.2199977192976768,0.351957004548015,301,10,20.814107285024246,6.897014317963616
0.22351639765697406,0.3519534857986621,301,10,20.814107285024246,6.897014317963616
0.2270350404002869,0.35194996708500187,301,10,20.814107285024246,6.897014317963616
0.23055364756163124,0.3519464484069944,301,10,20.814107285024246,6.897014317963616
0.23407221917243276,0.351942929764603,301,10,20.814107285024246,6.897014317963616
0.23759075526172627,0.35193941115779354,301,10,20.814107285024246,6.897014317963616
0.24110925585633963,0.35193589258653457,301,10,20.814107285024246,6.897014317963616
0.24462772098106364,0.35193237405079714,301,10,20.814107285024246,6.897014317963616
0.24814615065880868,0.35192885555055436,301,10,20.814107285024246,6.897014317963616
0.2516645449107496,0.3519253370857815,301,10,20.814107285024246,6.897014317963616
0.2551829037564586,0.3519218186564556,301,10,20.814107285024246,6.897014317963616
0.25870122721402955,0.35191830026255555,301,10,20.814107285024246,6.897014317963616
0.2622195153001909,0.35191478190406167,301,10,20.814107285024246,6.897014317963616
0.26573776803041116,0.3519112635809559,301,10,20.814107285024246,6.897014317963616
0.2692559854189957,0.3519077452932216,301,10,20.814107285024246,6.897014317963616
0.2727741674791762,0.35190422704084323,301,10,20.814107285024246,6.897014317963616
0.2762923142231935,0.3519007088238065,301,10,20.814107285024246,6.897014317963616
0.2798104256623734,0.3518971906420981,301,10,20.814107285024246,6.897014317963616
0.28332850180719754,0.3518936724957059,301,10,20.814107285024246,6.897014317963616
0.28684654266736814,0.35189015438461857,301,10,20.814107285024246,6.897014317963616
0.29036454825186775,0.35188663630882555,301,10,20.814107285024246,6.897014317963616
0.2938825185690151,0.3518831182683172,301,10,20.814107285024246,6.897014317963616
0.2974004536265158,0.35187960026308446,301,10,20.814107285024246,6.897014317963616
0.3009183534315096,0.3518760822931191,301,10,20.814107285024246,6.897014317963616
0.30443621799061404,0.35187256435841346,301,10,20.814107285024246,6.897014317963616
0.30795404730996445,0.3518690464589602,301,10,20.814107285024246,6.897014317963616
0.3114718413952513,0.35186552859475295,301,10,20.814107285024246,6.897014317963616
0.314989600251754,0.3518620107657854,301,10,20.814107285024246,6.897014317963616
0.31850732388437325,0.35185849297205185,301,10,20.814107285024246,6.897014317963616
0.3220250122976593,0.35185497521354714,301,10,20.814107285024246,6.897014317963616
0.3255426654958395,0.3518514574902663,301,10,20.814107285024246,6.897014317963616
0.3290602834828431,0.3518479398022048,301,10,20.814107285024246,6.897014317963616
0.33257786626232383,0.3518444221493584,301,10,20.814107285024246,6.897014317963616
0.3360954138376817,0.3518409045317232,301,10,20.814107285024246,6.897014317963616
0.33961292621208183,0.35183738694929545,301,10,20.814107285024246,6.897014317963616
0.34313040338847295,0.35183386940207184,301,10,20.814107285024246,6.897014317963616
0.3466478453696042,0.3518303518900492,301,10,20.814107285024246,6.897014317963616
0.35016525215803984,0.35182683441322454,301,10,20.814107285024246,6.897014317963616
0.35368262375617415,0.3518233169715952,301,10,20.814107285024246,6.897014317963616
0.3571999601662442,0.3518197995651585,301,10,20.814107285024246,6.897014317963616
0.36071726139034194,0.3518162821939121,301,10,20.814107285024246,6.897014317963616
0.36423452743042556,0.3518127648578538,301,10,20.814107285024246,6.897014317963616
0.36775175828832923,0.3518092475569814,301,10,20.814107285024246,6.897014317963616
0.3712689539657735,0.3518057302912931,301,10,20.814107285024246,6.897014317963616
0.37478611446437327,0.3518022130607869,301,10,20.814107285024246,6.897014317963616
0.37830323978564645,0.3517986958654612,301,10,20.814107285024246,6.897014317963616
0.3818203299310211,0.3517951787053143,301,10,20.814107285024246,6.897014317963616
0.38533738490184255,0.35179166158034475,301,10,20.814107285024246,6.897014317963616
0.3888544046993793,0.35178814449055107,301,10,20.814107285024246,6.897014317963616
0.3923713893248299,0.351784627435932,301,10,20.814107285024246,6.897014317963616
0.39588833877932716,0.35178111041648613,301,10,20.814107285024246,6.897014317963616
0.39940525306394414,0.35177759343221243,301,10,20.814107285024246,6.897014317963616
0.4029221321796982,0.3517740764831096,301,10,20.814107285024246,6.897014317963616
0.4064389761275554,0.3517705595691767,301,10,20.814107285024246,6.897014317963616
0.4099557849084349,0.35176704269041265,301,10,20.814107285024246,6.897014317963616
0.41347255852321163,0.35176352584681647,301,10,20.814107285024246,6.897014317963616
0.41698929697272064,0.3517600090383873,301,10,20.814107285024246,6.897014317963616
0.4205060002577597,0.3517564922651242,301,10,20.814107285024246,6.897014317963616
0.42402266837909214,0.35175297552702633,301,10,20.814107285024246,6.897014317963616
0.4275393013374497,0.351749458824093,301,10,20.814107285024246,6.897014317963616
0.43105589913353487,0.3517459421563233,301,10,20.814107285024246,6.897014317963616
0.434572461768023,0.35174242552371665,301,10,20.814107285024246,6.897014317963616
0.4380889892415646,0.35173890892627224,301,10,20.814107285024246,6.897014317963616
0.4416054815547872,0.35173539236398943,301,10,20.814107285024246,6.897014317963616
0.4451219387082969,0.35173187583686755,301,10,20.814107285024246,6.897014317963616
0.44863836070268054,0.351728359344906,301,10,20.814107285024246,6.897014317963616
0.45215474753850665,0.35172484288810413,301,10,20.814107285024246,6.897014317963616
0.4556710992163271,0.35172132646646137,301,10,20.814107285024246,6.897014317963616
0.4591874157366782,0.3517178100799772,301,10,20.814107285024246,6.897014317963616
0.4627036971000823,0.351714293728651,301,10,20.814107285024246,6.897014317963616
0.4662199433070484,0.3517107774124823,301,10,20.814107285024246,6.897014317963616
0.46973615435807337,0.35170726113147055,301,10,20.814107285024246,6.897014317963616
0.47325233025364294,0.3517037448856152,301,10,20.814107285024246,6.897014317963616
0.47676847099423253,0.3517002286749158,301,10,20.814107285024246,6.897014317963616
0.4802845765803079,0.35169671249937184,301,10,20.814107285024246,6.897014317963616
0.4838006470123262,0.3516931963589829,301,10,20.814107285024246,6.897014317963616
0.4873166822907364,0.3516896802537484,301,10,20.814107285024246,6.897014317963616
0.4908326824159799,0.35168616418366805,301,10,20.814107285024246,6.897014317963616
0.49434864738849116,0.35168264814874123,301,10,20.814107285024246,6.897014317963616
0.49786457720869826,0.35167913214896757,301,10,20.814107285024246,6.897014317963616
0.5013804718770235,0.3516756161843467,301,10,20.814107285024246,6.897014317963616
0.5048963313938835,0.35167210025487805,301,10,20.814107285024246,6.897014317963616
0.50841215575969,0.35166858436056136,301,10,20.814107285024246,6.897014317963616
0.5119279449748502,0.35166506850139606,301,10,20.814107285024246,6.897014317963616
0.5154436990397667,0.35166155267738186,301,10,20.814107285024246,6.897014317963616
0.5189594179548382,0.35165803688851827,301,10,20.814107285024246,6.897014317963616
0.5224751017204605,0.35165452113480494,301,10,20.814107285024246,6.897014317963616
0.5259907503370248,0.35165100541624145,301,10,20.814107285024246,6.897014317963616
0.52950636380492,0.3516474897328274,301,10,20.814107285024246,6.897014317963616
0.5330219421245319,0.35164397408456244,301,10,20.814107285024246,6.897014317963616
0.5365374852962439,0.3516404584714461,301,10,20.814107285024246,6.897014317963616
0.5400529933204363,0.351636942893478,301,10,20.814107285024246,6.897014317963616
0.543568466197488,0.3516334273506579,301,10,20.814107285024246,6.897014317963616
0.5470839039277751,0.35162991184298525,301,10,20.814107285024246,6.897014317963616
0.550599306511672,0.3516263963704598,301,10,20.814107285024246,6.897014317963616
0.5541146739495515,0.35162288093308103,301,10,20.814107285024246,6.897014317963616
0.5576300062417847,0.35161936553084866,301,10,20.814107285024246,6.897014317963616
0.5611453033887411,0.35161585016376234,301,10,20.814107285024246,6.897014317963616
0.5646605653907888,0.35161233483182164,301,10,20.814107285024246,6.897014317963616
0.5681757922482944,0.3516088195350262,301,10,20.814107285024246,6.897014317963616
0.5716909839616238,0.3516053042733757,301,10,20.814107285024246,6.897014317963616
0.5752061405311415,0.35160178904686973,301,10,20.814107285024246,6.897014317963616
0.5787212619572109,0.35159827385550796,301,10,20.814107285024246,6.897014317963616
0.5822363482401947,0.3515947586992899,301,10,20.814107285024246,6.897014317963616
0.5857513993804543,0.35159124357821536,301,10,20.814107285024246,6.897014317963616
0.589266415378351,0.3515877284922839,301,10,20.814107285024246,6.897014317963616
0.5927813962342448,0.35158421344149515,301,10,20.814107285024246,6.897014317963616
0.596296341948495,0.35158069842584877,301,10,20.814107285024246,6.897014317963616
0.5998112525214608,0.3515771834453444,301,10,20.814107285024246,6.897014317963616
0.6033261279535004,0.3515736684999817,301,10,20.814107285024246,6.897014317963616
0.6068409682449712,0.3515701535897602,301,10,20.814107285024246,6.897014317963616
0.6103557733962309,0.35156663871467964,301,10,20.814107285024246,6.897014317963616
0.613870543407636,0.35156312387473965,301,10,20.814107285024246,6.897014317963616
0.6173852782795428,0.3515596090699399,301,10,20.814107285024246,6.897014317963616
0.6208999780123075,0.35155609430027995,301,10,20.814107285024246,6.897014317963616
0.6244146426062854,0.3515525795657595,301,10,20.814107285024246,6.897014317963616
0.6279292720618321,0.35154906486637827,301,10,20.814107285024246,6.897014317963616
0.6314438663793024,0.35154555020213574,301,10,20.814107285024246,6.897014317963616
0.634958425559051,0.35154203557303165,301,10,20.814107285024246,6.897014317963616
0.6384729496014323,0.3515385209790657,301,10,20.814107285024246,6.897014317963616
0.6419874385068004,0.3515350064202374,301,10,20.814107285024246,6.897014317963616
0.6455018922755092,0.3515314918965465,301,10,20.814107285024246,6.897014317963616
0.6490163109079127,0.3515279774079925,301,10,20.814107285024246,6.897014317963616
0.6525306944043642,0.3515244629545753,301,10,20.814107285024246,6.897014317963616
0.6560450427652172,0.35152094853629434,301,10,20.814107285024246,6.897014317963616
0.6595593559908248,0.35151743415314934,301,10,20.814107285024246,6.897014317963616
0.6630736340815401,0.3515139198051399,301,10,20.814107285024246,6.897014317963616
0.6665878770377159,0.35151040549226575,301,10,20.814107285024246,6.897014317963616
0.6701020848597053,0.35150689121452644,301,10,20.814107285024246,6.897014317963616
0.6736162575478606,0.35150337697192174,301,10,20.814107285024246,6.897014317963616
0.6771303951025345,0.35149986276445117,301,10,20.814107285024246,6.897014317963616
0.6806444975240794,0.3514963485921144,301,10,20.814107285024246,6.897014317963616
0.6841585648128478,0.3514928344549112,301,10,20.814107285024246,6.897014317963616
0.6876725969691918,0.35148932035284103,301,10,20.814107285024246,6.897014317963616
0.6911865939934636,0.3514858062859037,301,10,20.814107285024246,6.897014317963616
0.6947005558860154,0.35148229225409877,301,10,20.814107285024246,6.897014317963616
0.6982144826471991,0.3514787782574259,301,10,20.814107285024246,6.897014317963616
0.7017283742773667,0.3514752642958847,301,10,20.814107285024246,6.897014317963616
0.7052422307768702,0.351471750369475,301,10,20.814107285024246,6.897014317963616
0.7087560521460614,0.3514682364781962,301,10,20.814107285024246,6.897014317963616
0.7122698383852921,0.3514647226220481,301,10,20.814107285024246,6.897014317963616
0.7157835894949139,0.35146120880103027,301,10,20.814107285024246,6.897014317963616
0.7192973054752788,0.3514576950151424,301,10,20.814107285024246,6.897014317963616
0.7228109863267383,0.3514541812643842,301,10,20.814107285024246,6.897014317963616
0.7263246320496441,0.3514506675487552,301,10,20.814107285024246,6.897014317963616
0.7298382426443477,0.3514471538682551,301,10,20.814107285024246,6.897014317963616
0.7333518181112008,0.3514436402228836,301,10,20.814107285024246,6.897014317963616
0.7368653584505543,0.35144012661264024,301,10,20.814107285024246,6.897014317963616
0.7403788636627606,0.35143661303752477,301,10,20.814107285024246,6.897014317963616
0.7438923337481709,0.35143309949753676,301,10,20.814107285024246,6.897014317963616
0.7474057687071364,0.35142958599267593,301,10,20.814107285024246,6.897014317963616
0.7509191685400088,0.35142607252294183,301,10,20.814107285024246,6.897014317963616
0.7544325332471394,0.35142255908833425,301,10,20.814107285024246,6.897014317963616
0.7579458628288793,0.35141904568885274,301,10,20.814107285024246,6.897014317963616
0.7614591572855801,0.35141553232449696,301,10,20.814107285024246,6.897014317963616
0.7649724166175934,0.35141201899526653,301,10,20.814107285024246,6.897014317963616
0.7684856408252699,0.35140850570116117,301,10,20.814107285024246,6.897014317963616
0.7719988299089617,0.3514049924421805,301,10,20.814107285024246,6.897014317963616
0.7755119838690194,0.35140147921832415,301,10,20.814107285024246,6.897014317963616
0.7790251027057945,0.3513979660295918,301,10,20.814107285024246,6.897014317963616
0.7825381864196385,0.35139445287598303,301,10,20.814107285024246,6.897014317963616
0.7860512350109025,0.3513909397574976,301,10,20.814107285024246,6.897014317963616
0.7895642484799376,0.3513874266741351,301,10,20.814107285024246,6.897014317963616
0.7930772268270952,0.3513839136258951,301,10,20.814107285024246,6.897014317963616
0.7965901700527265,0.35138040061277737,301,10,20.814107285024246,6.897014317963616
0.8001030781571825,0.35137688763478153,301,10,20.814107285024246,6.897014317963616
0.8036159511408147,0.3513733746919072,301,10,20.814107285024246,6.897014317963616
0.8071287890039742,0.351369861784154,301,10,20.814107285024246,6.897014317963616
0.8106415917470121,0.3513663489115217,301,10,20.814107285024246,6.897014317963616
0.8141543593702798,0.3513628360740098,301,10,20.814107285024246,6.897014317963616
0.8176670918741281,0.35135932327161806,301,10,20.814107285024246,6.897014317963616
0.8211797892589086,0.3513558105043461,301,10,20.814107285024246,6.897014317963616
0.824692451524972,0.3513522977721935,301,10,20.814107285024246,6.897014317963616
0.8282050786726697,0.35134878507516004,301,10,20.814107285024246,6.897014317963616
0.8317176707023527,0.35134527241324526,301,10,20.814107285024246,6.897014317963616
0.8352302276143725,0.3513417597864488,301,10,20.814107285024246,6.897014317963616
