Vout,Iout,Irradiance,Temperature,MaxVoltage,MaxPower
0.0059558927318006565,1.19119,1001,20,21.566407657872702,25.225081056711417
0.017867568065308325,1.19119,1001,20,21.566407657872702,25.225081056711417
0.029779001237444196,1.191183924988268,1001,20,21.566407657872702,25.225081056711417
0.04169014898615937,1.1911720133129347,1001,20,21.566407657872702,25.225081056711417
0.053600997172665754,1.1911601018803701,1001,20,21.566407657872702,25.225081056711417
0.06551155968574751,1.1911481907338124,1001,20,21.566407657872702,25.225081056711417
0.07742184934605129,1.191136279886817,1001,20,21.566407657872702,25.225081056711417
0.0893318779880067,1.1911243693254951,1001,20,21.566407657872702,25.225081056711417
0.10124165653557525,1.191112459037026,1001,20,21.566407657872702,25.225081056711417
0.11315119507230334,1.191100549009575,1001,20,21.566407657872702,25.225081056711417
0.12506050290598494,1.1910886392322184,1001,20,21.566407657872702,25.225081056711417
0.13696958862834946,1.1910767296948728,1001,20,21.566407657872702,25.225081056711417
0.14887846017015655,1.1910648203882301,1001,20,21.566407657872702,25.225081056711417
0.1607871248520524,1.1910529113036987,1001,20,21.566407657872702,25.225081056711417
0.17269558943151278,1.1910410024333478,1001,20,21.566407657872702,25.225081056711417
0.18460386014617416,1.1910290937698569,1001,20,21.566407657872702,25.225081056711417
0.19651194275383113,1.1910171853064682,1001,20,21.566407657872702,25.225081056711417
0.20841984256935597,1.1910052770369444,1001,20,21.566407657872702,25.225081056711417
0.220327564498778,1.1909933689555277,1001,20,21.566407657872702,25.225081056711417
0.23223511307074038,1.190981461056903,1001,20,21.566407657872702,25.225081056711417
0.244142492465537,1.1909695533361644,1001,20,21.566407657872702,25.225081056711417
0.25604970654191495,1.1909576457887832,1001,20,21.566407657872702,25.225081056711417
0.26795675886181475,1.190945738410579,1001,20,21.566407657872702,25.225081056711417
0.2798636527132072,1.1909338311976936,1001,20,21.566407657872702,25.225081056711417
0.29177039113117303,1.1909219241465643,1001,20,21.566407657872702,25.225081056711417
0.30367697691736073,1.1909100172539036,1001,20,21.566407657872702,25.225081056711417
0.3155834126579469,1.1908981105166765,1001,20,21.566407657872702,25.225081056711417
0.3274897007402155,1.190886203932081,1001,20,21.566407657872702,25.225081056711417
0.3393958433678604,1.190874297497531,1001,20,21.566407657872702,25.225081056711417
0.3513018425751115,1.1908623912106393,1001,20,21.566407657872702,25.225081056711417
0.3632077002397733,1.1908504850692023,1001,20,21.566407657872702,25.225081056711417
0.37511341809526066,1.1908385790711857,1001,20,21.566407657872702,25.225081056711417
0.38701899774170845,1.1908266732147117,1001,20,21.566407657872702,25.225081056711417
0.398924440656226,1.1908147674980467,1001,20,21.566407657872702,25.225081056711417
0.41082974820236323,1.190802861919591,1001,20,21.566407657872702,25.225081056711417
0.4227349216388479,1.190790956477867,1001,20,21.566407657872702,25.225081056711417
0.43463996212765077,1.1907790511715115,1001,20,21.566407657872702,25.225081056711417
0.44654487074143034,1.1907671459992655,1001,20,21.566407657872702,25.225081056711417
0.45844964847040454,1.190755240959967,1001,20,21.566407657872702,25.225081056711417
0.4703542962286942,1.190743336052544,1001,20,21.566407657872702,25.225081056711417
0.4822588148601773,1.1907314312760056,1001,20,21.566407657872702,25.225081056711417
0.49416320514389456,1.1907195266294377,1001,20,21.566407657872702,25.225081056711417
0.5060674677990374,1.1907076221119968,1001,20,21.566407657872702,25.225081056711417
0.5179716034895531,1.1906957177229034,1001,20,21.566407657872702,25.225081056711417
0.5298756128283952,1.1906838134614388,1001,20,21.566407657872702,25.225081056711417
0.5417794963814474,1.1906719093269387,1001,20,21.566407657872702,25.225081056711417
0.5536832546711447,1.1906600053187901,1001,20,21.566407657872702,25.225081056711417
0.5655868881798167,1.1906481014364276,1001,20,21.566407657872702,25.225081056711417
0.5774903973527737,1.1906361976793283,1001,20,21.566407657872702,25.225081056711417
0.5893937826011544,1.19062429404701,1001,20,21.566407657872702,25.225081056711417
0.6012970443045553,1.1906123905390273,1001,20,21.566407657872702,25.225081056711417
0.6132001828134577,1.1906004871549694,1001,20,21.566407657872702,25.225081056711417
0.625103198451468,1.1905885838944563,1001,20,21.566407657872702,25.225081056711417
0.6370060915173852,1.1905766807571379,1001,20,21.566407657872702,25.225081056711417
0.6489088622871098,1.1905647777426902,1001,20,21.566407657872702,25.225081056711417
0.6608115110154057,1.1905528748508145,1001,20,21.566407657872702,25.225081056711417
0.6727140379375262,1.190540972081235,1001,20,21.566407657872702,25.225081056711417
0.6846164432707157,1.1905290694336972,1001,20,21.566407657872702,25.225081056711417
0.6965187272155945,1.1905171669079653,1001,20,21.566407657872702,25.225081056711417
0.7084208899574389,1.1905052645038223,1001,20,21.566407657872702,25.225081056711417
0.7203229316673609,1.1904933622210676,1001,20,21.566407657872702,25.225081056711417
0.7322248525033987,1.1904814600595162,1001,20,21.566407657872702,25.225081056711417
0.744126652611522,1.1904695580189963,1001,20,21.566407657872702,25.225081056711417
0.7560283321265612,1.1904576560993505,1001,20,21.566407657872702,25.225081056711417
0.7679298911730639,1.1904457543004328,1001,20,21.566407657872702,25.225081056711417
0.7798313298660863,1.1904338526221079,1001,20,21.566407657872702,25.225081056711417
0.7917326483119239,1.1904219510642515,1001,20,21.566407657872702,25.225081056711417
0.8036338466087848,1.1904100496267487,1001,20,21.566407657872702,25.225081056711417
0.8155349248474125,1.190398148309493,1001,20,21.566407657872702,25.225081056711417
0.8274358831116597,1.1903862471123863,1001,20,21.566407657872702,25.225081056711417
0.8393367214790196,1.1903743460353378,1001,20,21.566407657872702,25.225081056711417
0.8512374400211139,1.1903624450782635,1001,20,21.566407657872702,25.225081056711417
0.8631380388041454,1.1903505442410864,1001,20,21.566407657872702,25.225081056711417
0.8750385178893144,1.1903386435237344,1001,20,21.566407657872702,25.225081056711417
0.8869388773332038,1.1903267429261415,1001,20,21.566407657872702,25.225081056711417
0.8988391171881348,1.1903148424482464,1001,20,21.566407657872702,25.225081056711417
0.9107392375024943,1.1903029420899924,1001,20,21.566407657872702,25.225081056711417
0.9226392383210378,1.1902910418513275,1001,20,21.566407657872702,25.225081056711417
0.9345391196851685,1.1902791417322032,1001,20,21.566407657872702,25.225081056711417
0.9464388816331955,1.1902672417325748,1001,20,21.566407657872702,25.225081056711417
0.9583385242005722,1.1902553418524007,1001,20,21.566407657872702,25.225081056711417
0.9702380474201153,1.1902434420916426,1001,20,21.566407657872702,25.225081056711417
0.9821374513222083,1.1902315424502652,1001,20,21.566407657872702,25.225081056711417
0.9940367359349882,1.1902196429282357,1001,20,21.566407657872702,25.225081056711417
1.005935901284519,1.1902077435255236,1001,20,21.566407657872702,25.225081056711417
1.0178349473949504,1.1901958442421008,1001,20,21.566407657872702,25.225081056711417
1.0297338742886653,1.190183945077941,1001,20,21.566407657872702,25.225081056711417
1.0416326819864166,1.1901720460330205,1001,20,21.566407657872702,25.225081056711417
1.0535313705074512,1.1901601471073169,1001,20,21.566407657872702,25.225081056711417
1.0654299398696274,1.190148248300809,1001,20,21.566407657872702,25.225081056711417
1.07732839008952,1.1901363496134778,1001,20,21.566407657872702,25.225081056711417
1.0892267211825213,1.1901244510453055,1001,20,21.566407657872702,25.225081056711417
1.101124933162929,1.1901125525962755,1001,20,21.566407657872702,25.225081056711417
1.1130230260440344,1.1901006542663723,1001,20,21.566407657872702,25.225081056711417
1.1249209998381955,1.1900887560555817,1001,20,21.566407657872702,25.225081056711417
1.1368188545569122,1.1900768579638905,1001,20,21.566407657872702,25.225081056711417
1.148716590210891,1.1900649599912863,1001,20,21.566407657872702,25.225081056711417
1.1606142068101055,1.1900530621377572,1001,20,21.566407657872702,25.225081056711417
1.1725117043638538,1.190041164403293,1001,20,21.566407657872702,25.225081056711417
1.1844090828808107,1.1900292667878836,1001,20,21.566407657872702,25.225081056711417
1.1963063423690738,1.1900173692915197,1001,20,21.566407657872702,25.225081056711417
1.2082034828362098,1.1900054719141926,1001,20,21.566407657872702,25.225081056711417
1.220100504289295,1.189993574655894,1001,20,21.566407657872702,25.225081056711417
1.2319974067349524,1.1899816775166165,1001,20,21.566407657872702,25.225081056711417
1.243894190179386,1.1899697804963532,1001,20,21.566407657872702,25.225081056711417
1.2557908546284158,1.1899578835950972,1001,20,21.566407657872702,25.225081056711417
1.2676874000875042,1.1899459868128426,1001,20,21.566407657872702,25.225081056711417
1.279583826561785,1.1899340901495832,1001,20,21.566407657872702,25.225081056711417
1.2914801340560884,1.1899221936053137,1001,20,21.566407657872702,25.225081056711417
1.3033763225749648,1.1899102971800293,1001,20,21.566407657872702,25.225081056711417
1.3152723921227059,1.1898984008737246,1001,20,21.566407657872702,25.225081056711417
1.3271683427033643,1.1898865046863953,1001,20,21.566407657872702,25.225081056711417
1.3390641743207725,1.1898746086180372,1001,20,21.566407657872702,25.225081056711417
1.3509598869785595,1.189862712668646,1001,20,21.566407657872702,25.225081056711417
1.362855480680167,1.1898508168382183,1001,20,21.566407657872702,25.225081056711417
1.3747509554288624,1.1898389211267502,1001,20,21.566407657872702,25.225081056711417
1.3866463112277543,1.189827025534238,1001,20,21.566407657872702,25.225081056711417
1.398541548079803,1.189815130060679,1001,20,21.566407657872702,25.225081056711417
1.4104366659878325,1.1898032347060696,1001,20,21.566407657872702,25.225081056711417
1.4223316649545408,1.1897913394704072,1001,20,21.566407657872702,25.225081056711417
1.4342265449825102,1.1897794443536887,1001,20,21.566407657872702,25.225081056711417
1.446121306074216,1.1897675493559114,1001,20,21.566407657872702,25.225081056711417
1.4580159482320336,1.189755654477073,1001,20,21.566407657872702,25.225081056711417
1.4699104714582478,1.1897437597171707,1001,20,21.566407657872702,25.225081056711417
1.4818048757550593,1.1897318650762025,1001,20,21.566407657872702,25.225081056711417
1.4936991611245896,1.1897199705541657,1001,20,21.566407657872702,25.225081056711417
1.5055933275688902,1.1897080761510583,1001,20,21.566407657872702,25.225081056711417
1.5174873750899447,1.1896961818668783,1001,20,21.566407657872702,25.225081056711417
1.5293813036896768,1.1896842877016234,1001,20,21.566407657872702,25.225081056711417
1.5412751133699532,1.1896723936552918,1001,20,21.566407657872702,25.225081056711417
1.553168804132588,1.1896604997278815,1001,20,21.566407657872702,25.225081056711417
1.5650623759793476,1.1896486059193907,1001,20,21.566407657872702,25.225081056711417
1.5769558289119536,1.1896367122298175,1001,20,21.566407657872702,25.225081056711417
1.5888491629320873,1.18962481865916,1001,20,21.566407657872702,25.225081056711417
1.6007423780413907,1.1896129252074168,1001,20,21.566407657872702,25.225081056711417
1.6126354742414728,1.189601031874586,1001,20,21.566407657872702,25.225081056711417
1.624528451533909,1.189589138660666,1001,20,21.566407657872702,25.225081056711417
1.6364213099202454,1.1895772455656553,1001,20,21.566407657872702,25.225081056711417
1.6483140494019999,1.1895653525895522,1001,20,21.566407657872702,25.225081056711417
1.660206669980666,1.1895534597323552,1001,20,21.566407657872702,25.225081056711417
1.6720991716577132,1.1895415669940628,1001,20,21.566407657872702,25.225081056711417
1.6839915544345896,1.1895296743746733,1001,20,21.566407657872702,25.225081056711417
1.695883818312723,1.1895177818741856,1001,20,21.566407657872702,25.225081056711417
1.7077759632935234,1.1895058894925978,1001,20,21.566407657872702,25.225081056711417
1.719667989378383,1.189493997229909,1001,20,21.566407657872702,25.225081056711417
1.7315598965686791,1.1894821050861175,1001,20,21.566407657872702,25.225081056711417
1.7434516848657737,1.1894702130612218,1001,20,21.566407657872702,25.225081056711417
1.7553433542710164,1.1894583211552208,1001,20,21.566407657872702,25.225081056711417
1.7672349047857436,1.1894464293681128,1001,20,21.566407657872702,25.225081056711417
1.7791263364112802,1.189434537699897,1001,20,21.566407657872702,25.225081056711417
1.7910176491489416,1.1894226461505712,1001,20,21.566407657872702,25.225081056711417
1.802908843000032,1.189410754720135,1001,20,21.566407657872702,25.225081056711417
1.8147999179658483,1.1893988634085864,1001,20,21.566407657872702,25.225081056711417
1.8266908740476777,1.1893869722159245,1001,20,21.566407657872702,25.225081056711417
1.8385817112468004,1.1893750811421477,1001,20,21.566407657872702,25.225081056711417
1.8504724295644899,1.189363190187255,1001,20,21.566407657872702,25.225081056711417
1.8623630290020121,1.189351299351245,1001,20,21.566407657872702,25.225081056711417
1.874253509560628,1.1893394086341165,1001,20,21.566407657872702,25.225081056711417
1.8861438712415923,1.189327518035868,1001,20,21.566407657872702,25.225081056711417
1.8980341140461554,1.1893156275564984,1001,20,21.566407657872702,25.225081056711417
1.909924237975562,1.1893037371960067,1001,20,21.566407657872702,25.225081056711417
1.9218142430310532,1.1892918469543912,1001,20,21.566407657872702,25.225081056711417
1.933704129213865,1.1892799568316508,1001,20,21.566407657872702,25.225081056711417
1.945593896525231,1.1892680668277842,1001,20,21.566407657872702,25.225081056711417
1.9574835449663803,1.1892561769427905,1001,20,21.566407657872702,25.225081056711417
1.9693730745385398,1.189244287176668,1001,20,21.566407657872702,25.225081056711417
1.9812624852429324,1.189232397529416,1001,20,21.566407657872702,25.225081056711417
1.9931517770807794,1.1892205080010327,1001,20,21.566407657872702,25.225081056711417
2.0050409500532984,1.1892086185915174,1001,20,21.566407657872702,25.225081056711417
2.016930004161706,1.1891967293008683,1001,20,21.566407657872702,25.225081056711417
2.028818939407216,1.1891848401290848,1001,20,21.566407657872702,25.225081056711417
2.040707755791039,1.1891729510761653,1001,20,21.566407657872702,25.225081056711417
2.052596453314387,1.1891610621421087,1001,20,21.566407657872702,25.225081056711417
2.064485031978467,1.1891491733269137,1001,20,21.566407657872702,25.225081056711417
2.0763734917844854,1.1891372846305794,1001,20,21.566407657872702,25.225081056711417
2.088261832733649,1.189125396053104,1001,20,21.566407657872702,25.225081056711417
2.10015005482716,1.189113507594487,1001,20,21.566407657872702,25.225081056711417
2.1120381580662224,1.1891016192547268,1001,20,21.566407657872702,25.225081056711417
2.123926142452038,1.189089731033822,1001,20,21.566407657872702,25.225081056711417
2.1358140079858066,1.1890778429317719,1001,20,21.566407657872702,25.225081056711417
2.147701754668728,1.189065954948575,1001,20,21.566407657872702,25.225081056711417
2.1595893825020025,1.1890540670842298,1001,20,21.566407657872702,25.225081056711417
2.1714768914868263,1.1890421793387358,1001,20,21.566407657872702,25.225081056711417
2.183364281624397,1.1890302917120912,1001,20,21.566407657872702,25.225081056711417
2.1952515529159116,1.1890184042042953,1001,20,21.566407657872702,25.225081056711417
2.2071387053625657,1.1890065168153463,1001,20,21.566407657872702,25.225081056711417
2.2190257389655543,1.1889946295452436,1001,20,21.566407657872702,25.225081056711417
2.2309126537260724,1.1889827423939858,1001,20,21.566407657872702,25.225081056711417
2.2427994496453136,1.1889708553615714,1001,20,21.566407657872702,25.225081056711417
2.2546861267244718,1.1889589684479998,1001,20,21.566407657872702,25.225081056711417
2.2665726849647405,1.188947081653269,1001,20,21.566407657872702,25.225081056711417
2.2784591243673122,1.1889351949773788,1001,20,21.566407657872702,25.225081056711417
2.2903454449333798,1.188923308420327,1001,20,21.566407657872702,25.225081056711417
2.302231646664136,1.188911421982113,1001,20,21.566407657872702,25.225081056711417
2.3141177295607704,1.1888995356627357,1001,20,21.566407657872702,25.225081056711417
2.3260036936244766,1.1888876494621936,1001,20,21.566407657872702,25.225081056711417
2.337889538856445,1.1888757633804856,1001,20,21.566407657872702,25.225081056711417
2.3497752652578674,1.1888638774176106,1001,20,21.566407657872702,25.225081056711417
2.3616608728299324,1.1888519915735671,1001,20,21.566407657872702,25.225081056711417
2.3735463615738333,1.1888401058483544,1001,20,21.566407657872702,25.225081056711417
2.385431731490758,1.1888282202419709,1001,20,21.566407657872702,25.225081056711417
2.397316982581898,1.1888163347544156,1001,20,21.566407657872702,25.225081056711417
2.4092021148484433,1.188804449385687,1001,20,21.566407657872702,25.225081056711417
2.4210871282915827,1.1887925641357846,1001,20,21.566407657872702,25.225081056711417
2.432972022912507,1.1887806790047066,1001,20,21.566407657872702,25.225081056711417
2.444856798712405,1.188768793992452,1001,20,21.566407657872702,25.225081056711417
2.4567414556924656,1.1887569090990195,1001,20,21.566407657872702,25.225081056711417
2.468625993853879,1.1887450243244082,1001,20,21.566407657872702,25.225081056711417
2.4805104131978344,1.1887331396686165,1001,20,21.566407657872702,25.225081056711417
2.492394713725519,1.1887212551316437,1001,20,21.566407657872702,25.225081056711417
2.5042788954381234,1.1887093707134881,1001,20,21.566407657872702,25.225081056711417
2.5161629583368375,1.1886974864141489,1001,20,21.566407657872702,25.225081056711417
2.5280469024228474,1.1886856022336247,1001,20,21.566407657872702,25.225081056711417
2.539930727697343,1.1886737181719145,1001,20,21.566407657872702,25.225081056711417
2.5518144341615128,1.188661834229017,1001,20,21.566407657872702,25.225081056711417
2.5636980218165455,1.1886499504049308,1001,20,21.566407657872702,25.225081056711417
2.575581490663629,1.188638066699655,1001,20,21.566407657872702,25.225081056711417
2.587464840703953,1.1886261831131884,1001,20,21.566407657872702,25.225081056711417
2.599348071938704,1.1886142996455298,1001,20,21.566407657872702,25.225081056711417
2.6112311843690716,1.1886024162966777,1001,20,21.566407657872702,25.225081056711417
2.623114177996244,1.1885905330666313,1001,20,21.566407657872702,25.225081056711417
2.6349970528214084,1.1885786499553892,1001,20,21.566407657872702,25.225081056711417
2.646879808845754,1.1885667669629505,1001,20,21.566407657872702,25.225081056711417
2.658762446070468,1.1885548840893136,1001,20,21.566407657872702,25.225081056711417
2.670644964496739,1.1885430013344775,1001,20,21.566407657872702,25.225081056711417
2.682527364125755,1.188531118698441,1001,20,21.566407657872702,25.225081056711417
2.6944096449587045,1.1885192361812031,1001,20,21.566407657872702,25.225081056711417
2.7062918069967745,1.1885073537827624,1001,20,21.566407657872702,25.225081056711417
2.718173850241153,1.1884954715031177,1001,20,21.566407657872702,25.225081056711417
2.7300557746930285,1.1884835893422678,1001,20,21.566407657872702,25.225081056711417
2.7419375803535884,1.1884717073002116,1001,20,21.566407657872702,25.225081056711417
2.7538192672240194,1.188459825376948,1001,20,21.566407657872702,25.225081056711417
2.765700835305512,1.1884479435724757,1001,20,21.566407657872702,25.225081056711417
2.777582284599252,1.1884360618867935,1001,20,21.566407657872702,25.225081056711417
2.789463615106428,1.1884241803199,1001,20,21.566407657872702,25.225081056711417
