Vout,Iout,Irradiance,Temperature,MaxVoltage,MaxPower
0.00186618205594177,0.37324,301,45,22.816907467792554,7.984677950638275
0.005598511660352823,0.37324,301,45,22.816907467792554,7.984677950638275
0.009330765387439174,0.37323809649394407,301,45,22.816907467792554,7.984677950638275
0.013062929681741893,0.37323436416433964,301,45,22.816907467792554,7.984677950638275
0.01679500011310183,0.3732306319108029,301,45,22.816907467792554,7.984677950638275
0.02052698103334346,0.37322689974688184,301,45,22.816907467792554,7.984677950638275
0.024258876459607778,0.37322316767682373,301,45,22.816907467792554,7.984677950638275
0.027990690100020667,0.3732194356962767,301,45,22.816907467792554,7.984677950638275
0.03172242537742771,0.37321570380122365,301,45,22.816907467792554,7.984677950638275
0.035454085451344035,0.3732119719879564,301,45,22.816907467792554,7.984677950638275
0.03918567323821542,0.3732082402530522,301,45,22.816907467792554,7.984677950638275
0.04291719143012042,0.37320450859335147,301,45,22.816907467792554,7.984677950638275
0.04664864251203353,0.3732007770059378,301,45,22.816907467792554,7.984677950638275
0.05038002877776009,0.37319704548811905,301,45,22.816907467792554,7.984677950638275
0.054111352344645126,0.3731933140374103,301,45,22.816907467792554,7.984677950638275
0.05784261516715054,0.3731895826515177,301,45,22.816907467792554,7.984677950638275
0.06157381904938753,0.373185851328324,301,45,22.816907467792554,7.984677950638275
0.06530496565668484,0.3731821200658746,301,45,22.816907467792554,7.984677950638275
0.06903605652626692,0.3731783888623655,301,45,22.816907467792554,7.984677950638275
0.0727670930771104,0.37317465771613134,301,45,22.816907467792554,7.984677950638275
0.07649807661904233,0.37317092662563484,301,45,22.816907467792554,7.984677950638275
0.0802290083611383,0.37316719558945716,301,45,22.816907467792554,7.984677950638275
0.08395988941947444,0.3731634646062883,301,45,22.816907467792554,7.984677950638275
0.08769072082428284,0.37315973367491934,301,45,22.816907467792554,7.984677950638275
0.09142150352655666,0.37315600279423405,301,45,22.816907467792554,7.984677950638275
0.09515223840414687,0.3731522719632024,301,45,22.816907467792554,7.984677950638275
0.09888292626738986,0.3731485411808732,301,45,22.816907467792554,7.984677950638275
0.10261356786430213,0.37314481044636866,301,45,22.816907467792554,7.984677950638275
0.1063441638853753,0.3731410797588785,301,45,22.816907467792554,7.984677950638275
0.11007471496800224,0.37313734911765467,301,45,22.816907467792554,7.984677950638275
0.11380522170056241,0.37313361852200666,301,45,22.816907467792554,7.984677950638275
0.11753568462619318,0.3731298879712971,301,45,22.816907467792554,7.984677950638275
0.1212661042462707,0.3731261574649376,301,45,22.816907467792554,7.984677950638275
0.12499648102362322,0.373122427002385,301,45,22.816907467792554,7.984677950638275
0.12872681538549688,0.373118696583138,301,45,22.816907467792554,7.984677950638275
0.13245710772629352,0.3731149662067337,301,45,22.816907467792554,7.984677950638275
0.1361873584100978,0.37311123587274486,301,45,22.816907467792554,7.984677950638275
0.13991756777300973,0.3731075055807771,301,45,22.816907467792554,7.984677950638275
0.1436477361252981,0.37310377533046635,301,45,22.816907467792554,7.984677950638275
0.14737786375338763,0.37310004512147643,301,45,22.816907467792554,7.984677950638275
0.15110795092169396,0.3730963149534972,301,45,22.816907467792554,7.984677950638275
0.15483799787431665,0.37309258482624214,301,45,22.816907467792554,7.984677950638275
0.15856800483660272,0.3730888547394468,301,45,22.816907467792554,7.984677950638275
0.16229797201658913,0.3730851246928672,301,45,22.816907467792554,7.984677950638275
0.16602789960633504,0.37308139468627793,301,45,22.816907467792554,7.984677950638275
0.16975778778315082,0.37307766471947096,301,45,22.816907467792554,7.984677950638275
0.17348763671073303,0.3730739347922542,301,45,22.816907467792554,7.984677950638275
0.17721744654021176,0.3730702049044504,301,45,22.816907467792554,7.984677950638275
0.18094721741111777,0.3730664750558958,301,45,22.816907467792554,7.984677950638275
0.1846769494522746,0.3730627452464393,301,45,22.816907467792554,7.984677950638275
0.18840664278262265,0.3730590154759414,301,45,22.816907467792554,7.984677950638275
0.19213629751197964,0.3730552857442732,301,45,22.816907467792554,7.984677950638275
0.19586591374174234,0.37305155605131585,301,45,22.816907467792554,7.984677950638275
0.19959549156553447,0.37304782639695944,301,45,22.816907467792554,7.984677950638275
0.203325031069805,0.3730440967811027,301,45,22.816907467792554,7.984677950638275
0.20705453233438,0.37304036720365186,301,45,22.816907467792554,7.984677950638275
0.2107839954329724,0.37303663766452055,301,45,22.816907467792554,7.984677950638275
0.2145134204336521,0.37303290816362894,301,45,22.816907467792554,7.984677950638275
0.2182428073992802,0.3730291787009033,301,45,22.816907467792554,7.984677950638275
0.22197215638791004,0.37302544927627557,301,45,22.816907467792554,7.984677950638275
0.2257014674531568,0.37302171988968286,301,45,22.816907467792554,7.984677950638275
0.2294307406445392,0.37301799054106716,301,45,22.816907467792554,7.984677950638275
0.2331599760077944,0.37301426123037484,301,45,22.816907467792554,7.984677950638275
0.23688917358516925,0.3730105319575564,301,45,22.816907467792554,7.984677950638275
0.2406183334156889,0.3730068027225661,301,45,22.816907467792554,7.984677950638275
0.24434745553540427,0.37300307352536166,301,45,22.816907467792554,7.984677950638275
0.24807653997762122,0.37299934436590404,301,45,22.816907467792554,7.984677950638275
0.2518055867731118,0.37299561524415725,301,45,22.816907467792554,7.984677950638275
0.25553459595030886,0.37299188616008794,301,45,22.816907467792554,7.984677950638275
0.25926356753548646,0.3729881571136654,301,45,22.816907467792554,7.984677950638275
0.26299250155292575,0.3729844281048611,301,45,22.816907467792554,7.984677950638275
0.2667213980250681,0.37298069913364884,301,45,22.816907467792554,7.984677950638275
0.27045025697265723,0.37297697020000425,301,45,22.816907467792554,7.984677950638275
0.27417907841486916,0.372973241303905,301,45,22.816907467792554,7.984677950638275
0.2779078623694334,0.37296951244533033,301,45,22.816907467792554,7.984677950638275
0.28163660885274383,0.372965783624261,301,45,22.816907467792554,7.984677950638275
0.28536531787996156,0.37296205484067935,301,45,22.816907467792554,7.984677950638275
0.28909398946511017,0.3729583260945689,301,45,22.816907467792554,7.984677950638275
0.2928226236211626,0.3729545973859146,301,45,22.816907467792554,7.984677950638275
0.29655122036012244,0.3729508687147023,301,45,22.816907467792554,7.984677950638275
0.30027977969309844,0.3729471400809191,301,45,22.816907467792554,7.984677950638275
0.3040083016303732,0.372943411484553,301,45,22.816907467792554,7.984677950638275
0.3077367861814668,0.37293968292559293,301,45,22.816907467792554,7.984677950638275
0.31146523335519566,0.3729359544040285,301,45,22.816907467792554,7.984677950638275
0.3151936431597263,0.37293222591985026,301,45,22.816907467792554,7.984677950638275
0.3189220156026257,0.3729284974730494,301,45,22.816907467792554,7.984677950638275
0.3226503506909073,0.3729247690636177,301,45,22.816907467792554,7.984677950638275
0.3263786484310736,0.37292104069154763,301,45,22.816907467792554,7.984677950638275
0.3301069088291554,0.3729173123568322,301,45,22.816907467792554,7.984677950638275
0.3338351318907481,0.3729135840594649,301,45,22.816907467792554,7.984677950638275
0.3375633176210453,0.37290985579943964,301,45,22.816907467792554,7.984677950638275
0.3412914660248698,0.37290612757675085,301,45,22.816907467792554,7.984677950638275
0.34501957710670195,0.3729023993913934,301,45,22.816907467792554,7.984677950638275
0.3487476508707058,0.3728986712433624,301,45,22.816907467792554,7.984677950638275
0.3524756873207538,0.37289494313265337,301,45,22.816907467792554,7.984677950638275
0.35620368646044925,0.3728912150592622,301,45,22.816907467792554,7.984677950638275
0.3599316482931468,0.37288748702318497,301,45,22.816907467792554,7.984677950638275
0.36365957282197164,0.37288375902441806,301,45,22.816907467792554,7.984677950638275
0.36738746004983724,0.3728800310629582,301,45,22.816907467792554,7.984677950638275
0.3711153099794613,0.37287630313880216,301,45,22.816907467792554,7.984677950638275
0.37484312261338143,0.37287257525194706,301,45,22.816907467792554,7.984677950638275
0.3785708979539685,0.37286884740239024,301,45,22.816907467792554,7.984677950638275
0.38229863600343966,0.37286511959012913,301,45,22.816907467792554,7.984677950638275
0.38602633676387005,0.3728613918151613,301,45,22.816907467792554,7.984677950638275
0.3897540002372038,0.3728576640774846,301,45,22.816907467792554,7.984677950638275
0.3934816264252644,0.37285393637709696,301,45,22.816907467792554,7.984677950638275
0.3972092153297633,0.3728502087139964,301,45,22.816907467792554,7.984677950638275
0.40093676695230923,0.37284648108818114,301,45,22.816907467792554,7.984677950638275
0.40466428129441573,0.3728427534996494,301,45,22.816907467792554,7.984677950638275
0.40839175835750846,0.37283902594839957,301,45,22.816907467792554,7.984677950638275
0.41211919814293213,0.37283529843443025,301,45,22.816907467792554,7.984677950638275
0.41584660065195667,0.3728315709577399,301,45,22.816907467792554,7.984677950638275
0.41957396588578294,0.37282784351832726,301,45,22.816907467792554,7.984677950638275
0.4233012938455479,0.372824116116191,301,45,22.816907467792554,7.984677950638275
0.42702858453232995,0.3728203887513299,301,45,22.816907467792554,7.984677950638275
0.4307558379471531,0.37281666142374287,301,45,22.816907467792554,7.984677950638275
0.43448305409099114,0.3728129341334288,301,45,22.816907467792554,7.984677950638275
0.43821023296477163,0.3728092068803867,301,45,22.816907467792554,7.984677950638275
0.44193737456937954,0.37280547966461564,301,45,22.816907467792554,7.984677950638275
0.4456644789056602,0.3728017524861146,301,45,22.816907467792554,7.984677950638275
0.4493915459744228,0.37279802534488266,301,45,22.816907467792554,7.984677950638275
0.45311857577644277,0.3727942982409191,301,45,22.816907467792554,7.984677950638275
0.4568455683124647,0.37279057117422304,301,45,22.816907467792554,7.984677950638275
0.4605725235832042,0.37278684414479374,301,45,22.816907467792554,7.984677950638275
0.4642994415893508,0.37278311715263046,301,45,22.816907467792554,7.984677950638275
0.46802632233156966,0.3727793901977324,301,45,22.816907467792554,7.984677950638275
0.47175316581050314,0.3727756632800989,301,45,22.816907467792554,7.984677950638275
0.4754799720267731,0.37277193639972944,301,45,22.816907467792554,7.984677950638275
0.479206740980982,0.3727682095566232,301,45,22.816907467792554,7.984677950638275
0.4829334726737147,0.3727644827507796,301,45,22.816907467792554,7.984677950638275
0.4866601671055399,0.3727607559821981,301,45,22.816907467792554,7.984677950638275
0.4903868242770109,0.372757029250878,301,45,22.816907467792554,7.984677950638275
0.49411344418866726,0.3727533025568189,301,45,22.816907467792554,7.984677950638275
0.4978400268410355,0.37274957590002006,301,45,22.816907467792554,7.984677950638275
0.5015665722346306,0.3727458492804811,301,45,22.816907467792554,7.984677950638275
0.5052930803699563,0.3727421226982014,301,45,22.816907467792554,7.984677950638275
0.5090195512475063,0.37273839615318044,301,45,22.816907467792554,7.984677950638275
0.512745984867765,0.3727346696454178,301,45,22.816907467792554,7.984677950638275
0.5164723812312084,0.3727309431749129,301,45,22.816907467792554,7.984677950638275
0.520198740338304,0.3727272167416653,301,45,22.816907467792554,7.984677950638275
0.5239250621895126,0.3727234903456745,301,45,22.816907467792554,7.984677950638275
0.5276513467852876,0.37271976398694,301,45,22.816907467792554,7.984677950638275
0.5313775941260768,0.37271603766546146,301,45,22.816907467792554,7.984677950638275
0.5351038042123215,0.37271231138123834,301,45,22.816907467792554,7.984677950638275
0.5388299770444583,0.3727085851342702,301,45,22.816907467792554,7.984677950638275
0.5425561126229186,0.37270485892455657,301,45,22.816907467792554,7.984677950638275
0.5462822109481291,0.37270113275209704,301,45,22.816907467792554,7.984677950638275
0.5500082720205128,0.3726974066168912,301,45,22.816907467792554,7.984677950638275
0.5537342958404885,0.3726936805189386,301,45,22.816907467792554,7.984677950638275
0.5574602824084712,0.3726899544582388,301,45,22.816907467792554,7.984677950638275
0.5611862317248731,0.3726862284347915,301,45,22.816907467792554,7.984677950638275
0.5649121437901028,0.3726825024485961,301,45,22.816907467792554,7.984677950638275
0.5686380186045666,0.3726787764996523,301,45,22.816907467792554,7.984677950638275
0.5723638561686681,0.3726750505879597,301,45,22.816907467792554,7.984677950638275
0.5760896564828083,0.3726713247135178,301,45,22.816907467792554,7.984677950638275
0.5798154195473859,0.3726675988763263,301,45,22.816907467792554,7.984677950638275
0.5835411453627981,0.3726638730763847,301,45,22.816907467792554,7.984677950638275
0.5872668339294398,0.37266014731369274,301,45,22.816907467792554,7.984677950638275
0.5909924852477041,0.3726564215882499,301,45,22.816907467792554,7.984677950638275
0.5947180993179826,0.37265269590005584,301,45,22.816907467792554,7.984677950638275
0.5984436761406655,0.37264897024911015,301,45,22.816907467792554,7.984677950638275
0.6021692157161417,0.37264524463541243,301,45,22.816907467792554,7.984677950638275
0.6058947180447984,0.3726415190589623,301,45,22.816907467792554,7.984677950638275
0.6096201831270223,0.3726377935197594,301,45,22.816907467792554,7.984677950638275
0.6133456109631984,0.3726340680178033,301,45,22.816907467792554,7.984677950638275
0.617071001553711,0.37263034255309363,301,45,22.816907467792554,7.984677950638275
0.6207963548989436,0.37262661712563,301,45,22.816907467792554,7.984677950638275
0.6245216709992784,0.3726228917354121,301,45,22.816907467792554,7.984677950638275
0.6282469498550974,0.37261916638243936,301,45,22.816907467792554,7.984677950638275
0.6319721914667816,0.3726154410667116,301,45,22.816907467792554,7.984677950638275
0.6356973958347111,0.37261171578822827,301,45,22.816907467792554,7.984677950638275
0.6394225629592659,0.3726079905469891,301,45,22.816907467792554,7.984677950638275
0.6431476928408248,0.37260426534299373,301,45,22.816907467792554,7.984677950638275
0.6468727854797666,0.37260054017624167,301,45,22.816907467792554,7.984677950638275
0.6505978408764693,0.37259681504673264,301,45,22.816907467792554,7.984677950638275
0.6543228590313108,0.3725930899544662,301,45,22.816907467792554,7.984677950638275
0.6580478399446683,0.37258936489944205,301,45,22.816907467792554,7.984677950638275
0.6617727836169185,0.3725856398816597,301,45,22.816907467792554,7.984677950638275
0.6654976900484382,0.37258191490111886,301,45,22.816907467792554,7.984677950638275
0.6692225592396032,0.3725781899578191,301,45,22.816907467792554,7.984677950638275
0.6729473911907896,0.37257446505176006,301,45,22.816907467792554,7.984677950638275
0.6766721859023731,0.3725707401829414,301,45,22.816907467792554,7.984677950638275
0.680396943374729,0.3725670153513627,301,45,22.816907467792554,7.984677950638275
0.6841216636082323,0.37256329055702364,301,45,22.816907467792554,7.984677950638275
0.6878463466032583,0.3725595657999238,301,45,22.816907467792554,7.984677950638275
0.6915709923601813,0.37255584108006273,301,45,22.816907467792554,7.984677950638275
0.6952956008793758,0.3725521163974402,301,45,22.816907467792554,7.984677950638275
0.6990201721612166,0.37254839175205573,301,45,22.816907467792554,7.984677950638275
0.7027447062060773,0.372544667143909,301,45,22.816907467792554,7.984677950638275
0.7064692030143322,0.37254094257299963,301,45,22.816907467792554,7.984677950638275
0.710193662586355,0.3725372180393272,301,45,22.816907467792554,7.984677950638275
0.7139180849225197,0.37253349354289145,301,45,22.816907467792554,7.984677950638275
0.7176424700231998,0.37252976908369184,301,45,22.816907467792554,7.984677950638275
0.7213668178887687,0.3725260446617281,301,45,22.816907467792554,7.984677950638275
0.7250911285196002,0.3725223202769999,301,45,22.816907467792554,7.984677950638275
0.7288154019160673,0.37251859592950676,301,45,22.816907467792554,7.984677950638275
0.7325396380785434,0.3725148716192484,301,45,22.816907467792554,7.984677950638275
0.7362638370074015,0.37251114734622437,301,45,22.816907467792554,7.984677950638275
0.739987998703015,0.37250742311043433,301,45,22.816907467792554,7.984677950638275
0.7437121231657566,0.3725036989118779,301,45,22.816907467792554,7.984677950638275
0.7474362103959998,0.3724999747505547,301,45,22.816907467792554,7.984677950638275
0.7511602603941169,0.37249625062646435,301,45,22.816907467792554,7.984677950638275
0.7548842731604809,0.3724925265396065,301,45,22.816907467792554,7.984677950638275
0.7586082486954647,0.37248880248998084,301,45,22.816907467792554,7.984677950638275
0.7623321869994412,0.3724850784775869,301,45,22.816907467792554,7.984677950638275
0.7660560880727829,0.3724813545024243,301,45,22.816907467792554,7.984677950638275
0.7697799519158626,0.37247763056449273,301,45,22.816907467792554,7.984677950638275
0.7735037785290527,0.37247390666379177,301,45,22.816907467792554,7.984677950638275
0.7772275679127258,0.37247018280032107,301,45,22.816907467792554,7.984677950638275
0.7809513200672548,0.3724664589740803,301,45,22.816907467792554,7.984677950638275
0.7846750349930117,0.372462735185069,301,45,22.816907467792554,7.984677950638275
0.7883987126903697,0.37245901143328686,301,45,22.816907467792554,7.984677950638275
0.7921223531597006,0.3724552877187335,301,45,22.816907467792554,7.984677950638275
0.7958459564013771,0.3724515640414085,301,45,22.816907467792554,7.984677950638275
0.7995695224157717,0.37244784040131157,301,45,22.816907467792554,7.984677950638275
0.803293051203257,0.37244411679844225,301,45,22.816907467792554,7.984677950638275
0.8070165427642049,0.3724403932328002,301,45,22.816907467792554,7.984677950638275
0.8107399970989879,0.3724366697043851,301,45,22.816907467792554,7.984677950638275
0.8144634142079786,0.3724329462131965,301,45,22.816907467792554,7.984677950638275
0.8181867940915492,0.37242922275923407,301,45,22.816907467792554,7.984677950638275
0.821910136750072,0.3724254993424974,301,45,22.816907467792554,7.984677950638275
0.8256334421839191,0.3724217759629862,301,45,22.816907467792554,7.984677950638275
0.8293567103934633,0.3724180526207,301,45,22.816907467792554,7.984677950638275
0.8330799413790763,0.3724143293156385,301,45,22.816907467792554,7.984677950638275
0.8368031351411306,0.3724106060478013,301,45,22.816907467792554,7.984677950638275
0.8405262916799984,0.37240688281718803,301,45,22.816907467792554,7.984677950638275
0.844249410996052,0.3724031596237983,301,45,22.816907467792554,7.984677950638275
0.8479724930896636,0.37239943646763174,301,45,22.816907467792554,7.984677950638275
0.8516955379612052,0.372395713348688,301,45,22.816907467792554,7.984677950638275
0.8554185456110496,0.37239199026696673,301,45,22.816907467792554,7.984677950638275
0.8591415160395683,0.3723882672224675,301,45,22.816907467792554,7.984677950638275
0.862864449247134,0.37238454421518996,301,45,22.816907467792554,7.984677950638275
0.8665873452341186,0.3723808212451337,301,45,22.816907467792554,7.984677950638275
0.8703102040008944,0.3723770983122985,301,45,22.816907467792554,7.984677950638275
0.8740330255478335,0.37237337541668375,301,45,22.816907467792554,7.984677950638275
0.877755809875308,0.3723696525582893,301,45,22.816907467792554,7.984677950638275
0.88147855698369,0.37236592973711463,301,45,22.816907467792554,7.984677950638275
0.8852012668733521,0.37236220695315947,301,45,22.816907467792554,7.984677950638275
