Vout,Iout,Irradiance,Temperature,MaxVoltage,MaxPower
0.005315848886068402,1.0631799999999998,901,15,21.18825743959432,22.078428546020536
0.01594744836312805,1.0631799999999998,901,15,21.18825743959432,22.078428546020536
0.026578831702436984,1.0631745778331136,901,15,21.18825743959432,22.078428546020536
0.03720996029105761,1.0631639462336366,901,15,21.18825743959432,22.078428546020536
0.047840821509612046,1.0631533148508396,901,15,21.18825743959432,22.078428546020536
0.05847142775434063,1.0631426837233142,901,15,21.18825743959432,22.078428546020536
0.06910179046813254,1.0631320528631587,901,15,21.18825743959432,22.078428546020536
0.0797319202136426,1.063121422257977,901,15,21.18825743959432,22.078428546020536
0.09036182674090017,1.0631107918963263,901,15,21.18825743959432,22.078428546020536
0.10099151904983372,1.0631001617676439,901,15,21.18825743959432,22.078428546020536
0.11162100544798484,1.0630895318621798,901,15,21.18825743959432,22.078428546020536
0.12225029360378153,1.0630789021709337,901,15,21.18825743959432,22.078428546020536
0.1328793905957127,1.0630682726855987,901,15,21.18825743959432,22.078428546020536
0.14350830295771877,1.0630576433985057,901,15,21.18825743959432,22.078428546020536
0.15413703672109041,1.0630470143025768,901,15,21.18825743959432,22.078428546020536
0.16476559745314298,1.0630363853912776,901,15,21.18825743959432,22.078428546020536
0.1753939902929156,1.0630257566585772,901,15,21.18825743959432,22.078428546020536
0.18602221998412327,1.0630151280989082,901,15,21.18825743959432,22.078428546020536
0.19665029090557398,1.0630044997071313,901,15,21.18825743959432,22.078428546020536
0.207278207099245,1.0629938714785028,901,15,21.18825743959432,22.078428546020536
0.21790597229619915,1.0629832434086441,901,15,21.18825743959432,22.078428546020536
0.2285335899405074,1.0629726154935133,901,15,21.18825743959432,22.078428546020536
0.23916106321132988,1.0629619877293792,901,15,21.18825743959432,22.078428546020536
0.24978839504329914,1.0629513601127978,901,15,21.18825743959432,22.078428546020536
0.260415588145334,1.0629407326405897,901,15,21.18825743959432,22.078428546020536
0.2710426450180068,1.0629301053098206,901,15,21.18825743959432,22.078428546020536
0.28166956796957326,1.062919478117781,901,15,21.18825743959432,22.078428546020536
0.29229635913077023,1.0629088510619713,901,15,21.18825743959432,22.078428546020536
0.30292302046847414,1.0628982241400824,901,15,21.18825743959432,22.078428546020536
0.31354955379830834,1.0628875973499838,901,15,21.18825743959432,22.078428546020536
0.32417596079628097,1.062876970689709,901,15,21.18825743959432,22.078428546020536
0.33480224300952743,1.0628663441574417,901,15,21.18825743959432,22.078428546020536
0.34542840186622564,1.0628557177515063,901,15,21.18825743959432,22.078428546020536
0.356054438684749,1.0628450914703558,901,15,21.18825743959432,22.078428546020536
0.36668035468211474,1.0628344653125619,901,15,21.18825743959432,22.078428546020536
0.37730615098178294,1.062823839276806,901,15,21.18825743959432,22.078428546020536
0.38793182862085435,1.062813213361871,901,15,21.18825743959432,22.078428546020536
0.39855738855671535,1.062802587566634,901,15,21.18825743959432,22.078428546020536
0.40918283167317104,1.0627919618900576,901,15,21.18825743959432,22.078428546020536
0.41980815878610717,1.0627813363311842,901,15,21.18825743959432,22.078428546020536
0.43043337064871534,1.0627707108891304,901,15,21.18825743959432,22.078428546020536
0.44105846795631737,1.06276008556308,901,15,21.18825743959432,22.078428546020536
0.45168345135081767,1.06274946035228,901,15,21.18825743959432,22.078428546020536
0.46230832142481293,1.062738835256035,901,15,21.18825743959432,22.078428546020536
0.4729330787253865,1.062728210273703,901,15,21.18825743959432,22.078428546020536
0.4835577237576097,1.0627175854046915,901,15,21.18825743959432,22.078428546020536
0.4941822569877747,1.0627069606484534,901,15,21.18825743959432,22.078428546020536
0.5048066788463783,1.0626963360044837,901,15,21.18825743959432,22.078428546020536
0.5154309897308759,1.062685711472316,901,15,21.18825743959432,22.078428546020536
0.5260551900082231,1.0626750870515198,901,15,21.18825743959432,22.078428546020536
0.5366792800172239,1.0626644627416977,901,15,21.18825743959432,22.078428546020536
0.5473032600706956,1.0626538385424829,901,15,21.18825743959432,22.078428546020536
0.5579271304574682,1.0626432144535363,901,15,21.18825743959432,22.078428546020536
0.568550891444231,1.0626325904745453,901,15,21.18825743959432,22.078428546020536
0.5791745432772348,1.0626219666052208,901,15,21.18825743959432,22.078428546020536
0.5897980861838656,1.0626113428452966,901,15,21.18825743959432,22.078428546020536
0.6004215203740956,1.062600719194526,901,15,21.18825743959432,22.078428546020536
0.6110448460418232,1.0625900956526817,901,15,21.18825743959432,22.078428546020536
0.6216680633661092,1.0625794722195538,901,15,21.18825743959432,22.078428546020536
0.6322911725123194,1.0625688488949483,901,15,21.18825743959432,22.078428546020536
0.6429141736331774,1.0625582256786865,901,15,21.18825743959432,22.078428546020536
0.653537066869738,1.0625476025706027,901,15,21.18825743959432,22.078428546020536
0.6641598523522847,1.062536979570544,901,15,21.18825743959432,22.078428546020536
0.674782530201158,1.0625263566783698,901,15,21.18825743959432,22.078428546020536
0.6854051005275211,1.0625157338939495,901,15,21.18825743959432,22.078428546020536
0.6960275634340666,1.062505111217163,901,15,21.18825743959432,22.078428546020536
0.7066499190156661,1.0624944886478989,901,15,21.18825743959432,22.078428546020536
0.7172721673599743,1.0624838661860545,901,15,21.18825743959432,22.078428546020536
0.727894308547983,1.0624732438315352,901,15,21.18825743959432,22.078428546020536
0.7385163426545341,1.0624626215842532,901,15,21.18825743959432,22.078428546020536
0.7491382697487926,1.0624519994441275,901,15,21.18825743959432,22.078428546020536
0.7597600898946837,1.062441377411083,901,15,21.18825743959432,22.078428546020536
0.7703818031512953,1.062430755485051,901,15,21.18825743959432,22.078428546020536
0.7810034095732513,1.0624201336659673,901,15,21.18825743959432,22.078428546020536
0.7916249092110541,1.0624095119537729,901,15,21.18825743959432,22.078428546020536
0.8022463021114022,1.0623988903484132,901,15,21.18825743959432,22.078428546020536
0.8128675883174826,1.0623882688498376,901,15,21.18825743959432,22.078428546020536
0.823488767869241,1.0623776474579993,901,15,21.18825743959432,22.078428546020536
0.8341098408036314,1.0623670261728555,901,15,21.18825743959432,22.078428546020536
0.844730807154846,1.062356404994366,901,15,21.18825743959432,22.078428546020536
0.8553516669545284,1.0623457839224935,901,15,21.18825743959432,22.078428546020536
0.8659724202319685,1.0623351629572044,901,15,21.18825743959432,22.078428546020536
0.8765930670142849,1.0623245420984668,901,15,21.18825743959432,22.078428546020536
0.8872136073265904,1.0623139213462516,901,15,21.18825743959432,22.078428546020536
0.8978340411921485,1.0623033007005314,901,15,21.18825743959432,22.078428546020536
0.9084543686325132,1.062292680161281,901,15,21.18825743959432,22.078428546020536
0.9190745896676628,1.0622820597284777,901,15,21.18825743959432,22.078428546020536
0.9296947043161193,1.0622714394020993,901,15,21.18825743959432,22.078428546020536
0.9403147125950623,1.0622608191821261,901,15,21.18825743959432,22.078428546020536
0.9509346145204298,1.0622501990685398,901,15,21.18825743959432,22.078428546020536
0.9615544101070159,1.0622395790613228,901,15,21.18825743959432,22.078428546020536
0.9721740993685585,1.0622289591604595,901,15,21.18825743959432,22.078428546020536
0.9827936823178194,1.0622183393659348,901,15,21.18825743959432,22.078428546020536
0.9934131589666606,1.0622077196777353,901,15,21.18825743959432,22.078428546020536
1.0040325293261132,1.0621971000958481,901,15,21.18825743959432,22.078428546020536
1.0146517934064405,1.0621864806202612,901,15,21.18825743959432,22.078428546020536
1.0252709512171987,1.0621758612509637,901,15,21.18825743959432,22.078428546020536
1.0358900027672895,1.0621652419879453,901,15,21.18825743959432,22.078428546020536
1.0465089480650125,1.0621546228311964,901,15,21.18825743959432,22.078428546020536
1.0571277871181088,1.0621440037807084,901,15,21.18825743959432,22.078428546020536
1.067746519933807,1.0621333848364725,901,15,21.18825743959432,22.078428546020536
1.0783651465188602,1.0621227659984813,901,15,21.18825743959432,22.078428546020536
1.0889836668795847,1.0621121472667274,901,15,21.18825743959432,22.078428546020536
1.099602081021891,1.0621015286412043,901,15,21.18825743959432,22.078428546020536
1.110220388951317,1.0620909101219054,901,15,21.18825743959432,22.078428546020536
1.120838590673057,1.062080291708825,901,15,21.18825743959432,22.078428546020536
1.1314566861919864,1.0620696734019575,901,15,21.18825743959432,22.078428546020536
1.1420746755126872,1.0620590552012976,901,15,21.18825743959432,22.078428546020536
1.152692558639471,1.0620484371068404,901,15,21.18825743959432,22.078428546020536
1.163310335576399,1.0620378191185815,901,15,21.18825743959432,22.078428546020536
1.1739280063273012,1.0620272012365166,901,15,21.18825743959432,22.078428546020536
1.1845455708957948,1.0620165834606414,901,15,21.18825743959432,22.078428546020536
1.1951630292853015,1.0620059657909524,901,15,21.18825743959432,22.078428546020536
1.205780381499059,1.0619953482274456,901,15,21.18825743959432,22.078428546020536
1.2163976275401394,1.061984730770118,901,15,21.18825743959432,22.078428546020536
1.2270147674114602,1.061974113418966,901,15,21.18825743959432,22.078428546020536
1.237631801115794,1.0619634961739866,901,15,21.18825743959432,22.078428546020536
1.2482487286557844,1.061952879035177,901,15,21.18825743959432,22.078428546020536
1.2588655500339512,1.0619422620025343,901,15,21.18825743959432,22.078428546020536
1.269482265252703,1.061931645076056,901,15,21.18825743959432,22.078428546020536
1.2800988743143444,1.0619210282557396,901,15,21.18825743959432,22.078428546020536
1.2907153772210842,1.0619104115415825,901,15,21.18825743959432,22.078428546020536
1.3013317739750432,1.0618997949335827,901,15,21.18825743959432,22.078428546020536
1.3119480645782604,1.0618891784317375,901,15,21.18825743959432,22.078428546020536
1.3225642490326999,1.0618785620360454,901,15,21.18825743959432,22.078428546020536
1.3331803273402558,1.0618679457465037,901,15,21.18825743959432,22.078428546020536
1.3437962995027588,1.0618573295631109,901,15,21.18825743959432,22.078428546020536
1.3544121655219792,1.061846713485865,901,15,21.18825743959432,22.078428546020536
1.3650279253996338,1.061836097514764,901,15,21.18825743959432,22.078428546020536
1.3756435791373884,1.0618254816498065,901,15,21.18825743959432,22.078428546020536
1.386259126736863,1.0618148658909905,901,15,21.18825743959432,22.078428546020536
1.396874568199634,1.0618042502383143,901,15,21.18825743959432,22.078428546020536
1.4074899035272372,1.0617936346917762,901,15,21.18825743959432,22.078428546020536
1.418105132721174,1.061783019251375,901,15,21.18825743959432,22.078428546020536
1.4287202557829102,1.061772403917109,901,15,21.18825743959432,22.078428546020536
1.4393352727138813,1.0617617886889767,901,15,21.18825743959432,22.078428546020536
1.4499501835154933,1.0617511735669765,901,15,21.18825743959432,22.078428546020536
1.4605649881891263,1.061740558551107,901,15,21.18825743959432,22.078428546020536
1.4711796867361355,1.061729943641367,901,15,21.18825743959432,22.078428546020536
1.481794279157853,1.0617193288377549,901,15,21.18825743959432,22.078428546020536
1.4924087654555913,1.0617087141402692,901,15,21.18825743959432,22.078428546020536
1.5030231456306427,1.0616980995489091,901,15,21.18825743959432,22.078428546020536
1.5136374196842814,1.0616874850636728,901,15,21.18825743959432,22.078428546020536
1.5242515876177658,1.0616768706845592,901,15,21.18825743959432,22.078428546020536
1.5348656494323383,1.061666256411567,901,15,21.18825743959432,22.078428546020536
1.5454796051292288,1.061655642244695,901,15,21.18825743959432,22.078428546020536
1.5560934547096528,1.0616450281839418,901,15,21.18825743959432,22.078428546020536
1.5667071981748144,1.0616344142293064,901,15,21.18825743959432,22.078428546020536
1.5773208355259067,1.0616238003807874,901,15,21.18825743959432,22.078428546020536
1.5879343667641124,1.0616131866383836,901,15,21.18825743959432,22.078428546020536
1.5985477918906048,1.061602573002094,901,15,21.18825743959432,22.078428546020536
1.609161110906549,1.061591959471917,901,15,21.18825743959432,22.078428546020536
1.6197743238131015,1.0615813460478518,901,15,21.18825743959432,22.078428546020536
1.6303874306114117,1.0615707327298973,901,15,21.18825743959432,22.078428546020536
1.6410004313026225,1.0615601195180522,901,15,21.18825743959432,22.078428546020536
1.6516133258878698,1.061549506412315,901,15,21.18825743959432,22.078428546020536
1.6622261143682844,1.0615388934126853,901,15,21.18825743959432,22.078428546020536
1.6728387967449911,1.0615282805191613,901,15,21.18825743959432,22.078428546020536
1.6834513730191103,1.0615176677317422,901,15,21.18825743959432,22.078428546020536
1.6940638431917572,1.0615070550504266,901,15,21.18825743959432,22.078428546020536
1.7046762072640431,1.061496442475214,901,15,21.18825743959432,22.078428546020536
1.7152884652370757,1.0614858300061025,901,15,21.18825743959432,22.078428546020536
1.725900617111959,1.0614752176430915,901,15,21.18825743959432,22.078428546020536
1.736512662889793,1.0614646053861798,901,15,21.18825743959432,22.078428546020536
1.747124602571675,1.0614539932353662,901,15,21.18825743959432,22.078428546020536
1.7577364361587002,1.0614433811906494,901,15,21.18825743959432,22.078428546020536
1.76834816365196,1.061432769252029,901,15,21.18825743959432,22.078428546020536
1.7789597850525443,1.061422157419503,901,15,21.18825743959432,22.078428546020536
1.7895713003615403,1.0614115456930708,901,15,21.18825743959432,22.078428546020536
1.8001827095800331,1.0614009340727315,901,15,21.18825743959432,22.078428546020536
1.8107940127091062,1.0613903225584838,901,15,21.18825743959432,22.078428546020536
1.8214052097498417,1.0613797111503263,901,15,21.18825743959432,22.078428546020536
1.8320163007033188,1.0613690998482583,901,15,21.18825743959432,22.078428546020536
1.8426272855706167,1.0613584886522789,901,15,21.18825743959432,22.078428546020536
1.853238164352812,1.0613478775623866,901,15,21.18825743959432,22.078428546020536
1.8638489370509803,1.0613372665785803,901,15,21.18825743959432,22.078428546020536
1.8744596036661965,1.0613266557008592,901,15,21.18825743959432,22.078428546020536
1.8850701641995342,1.061316044929222,901,15,21.18825743959432,22.078428546020536
1.895680618652066,1.061305434263668,901,15,21.18825743959432,22.078428546020536
1.9062909670248636,1.0612948237041957,901,15,21.18825743959432,22.078428546020536
1.9169012093189972,1.0612842132508042,901,15,21.18825743959432,22.078428546020536
1.9275113455355368,1.0612736029034926,901,15,21.18825743959432,22.078428546020536
1.9381213756755529,1.0612629926622594,901,15,21.18825743959432,22.078428546020536
1.948731299740112,1.0612523825271039,901,15,21.18825743959432,22.078428546020536
1.9593411177302835,1.061241772498025,901,15,21.18825743959432,22.078428546020536
1.9699508296471344,1.0612311625750215,901,15,21.18825743959432,22.078428546020536
1.9805604354917314,1.0612205527580922,901,15,21.18825743959432,22.078428546020536
1.9911699352651404,1.0612099430472364,901,15,21.18825743959432,22.078428546020536
2.0017793289684276,1.0611993334424528,901,15,21.18825743959432,22.078428546020536
2.0123886166026588,1.0611887239437403,901,15,21.18825743959432,22.078428546020536
2.0229977981688982,1.0611781145510981,901,15,21.18825743959432,22.078428546020536
2.033606873668211,1.0611675052645246,901,15,21.18825743959432,22.078428546020536
2.0442158431016617,1.0611568960840194,901,15,21.18825743959432,22.078428546020536
2.0548247064703133,1.0611462870095811,901,15,21.18825743959432,22.078428546020536
2.0654334637752303,1.0611356780412085,901,15,21.18825743959432,22.078428546020536
2.0760421150174766,1.0611250691789007,901,15,21.18825743959432,22.078428546020536
2.0866506601981145,1.0611144604226568,901,15,21.18825743959432,22.078428546020536
2.0972590993182076,1.0611038517724753,901,15,21.18825743959432,22.078428546020536
2.1078674323788182,1.0610932432283557,901,15,21.18825743959432,22.078428546020536
2.118475659381009,1.0610826347902964,901,15,21.18825743959432,22.078428546020536
2.129083780325844,1.0610720264582967,901,15,21.18825743959432,22.078428546020536
2.1396917952143824,1.0610614182323552,901,15,21.18825743959432,22.078428546020536
2.150299704047688,1.0610508101124714,901,15,21.18825743959432,22.078428546020536
2.160907506826822,1.0610402020986436,901,15,21.18825743959432,22.078428546020536
2.1715152035528473,1.0610295941908712,901,15,21.18825743959432,22.078428546020536
2.1821227942268253,1.0610189863891528,901,15,21.18825743959432,22.078428546020536
2.192730278849816,1.0610083786934876,901,15,21.18825743959432,22.078428546020536
2.203337657422883,1.0609977711038743,901,15,21.18825743959432,22.078428546020536
2.213944929947087,1.060987163620312,901,15,21.18825743959432,22.078428546020536
2.224552096423488,1.0609765562427997,901,15,21.18825743959432,22.078428546020536
2.2351591568531486,1.0609659489713363,901,15,21.18825743959432,22.078428546020536
2.2457661112371285,1.0609553418059208,901,15,21.18825743959432,22.078428546020536
2.25637295957649,1.0609447347465517,901,15,21.18825743959432,22.078428546020536
2.266979701872294,1.0609341277932285,901,15,21.18825743959432,22.078428546020536
2.2775863381256003,1.0609235209459498,901,15,21.18825743959432,22.078428546020536
2.2881928683374704,1.0609129142047147,901,15,21.18825743959432,22.078428546020536
2.2987992925089653,1.060902307569522,901,15,21.18825743959432,22.078428546020536
2.3094056106411447,1.060891701040371,901,15,21.18825743959432,22.078428546020536
2.32001182273507,1.06088109461726,901,15,21.18825743959432,22.078428546020536
2.330617928791802,1.0608704883001885,901,15,21.18825743959432,22.078428546020536
2.341223928812401,1.0608598820891553,901,15,21.18825743959432,22.078428546020536
2.351829822797926,1.0608492759841592,901,15,21.18825743959432,22.078428546020536
2.36243561074944,1.0608386699851993,901,15,21.18825743959432,22.078428546020536
2.373041292668002,1.0608280640922743,901,15,21.18825743959432,22.078428546020536
2.383646868554673,1.0608174583053833,901,15,21.18825743959432,22.078428546020536
2.3942523384105123,1.0608068526245253,901,15,21.18825743959432,22.078428546020536
2.404857702236581,1.0607962470496992,901,15,21.18825743959432,22.078428546020536
2.415462960033939,1.060785641580904,901,15,21.18825743959432,22.078428546020536
2.426068111803647,1.0607750362181385,901,15,21.18825743959432,22.078428546020536
2.4366731575467657,1.0607644309614017,901,15,21.18825743959432,22.078428546020536
2.447278097264354,1.0607538258106926,901,15,21.18825743959432,22.078428546020536
2.457882930957473,1.06074322076601,901,15,21.18825743959432,22.078428546020536
2.4684876586271822,1.060732615827353,901,15,21.18825743959432,22.078428546020536
2.479092280274542,1.0607220109947202,901,15,21.18825743959432,22.078428546020536
2.4896967959006133,1.0607114062681111,901,15,21.18825743959432,22.078428546020536
2.5003012055064553,1.0607008016475241,901,15,21.18825743959432,22.078428546020536
2.510905509093128,1.0606901971329585,901,15,21.18825743959432,22.078428546020536
2.5215097066616914,1.0606795927244133,901,15,21.18825743959432,22.078428546020536
2.532113798213206,1.060668988421887,901,15,21.18825743959432,22.078428546020536
2.542717783748732,1.0606583842253787,901,15,21.18825743959432,22.078428546020536
2.5533216632693283,1.0606477801348877,901,15,21.18825743959432,22.078428546020536
