Vout,Iout,Irradiance,Temperature,MaxVoltage,MaxPower
0.007326029557408103,1.46522,1201,35,22.667723605603072,32.700026861468096
0.021977953207003974,1.46522,1201,35,22.667723605603072,32.700026861468096
0.03662957898666709,1.4652125274484427,1201,35,22.667723605603072,32.700026861468096
0.05128085368203262,1.465197875524793,1201,35,22.667723605603072,32.700026861468096
0.06593175990172291,1.4651832238997606,1201,35,22.667723605603072,32.700026861468096
0.08058231472959893,1.4651685726265304,1201,35,22.667723605603072,32.700026861468096
0.09523253393566203,1.465153921721776,1201,35,22.667723605603072,32.700026861468096
0.10988243207681994,1.465139271168413,1201,35,22.667723605603072,32.700026861468096
0.12453202259006166,1.465124620950672,1201,35,22.667723605603072,32.700026861468096
0.1391813178786258,1.465109971053996,1201,35,22.667723605603072,32.700026861468096
0.1538303293915389,1.4650953214649478,1201,35,22.667723605603072,32.700026861468096
0.1684790676970342,1.4650806721711243,1201,35,22.667723605603072,32.700026861468096
0.18312754255032085,1.4650660231610764,1201,35,22.667723605603072,32.700026861468096
0.1977757629561398,1.4650513744242357,1201,35,22.667723605603072,32.700026861468096
0.21242373722650554,1.4650367259508474,1201,35,22.667723605603072,32.700026861468096
0.22707147303400574,1.4650220777319063,1201,35,22.667723605603072,32.700026861468096
0.24171897746099988,1.465007429759101,1201,35,22.667723605603072,32.700026861468096
0.256366257045032,1.4649927820247581,1201,35,22.667723605603072,32.700026861468096
0.27101331782075017,1.464978134521796,1201,35,22.667723605603072,32.700026861468096
0.2856601653585995,1.4649634872436768,1201,35,22.667723605603072,32.700026861468096
0.30030680480053906,1.4649488401843658,1201,35,22.667723605603072,32.700026861468096
0.31495324089300997,1.4649341933382927,1201,35,22.667723605603072,32.700026861468096
0.32959947801736766,1.4649195467003153,1201,35,22.667723605603072,32.700026861468096
0.3442455202179715,1.4649049002656875,1201,35,22.667723605603072,32.700026861468096
0.35889137122811426,1.464890254030028,1201,35,22.667723605603072,32.700026861468096
0.373537034493956,1.464875607989292,1201,35,22.667723605603072,32.700026861468096
0.3881825131966161,1.4648609621397464,1201,35,22.667723605603072,32.700026861468096
0.40282781027256664,1.4648463164779453,1201,35,22.667723605603072,32.700026861468096
0.41747292843245537,1.4648316710007072,1201,35,22.667723605603072,32.700026861468096
0.43211787017848097,1.4648170257050956,1201,35,22.667723605603072,32.700026861468096
0.4467626378204321,1.4648023805884005,1201,35,22.667723605603072,32.700026861468096
0.4614072334904908,1.464787735648119,1201,35,22.667723605603072,32.700026861468096
0.4760516591568985,1.4647730908819414,1201,35,22.667723605603072,32.700026861468096
0.49069591663656964,1.4647584462877359,1201,35,22.667723605603072,32.700026861468096
0.5053400076067349,1.464743801863534,1201,35,22.667723605603072,32.700026861468096
0.5199839336156892,1.4647291576075188,1201,35,22.667723605603072,32.700026861468096
0.5346276960927111,1.464714513518013,1201,35,22.667723605603072,32.700026861468096
0.5492712963572215,1.4646998695934685,1201,35,22.667723605603072,32.700026861468096
0.5639147356272353,1.4646852258324559,1201,35,22.667723605603072,32.700026861468096
0.5785580150271641,1.4646705822336559,1201,35,22.667723605603072,32.700026861468096
0.5932011355950177,1.4646559387958502,1201,35,22.667723605603072,32.700026861468096
0.6078440982890535,1.4646412955179147,1201,35,22.667723605603072,32.700026861468096
0.6224869039939102,1.4646266523988112,1201,35,22.667723605603072,32.700026861468096
0.6371295535262748,1.4646120094375814,1201,35,22.667723605603072,32.700026861468096
0.651772047640109,1.4645973666333407,1201,35,22.667723605603072,32.700026861468096
0.6664143870314766,1.4645827239852727,1201,35,22.667723605603072,32.700026861468096
0.6810565723429972,1.4645680814926232,1201,35,22.667723605603072,32.700026861468096
0.6956986041679595,1.4645534391546962,1201,35,22.667723605603072,32.700026861468096
0.7103404830541153,1.4645387969708488,1201,35,22.667723605603072,32.700026861468096
0.7249822095071852,1.4645241549404882,1201,35,22.667723605603072,32.700026861468096
0.7396237839940908,1.464509513063066,1201,35,22.667723605603072,32.700026861468096
0.7542652069459407,1.4644948713380772,1201,35,22.667723605603072,32.700026861468096
0.7689064787607859,1.4644802297650545,1201,35,22.667723605603072,32.700026861468096
0.7835475998061633,1.4644655883435669,1201,35,22.667723605603072,32.700026861468096
0.7981885704214438,1.464450947073216,1201,35,22.667723605603072,32.700026861468096
0.8128293909199987,1.464436305953635,1201,35,22.667723605603072,32.700026861468096
0.827470061591201,1.464421664984484,1201,35,22.667723605603072,32.700026861468096
0.8421105827022711,1.4644070241654494,1201,35,22.667723605603072,32.700026861468096
0.8567509544999823,1.4643923834962422,1201,35,22.667723605603072,32.700026861468096
0.8713911772122324,1.4643777429765952,1201,35,22.667723605603072,32.700026861468096
0.8860312510494975,1.4643631026062616,1201,35,22.667723605603072,32.700026861468096
0.9006711762061721,1.4643484623850134,1201,35,22.667723605603072,32.700026861468096
0.915310952861806,1.4643338223126403,1201,35,22.667723605603072,32.700026861468096
0.9299505811822465,1.4643191823889476,1201,35,22.667723605603072,32.700026861468096
0.9445900613206935,1.464304542613756,1201,35,22.667723605603072,32.700026861468096
0.9592293934186714,1.4642899029868994,1201,35,22.667723605603072,32.700026861468096
0.9738685776069287,1.464275263508225,1201,35,22.667723605603072,32.700026861468096
0.988507614006266,1.464260624177591,1201,35,22.667723605603072,32.700026861468096
1.003146502728302,1.4642459849948666,1201,35,22.667723605603072,32.700026861468096
1.01778524387618,1.4642313459599312,1201,35,22.667723605603072,32.700026861468096
1.0324238375452195,1.4642167070726733,1201,35,22.667723605603072,32.700026861468096
1.0470622838235188,1.4642020683329893,1201,35,22.667723605603072,32.700026861468096
1.0617005827925106,1.464187429740784,1201,35,22.667723605603072,32.700026861468096
1.0763387345274742,1.4641727912959697,1201,35,22.667723605603072,32.700026861468096
1.090976739098009,1.4641581529984644,1201,35,22.667723605603072,32.700026861468096
1.1056145965684732,1.4641435148481934,1201,35,22.667723605603072,32.700026861468096
1.1202523069983845,1.4641288768450866,1201,35,22.667723605603072,32.700026861468096
1.1348898704427939,1.46411423898908,1201,35,22.667723605603072,32.700026861468096
1.14952728695263,1.464099601280114,1201,35,22.667723605603072,32.700026861468096
1.1641645565750147,1.4640849637181332,1201,35,22.667723605603072,32.700026861468096
1.178801679353557,1.4640703263030872,1201,35,22.667723605603072,32.700026861468096
1.1934386553286231,1.4640556890349286,1201,35,22.667723605603072,32.700026861468096
1.2080754845375863,1.4640410519136138,1201,35,22.667723605603072,32.700026861468096
1.2227121670150567,1.4640264149391025,1201,35,22.667723605603072,32.700026861468096
1.2373487027930932,1.4640117781113573,1201,35,22.667723605603072,32.700026861468096
1.2519850919014017,1.4639971414303434,1201,35,22.667723605603072,32.700026861468096
1.2666213343675148,1.463982504896029,1201,35,22.667723605603072,32.700026861468096
1.2812574302169584,1.4639678685083843,1201,35,22.667723605603072,32.700026861468096
1.2958933794734082,1.463953232267382,1201,35,22.667723605603072,32.700026861468096
1.31052918215883,1.4639385961729963,1201,35,22.667723605603072,32.700026861468096
1.3251648382936123,1.4639239602252034,1201,35,22.667723605603072,32.700026861468096
1.3398003478966873,1.4639093244239816,1201,35,22.667723605603072,32.700026861468096
1.3544357109856437,1.4638946887693103,1201,35,22.667723605603072,32.700026861468096
1.3690709275768278,1.4638800532611709,1201,35,22.667723605603072,32.700026861468096
1.3837059976854424,1.4638654178995454,1201,35,22.667723605603072,32.700026861468096
1.3983409213256326,1.4638507826844178,1201,35,22.667723605603072,32.700026861468096
1.4129756985105677,1.4638361476157726,1201,35,22.667723605603072,32.700026861468096
1.4276103292525157,1.463821512693596,1201,35,22.667723605603072,32.700026861468096
1.442244813562914,1.4638068779178746,1201,35,22.667723605603072,32.700026861468096
1.4568791514524322,1.4637922432885961,1201,35,22.667723605603072,32.700026861468096
1.4715133429310314,1.4637776088057493,1201,35,22.667723605603072,32.700026861468096
1.4861473880080194,1.4637629744693232,1201,35,22.667723605603072,32.700026861468096
1.5007812866920993,1.4637483402793081,1201,35,22.667723605603072,32.700026861468096
1.5154150389914185,1.4637337062356945,1201,35,22.667723605603072,32.700026861468096
1.5300486449136086,1.4637190723384739,1201,35,22.667723605603072,32.700026861468096
1.5446821044658274,1.4637044385876379,1201,35,22.667723605603072,32.700026861468096
1.559315417654794,1.463689804983179,1201,35,22.667723605603072,32.700026861468096
1.573948584486824,1.4636751715250902,1201,35,22.667723605603072,32.700026861468096
1.5885816049678585,1.4636605382133647,1201,35,22.667723605603072,32.700026861468096
1.6032144791034943,1.463645905047996,1201,35,22.667723605603072,32.700026861468096
1.6178472068990106,1.4636312720289784,1201,35,22.667723605603072,32.700026861468096
1.632479788359392,1.463616639156306,1201,35,22.667723605603072,32.700026861468096
1.6471122234893536,1.4636020064299737,1201,35,22.667723605603072,32.700026861468096
1.6617445122933585,1.4635873738499767,1201,35,22.667723605603072,32.700026861468096
1.6763766547756402,1.46357274141631,1201,35,22.667723605603072,32.700026861468096
1.6910086509402182,1.4635581091289693,1201,35,22.667723605603072,32.700026861468096
1.7056405007909154,1.4635434769879503,1201,35,22.667723605603072,32.700026861468096
1.7202722043313736,1.4635288449932489,1201,35,22.667723605603072,32.700026861468096
1.7349037615650669,1.4635142131448613,1201,35,22.667723605603072,32.700026861468096
1.749535172495313,1.463499581442784,1201,35,22.667723605603072,32.700026861468096
1.7641664371252896,1.4634849498870135,1201,35,22.667723605603072,32.700026861468096
1.77879755545804,1.4634703184775466,1201,35,22.667723605603072,32.700026861468096
1.793428527496487,1.4634556872143798,1201,35,22.667723605603072,32.700026861468096
1.8080593532434408,1.4634410560975102,1201,35,22.667723605603072,32.700026861468096
1.8226900327016076,1.4634264251269347,1201,35,22.667723605603072,32.700026861468096
1.8373205658735983,1.463411794302651,1201,35,22.667723605603072,32.700026861468096
1.851950952761935,1.4633971636246559,1201,35,22.667723605603072,32.700026861468096
1.8665811933690595,1.4633825330929469,1201,35,22.667723605603072,32.700026861468096
1.881211287697336,1.4633679027075217,1201,35,22.667723605603072,32.700026861468096
1.895841235749061,1.4633532724683775,1201,35,22.667723605603072,32.700026861468096
1.9104710375264666,1.4633386423755124,1201,35,22.667723605603072,32.700026861468096
1.9251006930317252,1.4633240124289237,1201,35,22.667723605603072,32.700026861468096
1.9397302022669547,1.4633093826286092,1201,35,22.667723605603072,32.700026861468096
1.9543595652342227,1.463294752974567,1201,35,22.667723605603072,32.700026861468096
1.96898878193555,1.4632801234667947,1201,35,22.667723605603072,32.700026861468096
1.9836178523729149,1.4632654941052905,1201,35,22.667723605603072,32.700026861468096
1.998246776548255,1.463250864890052,1201,35,22.667723605603072,32.700026861468096
2.0128755544634718,1.4632362358210775,1201,35,22.667723605603072,32.700026861468096
2.027504186120434,1.4632216068983652,1201,35,22.667723605603072,32.700026861468096
2.0421326715209775,1.4632069781219128,1201,35,22.667723605603072,32.700026861468096
2.0567610106669094,1.463192349491719,1201,35,22.667723605603072,32.700026861468096
2.0713892035600123,1.4631777210077812,1201,35,22.667723605603072,32.700026861468096
2.0860172502020413,1.463163092670098,1201,35,22.667723605603072,32.700026861468096
2.100645150594731,1.4631484644786679,1201,35,22.667723605603072,32.700026861468096
2.1152729047397947,1.4631338364334887,1201,35,22.667723605603072,32.700026861468096
2.129900512638925,1.4631192085345588,1201,35,22.667723605603072,32.700026861468096
2.1445279742937995,1.4631045807818766,1201,35,22.667723605603072,32.700026861468096
2.159155289706076,1.4630899531754402,1201,35,22.667723605603072,32.700026861468096
2.173782458877399,1.463075325715248,1201,35,22.667723605603072,32.700026861468096
2.1884094818093986,1.4630606984012986,1201,35,22.667723605603072,32.700026861468096
2.2030363585036925,1.46304607123359,1201,35,22.667723605603072,32.700026861468096
2.2176630889618854,1.4630314442121208,1201,35,22.667723605603072,32.700026861468096
2.232289673185572,1.4630168173368892,1201,35,22.667723605603072,32.700026861468096
2.2469161111763354,1.4630021906078936,1201,35,22.667723605603072,32.700026861468096
2.261542402935752,1.4629875640251326,1201,35,22.667723605603072,32.700026861468096
2.2761685484653853,1.4629729375886045,1201,35,22.667723605603072,32.700026861468096
2.2907945477667955,1.4629583112983078,1201,35,22.667723605603072,32.700026861468096
2.305420400841532,1.4629436851542408,1201,35,22.667723605603072,32.700026861468096
2.3200461076911383,1.4629290591564021,1201,35,22.667723605603072,32.700026861468096
2.3346716683171524,1.4629144333047899,1201,35,22.667723605603072,32.700026861468096
2.349297082721106,1.4628998075994029,1201,35,22.667723605603072,32.700026861468096
2.3639223509045237,1.4628851820402395,1201,35,22.667723605603072,32.700026861468096
2.3785474728689295,1.4628705566272981,1201,35,22.667723605603072,32.700026861468096
2.3931724486158377,1.4628559313605773,1201,35,22.667723605603072,32.700026861468096
2.4077972781467607,1.4628413062400754,1201,35,22.667723605603072,32.700026861468096
2.422421961463209,1.462826681265791,1201,35,22.667723605603072,32.700026861468096
2.4370464985666853,1.4628120564377225,1201,35,22.667723605603072,32.700026861468096
2.4516708894586925,1.4627974317558687,1201,35,22.667723605603072,32.700026861468096
2.466295134140729,1.4627828072202276,1201,35,22.667723605603072,32.700026861468096
2.4809192326142893,1.4627681828307981,1201,35,22.667723605603072,32.700026861468096
2.495543184880868,1.4627535585875786,1201,35,22.667723605603072,32.700026861468096
2.5101669909419546,1.4627389344905675,1201,35,22.667723605603072,32.700026861468096
2.524790650799038,1.4627243105397632,1201,35,22.667723605603072,32.700026861468096
2.5394141644536044,1.4627096867351645,1201,35,22.667723605603072,32.700026861468096
2.554037531907138,1.4626950630767699,1201,35,22.667723605603072,32.700026861468096
2.568660753161122,1.4626804395645776,1201,35,22.667723605603072,32.700026861468096
2.5832838282170365,1.4626658161985866,1201,35,22.667723605603072,32.700026861468096
2.597906757076361,1.4626511929787949,1201,35,22.667723605603072,32.700026861468096
2.6125295397405752,1.4626365699052013,1201,35,22.667723605603072,32.700026861468096
2.627152176211154,1.4626219469778043,1201,35,22.667723605603072,32.700026861468096
2.641774666489574,1.4626073241966024,1201,35,22.667723605603072,32.700026861468096
2.65639701057731,1.462592701561594,1201,35,22.667723605603072,32.700026861468096
2.6710192084758346,1.462578079072778,1201,35,22.667723605603072,32.700026861468096
2.685641260186621,1.4625634567301524,1201,35,22.667723605603072,32.700026861468096
2.700263165711141,1.4625488345337163,1201,35,22.667723605603072,32.700026861468096
2.7148849250508658,1.4625342124834677,1201,35,22.667723605603072,32.700026861468096
2.729506538207264,1.4625195905794053,1201,35,22.667723605603072,32.700026861468096
2.744128005181806,1.462504968821528,1201,35,22.667723605603072,32.700026861468096
2.7587493259759626,1.4624903472098336,1201,35,22.667723605603072,32.700026861468096
2.773370500591199,1.4624757257443213,1201,35,22.667723605603072,32.700026861468096
2.7879915290289854,1.4624611044249893,1201,35,22.667723605603072,32.700026861468096
2.8026124112907875,1.4624464832518362,1201,35,22.667723605603072,32.700026861468096
2.8172331473780727,1.4624318622248604,1201,35,22.667723605603072,32.700026861468096
2.8318537372923083,1.4624172413440608,1201,35,22.667723605603072,32.700026861468096
2.8464741810349583,1.4624026206094356,1201,35,22.667723605603072,32.700026861468096
2.8610944786074897,1.4623880000209835,1201,35,22.667723605603072,32.700026861468096
2.875714630011368,1.462373379578703,1201,35,22.667723605603072,32.700026861468096
2.8903346352480566,1.4623587592825924,1201,35,22.667723605603072,32.700026861468096
2.904954494319021,1.4623441391326506,1201,35,22.667723605603072,32.700026861468096
2.9195742072257262,1.4623295191288759,1201,35,22.667723605603072,32.700026861468096
2.9341937739696355,1.4623148992712671,1201,35,22.667723605603072,32.700026861468096
2.948813194552213,1.4623002795598223,1201,35,22.667723605603072,32.700026861468096
2.9634324689749225,1.4622856599945404,1201,35,22.667723605603072,32.700026861468096
2.9780515972392276,1.4622710405754198,1201,35,22.667723605603072,32.700026861468096
2.9926705793465906,1.4622564213024591,1201,35,22.667723605603072,32.700026861468096
3.007289415298476,1.4622418021756567,1201,35,22.667723605603072,32.700026861468096
3.021908105096346,1.4622271831950113,1201,35,22.667723605603072,32.700026861468096
3.036526648741664,1.4622125643605213,1201,35,22.667723605603072,32.700026861468096
3.0511450462358916,1.4621979456721852,1201,35,22.667723605603072,32.700026861468096
3.0657632975804923,1.4621833271300018,1201,35,22.667723605603072,32.700026861468096
3.080381402776928,1.4621687087339694,1201,35,22.667723605603072,32.700026861468096
3.0949993618266616,1.4621540904840868,1201,35,22.667723605603072,32.700026861468096
3.1096171747311545,1.4621394723803522,1201,35,22.667723605603072,32.700026861468096
3.1242348414918695,1.4621248544227643,1201,35,22.667723605603072,32.700026861468096
3.138852362110269,1.4621102366113217,1201,35,22.667723605603072,32.700026861468096
3.153469736587814,1.4620956189460226,1201,35,22.667723605603072,32.700026861468096
3.1680869649259664,1.4620810014268661,1201,35,22.667723605603072,32.700026861468096
3.182704047126189,1.4620663840538504,1201,35,22.667723605603072,32.700026861468096
3.197320983189942,1.462051766826974,1201,35,22.667723605603072,32.700026861468096
3.2119377731186884,1.4620371497462354,1201,35,22.667723605603072,32.700026861468096
3.226554416913889,1.4620225328116334,1201,35,22.667723605603072,32.700026861468096
3.2411709145770056,1.4620079160231663,1201,35,22.667723605603072,32.700026861468096
3.255787266109499,1.461993299380833,1201,35,22.667723605603072,32.700026861468096
3.270403471512832,1.4619786828846313,1201,35,22.667723605603072,32.700026861468096
3.285019530788465,1.4619640665345606,1201,35,22.667723605603072,32.700026861468096
3.2996354439378592,1.4619494503306187,1201,35,22.667723605603072,32.700026861468096
3.314251210962477,1.461934834272805,1201,35,22.667723605603072,32.700026861468096
3.3288668318637784,1.461920218361117,1201,35,22.667723605603072,32.700026861468096
3.3434823066432244,1.4619056025955541,1201,35,22.667723605603072,32.700026861468096
3.3580976353022773,1.4618909869761143,1201,35,22.667723605603072,32.700026861468096
3.3727128178423973,1.4618763715027965,1201,35,22.667723605603072,32.700026861468096
3.3873278542650453,1.4618617561755989,1201,35,22.667723605603072,32.700026861468096
3.401942744571684,1.4618471409945204,1201,35,22.667723605603072,32.700026861468096
3.416557488763772,1.4618325259595593,1201,35,22.667723605603072,32.700026861468096
3.431172086842773,1.4618179110707141,1201,35,22.667723605603072,32.700026861468096
3.4457865388101454,1.4618032963279837,1201,35,22.667723605603072,32.700026861468096
