Vout,Iout,Irradiance,Temperature,MaxVoltage,MaxPower
0.005586146287054933,1.11724,901,45,22.867514630569747,24.99321776616235
0.016758335568032873,1.11724,901,45,22.867514630569747,24.99321776616235
0.02793029772120497,1.1172343021297129,901,45,22.867514630569747,24.99321776616235
0.039101992170263944,1.117223129940432,901,45,22.867514630569747,24.99321776616235
0.0502734056541686,1.1172119579788486,901,45,22.867514630569747,24.99321776616235
0.06144455119947661,1.1172007862855167,901,45,22.867514630569747,24.99321776616235
0.07261544083091895,1.11718961487315,901,45,22.867514630569747,24.99321776616235
0.0837860856482346,1.117178443728722,901,45,22.867514630569747,24.99321776616235
0.09495649589721715,1.1171672728402076,901,45,22.867514630569747,24.99321776616235
0.10612668103541852,1.1171561021965073,901,45,22.867514630569747,24.99321776616235
0.11729664979279765,1.1171449317873756,901,45,22.867514630569747,24.99321776616235
0.12846641022770267,1.1171337616033543,901,45,22.867514630569747,24.99321776616235
0.13963596977854556,1.117122591635714,901,45,22.867514630569747,24.99321776616235
0.15080533531150106,1.1171114218763962,901,45,22.867514630569747,24.99321776616235
0.1619745131645357,1.1171002523179623,901,45,22.867514630569747,24.99321776616235
0.1731435091880486,1.1170890829535463,901,45,22.867514630569747,24.99321776616235
0.18431232878238593,1.1170779137768103,901,45,22.867514630569747,24.99321776616235
0.19548097693246858,1.1170667447819036,901,45,22.867514630569747,24.99321776616235
0.20664945823975575,1.1170555759634262,901,45,22.867514630569747,24.99321776616235
0.217817776951749,1.117044407316393,901,45,22.867514630569747,24.99321776616235
0.22898593698922637,1.1170332388362028,901,45,22.867514630569747,24.99321776616235
0.2401539419713807,1.1170220705186076,901,45,22.867514630569747,24.99321776616235
0.25132179523902476,1.1170109023596868,901,45,22.867514630569747,24.99321776616235
0.26248949987600934,1.1169997343558216,901,45,22.867514630569747,24.99321776616235
0.2736570587289952,1.1169885665036707,901,45,22.867514630569747,24.99321776616235
0.28482447442570213,1.1169773988001506,901,45,22.867514630569747,24.99321776616235
0.295991749391755,1.1169662312424145,901,45,22.867514630569747,24.99321776616235
0.30715888586623324,1.1169550638278345,901,45,22.867514630569747,24.99321776616235
0.3183258859160238,1.116943896553985,901,45,22.867514630569747,24.99321776616235
0.32949275144906987,1.1169327294186273,901,45,22.867514630569747,24.99321776616235
0.3406594842266005,1.1169215624196944,901,45,22.867514630569747,24.99321776616235
0.3518260858744188,1.116910395555278,901,45,22.867514630569747,24.99321776616235
0.362992557893322,1.1168992288236173,901,45,22.867514630569747,24.99321776616235
0.3741589016687195,1.1168880622230861,901,45,22.867514630569747,24.99321776616235
0.38532511847951073,1.1168768957521837,901,45,22.867514630569747,24.99321776616235
0.3964912095062807,1.116865729409525,901,45,22.867514630569747,24.99321776616235
0.4076571758388643,1.116854563193831,901,45,22.867514630569747,24.99321776616235
0.41882301848332826,1.1168433971039209,901,45,22.867514630569747,24.99321776616235
0.4299887383684174,1.116832231138705,901,45,22.867514630569747,24.99321776616235
0.4411543363515027,1.116821065297177,901,45,22.867514630569747,24.99321776616235
0.4523198132240741,1.1168098995784084,901,45,22.867514630569747,24.99321776616235
0.46348516971680853,1.116798733981542,901,45,22.867514630569747,24.99321776616235
0.4746504065042495,1.116787568505786,901,45,22.867514630569747,24.99321776616235
0.4858155242091258,1.1167764031504097,901,45,22.867514630569747,24.99321776616235
0.49698052340633864,1.1167652379147388,901,45,22.867514630569747,24.99321776616235
0.508145404626641,1.1167540727981506,901,45,22.867514630569747,24.99321776616235
0.5193101683600349,1.11674290780007,901,45,22.867514630569747,24.99321776616235
0.5304748150589065,1.1167317429199661,901,45,22.867514630569747,24.99321776616235
0.5416393451409207,1.1167205781573493,901,45,22.867514630569747,24.99321776616235
0.5528037589916925,1.1167094135117668,901,45,22.867514630569747,24.99321776616235
0.5639680569672526,1.1166982489828012,901,45,22.867514630569747,24.99321776616235
0.5751322393963245,1.116687084570067,901,45,22.867514630569747,24.99321776616235
0.5862963065824247,1.116675920273208,901,45,22.867514630569747,24.99321776616235
0.5974602588058024,1.1166647560918952,901,45,22.867514630569747,24.99321776616235
0.6086240963252301,1.1166535920258256,901,45,22.867514630569747,24.99321776616235
0.6197878193796557,1.1166424280747187,901,45,22.867514630569747,24.99321776616235
0.6309514281897279,1.1166312642383156,901,45,22.867514630569747,24.99321776616235
0.6421149229592044,1.1166201005163776,901,45,22.867514630569747,24.99321776616235
0.6532783038762507,1.1166089369086838,901,45,22.867514630569747,24.99321776616235
0.6644415711146412,1.1165977734150307,901,45,22.867514630569747,24.99321776616235
0.6756047248348649,1.11658661003523,901,45,22.867514630569747,24.99321776616235
0.686767765185149,1.116575446769108,901,45,22.867514630569747,24.99321776616235
0.6979306923024011,1.1165642836165042,901,45,22.867514630569747,24.99321776616235
0.7090935063130814,1.11655312057727,901,45,22.867514630569747,24.99321776616235
0.7202562073340055,1.1165419576512692,901,45,22.867514630569747,24.99321776616235
0.7314187954730871,1.116530794838375,901,45,22.867514630569747,24.99321776616235
0.7425812708300223,1.1165196321384703,901,45,22.867514630569747,24.99321776616235
0.7537436334969225,1.1165084695514473,901,45,22.867514630569747,24.99321776616235
0.7649058835588978,1.1164973070772068,901,45,22.867514630569747,24.99321776616235
0.7760680210945956,1.1164861447156562,901,45,22.867514630569747,24.99321776616235
0.7872300461766978,1.1164749824667104,901,45,22.867514630569747,24.99321776616235
0.7983919588723798,1.116463820330291,901,45,22.867514630569747,24.99321776616235
0.8095537592437344,1.116452658306325,901,45,22.867514630569747,24.99321776616235
0.8207154473481628,1.1164414963947455,901,45,22.867514630569747,24.99321776616235
0.8318770232387352,1.1164303345954905,901,45,22.867514630569747,24.99321776616235
0.8430384869645248,1.1164191729085022,901,45,22.867514630569747,24.99321776616235
0.8541998385709142,1.1164080113337278,901,45,22.867514630569747,24.99321776616235
0.8653610780998805,1.116396849871118,901,45,22.867514630569747,24.99321776616235
0.8765222055902567,1.116385688520628,901,45,22.867514630569747,24.99321776616235
0.8876832210779739,1.1163745272822152,901,45,22.867514630569747,24.99321776616235
0.8988441245962842,1.116363366155841,901,45,22.867514630569747,24.99321776616235
0.9100049161759671,1.1163522051414694,901,45,22.867514630569747,24.99321776616235
0.9211655958455198,1.116341044239067,901,45,22.867514630569747,24.99321776616235
0.9323261636313327,1.1163298834486035,901,45,22.867514630569747,24.99321776616235
0.9434866195578512,1.1163187227700502,901,45,22.867514630569747,24.99321776616235
0.9546469636477262,1.1163075622033802,901,45,22.867514630569747,24.99321776616235
0.9658071959219512,1.11629640174857,901,45,22.867514630569747,24.99321776616235
0.9769673163999906,1.1162852414055962,901,45,22.867514630569747,24.99321776616235
0.9881273250998962,1.1162740811744378,901,45,22.867514630569747,24.99321776616235
0.9992872220384178,1.1162629210550759,901,45,22.867514630569747,24.99321776616235
1.0104470072311016,1.116251761047492,901,45,22.867514630569747,24.99321776616235
1.0216066806923836,1.1162406011516695,901,45,22.867514630569747,24.99321776616235
1.0327662424356745,1.1162294413675928,901,45,22.867514630569747,24.99321776616235
1.04392569247344,1.1162182816952475,901,45,22.867514630569747,24.99321776616235
1.0550850308172715,1.1162071221346201,901,45,22.867514630569747,24.99321776616235
1.0662442574779543,1.1161959626856983,901,45,22.867514630569747,24.99321776616235
1.077403372465531,1.1161848033484705,901,45,22.867514630569747,24.99321776616235
1.0885623757893552,1.1161736441229257,901,45,22.867514630569747,24.99321776616235
1.0997212674581487,1.1161624850090541,901,45,22.867514630569747,24.99321776616235
1.1108800474800469,1.1161513260068463,901,45,22.867514630569747,24.99321776616235
1.1220387158626448,1.1161401671162934,901,45,22.867514630569747,24.99321776616235
1.13319727261304,1.1161290083373874,901,45,22.867514630569747,24.99321776616235
1.1443557177378687,1.1161178496701207,901,45,22.867514630569747,24.99321776616235
1.155514051243343,1.1161066911144861,901,45,22.867514630569747,24.99321776616235
1.1666722731352828,1.1160955326704771,901,45,22.867514630569747,24.99321776616235
1.1778303834191453,1.1160843743380875,901,45,22.867514630569747,24.99321776616235
1.1889883821000538,1.1160732161173115,901,45,22.867514630569747,24.99321776616235
1.200146269182824,1.1160620580081435,901,45,22.867514630569747,24.99321776616235
1.211304044671987,1.1160509000105783,901,45,22.867514630569747,24.99321776616235
1.222461708571809,1.1160397421246113,901,45,22.867514630569747,24.99321776616235
1.2336192608863168,1.116028584350238,901,45,22.867514630569747,24.99321776616235
1.2447767016193103,1.116017426687454,901,45,22.867514630569747,24.99321776616235
1.2559340307743845,1.1160062691362553,901,45,22.867514630569747,24.99321776616235
1.2670912483549437,1.115995111696638,901,45,22.867514630569747,24.99321776616235
1.2782483543642147,1.1159839543685988,901,45,22.867514630569747,24.99321776616235
1.2894053488052633,1.1159727971521338,901,45,22.867514630569747,24.99321776616235
1.3005622316810044,1.1159616400472403,901,45,22.867514630569747,24.99321776616235
1.3117190029942145,1.115950483053915,901,45,22.867514630569747,24.99321776616235
1.3228756627475426,1.115939326172155,901,45,22.867514630569747,24.99321776616235
1.3340322109435192,1.1159281694019574,901,45,22.867514630569747,24.99321776616235
1.3451886475845662,1.1159170127433198,901,45,22.867514630569747,24.99321776616235
1.3563449726730048,1.1159058561962396,901,45,22.867514630569747,24.99321776616235
1.3675011862110635,1.1158946997607142,901,45,22.867514630569747,24.99321776616235
1.3786572882008852,1.1158835434367413,901,45,22.867514630569747,24.99321776616235
1.3898132786445334,1.115872387224319,901,45,22.867514630569747,24.99321776616235
1.400969157543999,1.1158612311234448,901,45,22.867514630569747,24.99321776616235
1.4121249249012053,1.1158500751341167,901,45,22.867514630569747,24.99321776616235
1.4232805807180129,1.115838919256333,901,45,22.867514630569747,24.99321776616235
1.434436124996226,1.1158277634900913,901,45,22.867514630569747,24.99321776616235
1.4455915577375957,1.1158166078353902,901,45,22.867514630569747,24.99321776616235
1.456746878943823,1.1158054522922274,901,45,22.867514630569747,24.99321776616235
1.4679020886165652,1.1157942968606016,901,45,22.867514630569747,24.99321776616235
1.4790571867574365,1.115783141540511,901,45,22.867514630569747,24.99321776616235
1.490212173368014,1.1157719863319537,901,45,22.867514630569747,24.99321776616235
1.5013670484498387,1.1157608312349285,901,45,22.867514630569747,24.99321776616235
1.5125218120044184,1.1157496762494334,901,45,22.867514630569747,24.99321776616235
1.523676464033231,1.1157385213754671,901,45,22.867514630569747,24.99321776616235
1.5348310045377265,1.115727366613028,901,45,22.867514630569747,24.99321776616235
1.5459854335193295,1.1157162119621147,901,45,22.867514630569747,24.99321776616235
1.5571397509794398,1.1157050574227256,901,45,22.867514630569747,24.99321776616235
1.5682939569194363,1.1156939029948594,901,45,22.867514630569747,24.99321776616235
1.5794480513406763,1.1156827486785148,901,45,22.867514630569747,24.99321776616235
1.5906020342445004,1.1156715944736904,901,45,22.867514630569747,24.99321776616235
1.60175590563223,1.1156604403803845,901,45,22.867514630569747,24.99321776616235
1.6129096655051711,1.115649286398596,901,45,22.867514630569747,24.99321776616235
1.6240633138646152,1.1156381325283238,901,45,22.867514630569747,24.99321776616235
1.6352168507118408,1.1156269787695663,901,45,22.867514630569747,24.99321776616235
1.6463702760481123,1.115615825122322,901,45,22.867514630569747,24.99321776616235
1.6575235898746836,1.1156046715865904,901,45,22.867514630569747,24.99321776616235
1.6686767921927979,1.1155935181623693,901,45,22.867514630569747,24.99321776616235
1.6798298830036882,1.1155823648496581,901,45,22.867514630569747,24.99321776616235
1.690982862308579,1.1155712116484553,901,45,22.867514630569747,24.99321776616235
1.7021357301086848,1.11556005855876,901,45,22.867514630569747,24.99321776616235
1.7132884864052145,1.1155489055805703,901,45,22.867514630569747,24.99321776616235
1.7244411311993681,1.1155377527138854,901,45,22.867514630569747,24.99321776616235
1.7355936644923402,1.1155265999587043,901,45,22.867514630569747,24.99321776616235
1.7467460862853184,1.1155154473150253,901,45,22.867514630569747,24.99321776616235
1.757898396579485,1.1155042947828477,901,45,22.867514630569747,24.99321776616235
1.769050595376017,1.11549314236217,901,45,22.867514630569747,24.99321776616235
1.7802026826760866,1.115481990052991,901,45,22.867514630569747,24.99321776616235
1.7913546584808615,1.1154708378553098,901,45,22.867514630569747,24.99321776616235
1.802506522791506,1.115459685769125,901,45,22.867514630569747,24.99321776616235
1.8136582756091795,1.1154485337944353,901,45,22.867514630569747,24.99321776616235
1.8248099169350387,1.11543738193124,901,45,22.867514630569747,24.99321776616235
1.8359614467702368,1.1154262301795375,901,45,22.867514630569747,24.99321776616235
1.847112865115924,1.1154150785393269,901,45,22.867514630569747,24.99321776616235
1.8582641719732484,1.1154039270106069,901,45,22.867514630569747,24.99321776616235
1.869415367343354,1.1153927755933761,901,45,22.867514630569747,24.99321776616235
1.8805664512273839,1.115381624287634,901,45,22.867514630569747,24.99321776616235
1.891717423626478,1.1153704730933791,901,45,22.867514630569747,24.99321776616235
1.9028682845417757,1.1153593220106102,901,45,22.867514630569747,24.99321776616235
1.9140190339744128,1.1153481710393263,901,45,22.867514630569747,24.99321776616235
1.9251696719255247,1.115337020179526,901,45,22.867514630569747,24.99321776616235
1.936320198396244,1.1153258694312085,901,45,22.867514630569747,24.99321776616235
1.9474706133877029,1.1153147187943724,901,45,22.867514630569747,24.99321776616235
1.9586209169010327,1.1153035682690169,901,45,22.867514630569747,24.99321776616235
1.9697711089373617,1.1152924178551404,901,45,22.867514630569747,24.99321776616235
1.9809211894978185,1.1152812675527422,901,45,22.867514630569747,24.99321776616235
1.9920711585835302,1.115270117361821,901,45,22.867514630569747,24.99321776616235
2.003221016195622,1.1152589672823754,901,45,22.867514630569747,24.99321776616235
2.01437076233522,1.1152478173144047,901,45,22.867514630569747,24.99321776616235
2.025520397003449,1.1152366674579077,901,45,22.867514630569747,24.99321776616235
2.036669920201431,1.1152255177128831,901,45,22.867514630569747,24.99321776616235
2.0478193319302904,1.1152143680793298,901,45,22.867514630569747,24.99321776616235
2.0589686321911485,1.115203218557247,901,45,22.867514630569747,24.99321776616235
2.070117820985127,1.1151920691466328,901,45,22.867514630569747,24.99321776616235
2.0812668983133475,1.115180919847487,901,45,22.867514630569747,24.99321776616235
2.09241586417693,1.115169770659808,901,45,22.867514630569747,24.99321776616235
2.103564718576995,1.1151586215835947,901,45,22.867514630569747,24.99321776616235
2.1147134615146617,1.115147472618846,901,45,22.867514630569747,24.99321776616235
2.1258620929910483,1.115136323765561,901,45,22.867514630569747,24.99321776616235
2.1370106130072752,1.115125175023738,901,45,22.867514630569747,24.99321776616235
2.1481590215644606,1.1151140263933765,901,45,22.867514630569747,24.99321776616235
2.1593073186637217,1.1151028778744752,901,45,22.867514630569747,24.99321776616235
2.1704555043061773,1.1150917294670328,901,45,22.867514630569747,24.99321776616235
2.1816035784929446,1.1150805811710485,901,45,22.867514630569747,24.99321776616235
2.1927515412251406,1.115069432986521,901,45,22.867514630569747,24.99321776616235
2.2038993925038817,1.115058284913449,901,45,22.867514630569747,24.99321776616235
2.215047132330287,1.1150471369518316,901,45,22.867514630569747,24.99321776616235
2.2261947607054706,1.1150359891016677,901,45,22.867514630569747,24.99321776616235
2.2373422776305496,1.115024841362956,901,45,22.867514630569747,24.99321776616235
2.248489683106641,1.1150136937356956,901,45,22.867514630569747,24.99321776616235
2.25963697713486,1.1150025462198854,901,45,22.867514630569747,24.99321776616235
2.270784159716324,1.114991398815524,901,45,22.867514630569747,24.99321776616235
2.281931230852147,1.1149802515226106,901,45,22.867514630569747,24.99321776616235
2.2930781905434454,1.1149691043411438,901,45,22.867514630569747,24.99321776616235
2.304225038791335,1.1149579572711228,901,45,22.867514630569747,24.99321776616235
2.31537177559693,1.1149468103125462,901,45,22.867514630569747,24.99321776616235
2.3265184009613478,1.1149356634654128,901,45,22.867514630569747,24.99321776616235
2.3376649148857016,1.1149245167297221,901,45,22.867514630569747,24.99321776616235
2.348811317371107,1.1149133701054723,901,45,22.867514630569747,24.99321776616235
2.35995760841868,1.1149022235926627,901,45,22.867514630569747,24.99321776616235
2.3711037880295347,1.1148910771912919,901,45,22.867514630569747,24.99321776616235
2.382249856204786,1.114879930901359,901,45,22.867514630569747,24.99321776616235
2.3933958129455486,1.1148687847228627,901,45,22.867514630569747,24.99321776616235
2.4045416582529375,1.1148576386558022,901,45,22.867514630569747,24.99321776616235
2.4156873921280675,1.114846492700176,901,45,22.867514630569747,24.99321776616235
2.4268330145720527,1.1148353468559833,901,45,22.867514630569747,24.99321776616235
2.4379785255860087,1.1148242011232228,901,45,22.867514630569747,24.99321776616235
2.449123925171049,1.1148130555018934,901,45,22.867514630569747,24.99321776616235
2.460269213328288,1.114801909991994,901,45,22.867514630569747,24.99321776616235
2.4714143900588406,1.1147907645935233,901,45,22.867514630569747,24.99321776616235
2.4825594553638215,1.1147796193064807,901,45,22.867514630569747,24.99321776616235
2.4937044092443434,1.1147684741308648,901,45,22.867514630569747,24.99321776616235
2.504849251701523,1.1147573290666744,901,45,22.867514630569747,24.99321776616235
2.515993982736473,1.1147461841139084,901,45,22.867514630569747,24.99321776616235
2.5271386023503077,1.1147350392725657,901,45,22.867514630569747,24.99321776616235
2.5382831105441417,1.1147238945426452,901,45,22.867514630569747,24.99321776616235
2.54942750731909,1.1147127499241458,901,45,22.867514630569747,24.99321776616235
2.560571792676264,1.1147016054170664,901,45,22.867514630569747,24.99321776616235
2.571715966616781,1.114690461021406,901,45,22.867514630569747,24.99321776616235
2.582860029141753,1.1146793167371631,901,45,22.867514630569747,24.99321776616235
2.5940039802522956,1.114668172564337,901,45,22.867514630569747,24.99321776616235
2.6051478199495213,1.1146570285029267,901,45,22.867514630569747,24.99321776616235
2.6162915482345452,1.1146458845529306,901,45,22.867514630569747,24.99321776616235
2.62743516510848,1.1146347407143475,901,45,22.867514630569747,24.99321776616235
2.6385786705724414,1.114623596987177,901,45,22.867514630569747,24.99321776616235
2.6497220646275412,1.1146124533714175,901,45,22.867514630569747,24.99321776616235
2.6608653472748958,1.114601309867068,901,45,22.867514630569747,24.99321776616235
2.6720085185156175,1.1145901664741271,901,45,22.867514630569747,24.99321776616235
2.6831515783508215,1.114579023192594,901,45,22.867514630569747,24.99321776616235
