Vout,Iout,Irradiance,Temperature,MaxVoltage,MaxPower
0.0022856780223267084,0.45714,401,-5,19.710827320443777,8.622262429234132
0.0068569918026301835,0.45714,401,-5,19.710827320443777,8.622262429234132
0.011428212649271099,0.45713766860797767,401,-5,19.710827320443777,8.622262429234132
0.01599932395968141,0.4571330972941974,401,-5,19.710827320443777,8.622262429234132
0.02057032030785385,0.45712852607358384,401,-5,19.710827320443777,8.622262429234132
0.025141207023852297,0.45712395496273056,401,-5,19.710827320443777,8.622262429234132
0.029711989027824185,0.45711938396683954,401,-5,19.710827320443777,8.622262429234132
0.03428267086143888,0.45711481308058066,401,-5,19.710827320443777,8.622262429234132
0.038853256716957725,0.4571102422990338,401,-5,19.710827320443777,8.622262429234132
0.04342375046411802,0.45710567161765725,401,-5,19.710827320443777,8.622262429234132
0.047994155674948545,0.4571011010322588,401,-5,19.710827320443777,8.622262429234132
0.052564475646675726,0.4570965305389687,401,-5,19.710827320443777,8.622262429234132
0.05713471342286735,0.45709196013421494,401,-5,19.710827320443777,8.622262429234132
0.061704871812949424,0.45708738981470026,401,-5,19.710827320443777,8.622262429234132
0.06627495341022151,0.4570828195773811,401,-5,19.710827320443777,8.622262429234132
0.0708449606084857,0.4570782494194481,401,-5,19.710827320443777,8.622262429234132
0.07541489561739637,0.45707367933830784,401,-5,19.710827320443777,8.622262429234132
0.07998476047662874,0.4570691093315666,401,-5,19.710827320443777,8.622262429234132
0.0845545570689574,0.45706453939701464,401,-5,19.710827320443777,8.622262429234132
0.08912428713232838,0.4570599695326124,401,-5,19.710827320443777,8.622262429234132
0.09369395227100255,0.4570553997364771,401,-5,19.710827320443777,8.622262429234132
0.09826355396584169,0.4570508300068707,401,-5,19.710827320443777,8.622262429234132
0.10283309358380271,0.45704626034218904,401,-5,19.710827320443777,8.622262429234132
0.10740257238670196,0.45704169074095113,401,-5,19.710827320443777,8.622262429234132
0.11197199153930477,0.45703712120179013,401,-5,19.710827320443777,8.622262429234132
0.11654135211679272,0.4570325517234442,401,-5,19.710827320443777,8.622262429234132
0.1211106551116563,0.45702798230474856,401,-5,19.710827320443777,8.622262429234132
0.12567990144005753,0.457023412944628,401,-5,19.710827320443777,8.622262429234132
0.13024909194770246,0.4570188436420901,401,-5,19.710827320443777,8.622262429234132
0.1348182274152624,0.4570142743962186,401,-5,19.710827320443777,8.622262429234132
0.1393873085633777,0.4570097052061679,401,-5,19.710827320443777,8.622262429234132
0.1439563360572767,0.4570051360711573,401,-5,19.710827320443777,8.622262429234132
0.148525310511039,0.4570005669904661,401,-5,19.710827320443777,8.622262429234132
0.15309423249153126,0.4569959979634291,401,-5,19.710827320443777,8.622262429234132
0.15766310252203958,0.45699142898943224,401,-5,19.710827320443777,8.622262429234132
0.1622319210856227,0.4569868600679087,401,-5,19.710827320443777,8.622262429234132
0.16680068862820732,0.45698229119833506,401,-5,19.710827320443777,8.622262429234132
0.17136940556144484,0.4569777223802284,401,-5,19.710827320443777,8.622262429234132
0.17593807226534874,0.45697315361314267,401,-5,19.710827320443777,8.622262429234132
0.18050668909072884,0.4569685848966663,401,-5,19.710827320443777,8.622262429234132
0.18507525636143818,0.45696401623041927,401,-5,19.710827320443777,8.622262429234132
0.18964377437644714,0.4569594476140508,401,-5,19.710827320443777,8.622262429234132
0.19421224341175805,0.4569548790472369,401,-5,19.710827320443777,8.622262429234132
0.19878066372217226,0.45695031052967877,401,-5,19.710827320443777,8.622262429234132
0.2033490355429215,0.45694574206110034,401,-5,19.710827320443777,8.622262429234132
0.20791735909117343,0.45694117364124676,401,-5,19.710827320443777,8.622262429234132
0.21248563456742176,0.4569366052698829,401,-5,19.710827320443777,8.622262429234132
0.21705386215676886,0.45693203694679146,401,-5,19.710827320443777,8.622262429234132
0.22162204203011032,0.45692746867177203,401,-5,19.710827320443777,8.622262429234132
0.22619017434522776,0.4569229004446395,401,-5,19.710827320443777,8.622262429234132
0.23075825924779797,0.456918332265223,401,-5,19.710827320443777,8.622262429234132
0.2353262968723244,0.4569137641333647,401,-5,19.710827320443777,8.622262429234132
0.23989428734299661,0.45690919604891894,401,-5,19.710827320443777,8.622262429234132
0.24446223077448395,0.45690462801175125,401,-5,19.710827320443777,8.622262429234132
0.249030127272668,0.4569000600217374,401,-5,19.710827320443777,8.622262429234132
0.25359797693531894,0.45689549207876273,401,-5,19.710827320443777,8.622262429234132
0.2581657798527193,0.4568909241827213,401,-5,19.710827320443777,8.622262429234132
0.2627335361082404,0.4568863563335155,401,-5,19.710827320443777,8.622262429234132
0.267301245778874,0.4568817885310549,401,-5,19.710827320443777,8.622262429234132
0.2718689089357228,0.4568772207752561,401,-5,19.710827320443777,8.622262429234132
0.2764365256444542,0.45687265306604224,401,-5,19.710827320443777,8.622262429234132
0.28100409596571807,0.4568680854033422,401,-5,19.710827320443777,8.622262429234132
0.2855716199555329,0.4568635177870902,401,-5,19.710827320443777,8.622262429234132
0.29013909766564205,0.4568589502172257,401,-5,19.710827320443777,8.622262429234132
0.2947065291438431,0.45685438269369266,401,-5,19.710827320443777,8.622262429234132
0.2992739144342907,0.4568498152164393,401,-5,19.710827320443777,8.622262429234132
0.30384125357777764,0.45684524778541785,401,-5,19.710827320443777,8.622262429234132
0.30840854661199296,0.4568406804005842,401,-5,19.710827320443777,8.622262429234132
0.3129757935717612,0.4568361130618974,401,-5,19.710827320443777,8.622262429234132
0.3175429944892622,0.45683154576931995,401,-5,19.710827320443777,8.622262429234132
0.3221101493942354,0.45682697852281695,401,-5,19.710827320443777,8.622262429234132
0.3266772583141667,0.4568224113223561,401,-5,19.710827320443777,8.622262429234132
0.33124432127446274,0.4568178441679079,401,-5,19.710827320443777,8.622262429234132
0.33581133829861015,0.4568132770594447,401,-5,19.710827320443777,8.622262429234132
0.34037830940832364,0.4568087099969411,401,-5,19.710827320443777,8.622262429234132
0.3449452346236824,0.4568041429803737,401,-5,19.710827320443777,8.622262429234132
0.34951211396325566,0.45679957600972065,401,-5,19.710827320443777,8.622262429234132
0.3540789474442192,0.456795009084962,401,-5,19.710827320443777,8.622262429234132
0.3586457350824621,0.4567904422060791,401,-5,19.710827320443777,8.622262429234132
0.36321247689268643,0.4567858753730549,401,-5,19.710827320443777,8.622262429234132
0.3677791728884978,0.4567813085858733,401,-5,19.710827320443777,8.622262429234132
0.37234582308249037,0.4567767418445198,401,-5,19.710827320443777,8.622262429234132
0.37691242748632436,0.4567721751489806,401,-5,19.710827320443777,8.622262429234132
0.38147898611079767,0.4567676084992433,401,-5,19.710827320443777,8.622262429234132
0.38604549896591267,0.45676304189529615,401,-5,19.710827320443777,8.622262429234132
0.39061196606093734,0.4567584753371283,401,-5,19.710827320443777,8.622262429234132
0.3951783874044618,0.4567539088247299,401,-5,19.710827320443777,8.622262429234132
0.39974476300445005,0.4567493423580915,401,-5,19.710827320443777,8.622262429234132
0.4043110928682885,0.45674477593720464,401,-5,19.710827320443777,8.622262429234132
0.40887737700283056,0.4567402095620613,401,-5,19.710827320443777,8.622262429234132
0.4134436154144373,0.4567356432326541,401,-5,19.710827320443777,8.622262429234132
0.41800980810901534,0.4567310769489762,401,-5,19.710827320443777,8.622262429234132
0.4225759550920522,0.4567265107110212,401,-5,19.710827320443777,8.622262429234132
0.42714205636864816,0.4567219445187833,401,-5,19.710827320443777,8.622262429234132
0.43170811194354625,0.45671737837225684,401,-5,19.710827320443777,8.622262429234132
0.4362741218211595,0.4567128122714369,401,-5,19.710827320443777,8.622262429234132
0.44084008600559677,0.4567082462163186,401,-5,19.710827320443777,8.622262429234132
0.4454060045006856,0.4567036802068976,401,-5,19.710827320443777,8.622262429234132
0.44997187730999455,0.4566991142431698,401,-5,19.710827320443777,8.622262429234132
0.4545377044368522,0.4566945483251313,401,-5,19.710827320443777,8.622262429234132
0.4591034858843665,0.4566899824527786,401,-5,19.710827320443777,8.622262429234132
0.46366922165544133,0.4566854166261083,401,-5,19.710827320443777,8.622262429234132
0.46823491175279214,0.4566808508451174,401,-5,19.710827320443777,8.622262429234132
0.4728005561789607,0.4566762851098029,401,-5,19.710827320443777,8.622262429234132
0.47736615493632817,0.4566717194201621,401,-5,19.710827320443777,8.622262429234132
0.48193170802712765,0.4566671537761925,401,-5,19.710827320443777,8.622262429234132
0.4864972154534557,0.45666258817789174,401,-5,19.710827320443777,8.622262429234132
0.49106267721728236,0.4566580226252575,401,-5,19.710827320443777,8.622262429234132
0.49562809332046154,0.4566534571182877,401,-5,19.710827320443777,8.622262429234132
0.5001934637647392,0.45664889165698047,401,-5,19.710827320443777,8.622262429234132
0.5047587885517625,0.45664432624133383,401,-5,19.710827320443777,8.622262429234132
0.5093240676830868,0.4566397608713461,401,-5,19.710827320443777,8.622262429234132
0.5138893011601828,0.4566351955470156,401,-5,19.710827320443777,8.622262429234132
0.5184544889844434,0.45663063026834083,401,-5,19.710827320443777,8.622262429234132
0.5230196311571889,0.45662606503532027,401,-5,19.710827320443777,8.622262429234132
0.5275847276796737,0.45662149984795253,401,-5,19.710827320443777,8.622262429234132
0.5321497785530904,0.4566169347062363,401,-5,19.710827320443777,8.622262429234132
0.5367147837785755,0.4566123696101703,401,-5,19.710827320443777,8.622262429234132
0.5412797433572124,0.4566078045597534,401,-5,19.710827320443777,8.622262429234132
0.5458446572900368,0.45660323955498444,401,-5,19.710827320443777,8.622262429234132
0.5504095255780395,0.45659867459586234,401,-5,19.710827320443777,8.622262429234132
0.5549743482221703,0.456594109682386,401,-5,19.710827320443777,8.622262429234132
0.5595391252233413,0.4565895448145545,401,-5,19.710827320443777,8.622262429234132
0.5641038565824289,0.45658497999236686,401,-5,19.710827320443777,8.622262429234132
0.5686685423002775,0.45658041521582216,401,-5,19.710827320443777,8.622262429234132
0.573233182377702,0.45657585048491955,401,-5,19.710827320443777,8.622262429234132
0.577797776815489,0.45657128579965817,401,-5,19.710827320443777,8.622262429234132
0.5823623256144004,0.4565667211600372,401,-5,19.710827320443777,8.622262429234132
0.5869268287751737,0.4565621565660559,401,-5,19.710827320443777,8.622262429234132
0.5914912862985257,0.45655759201771345,401,-5,19.710827320443777,8.622262429234132
0.5960556981851522,0.45655302751500915,401,-5,19.710827320443777,8.622262429234132
0.6006200644357317,0.4565484630579423,401,-5,19.710827320443777,8.622262429234132
0.6051843850509245,0.45654389864651207,401,-5,19.710827320443777,8.622262429234132
0.6097486600313758,0.45653933428071797,401,-5,19.710827320443777,8.622262429234132
0.6143128893777161,0.4565347699605592,401,-5,19.710827320443777,8.622262429234132
0.6188770730905625,0.4565302056860352,401,-5,19.710827320443777,8.622262429234132
0.6234412111705198,0.4565256414571453,401,-5,19.710827320443777,8.622262429234132
0.6280053036181812,0.45652107727388885,401,-5,19.710827320443777,8.622262429234132
0.6325693504341292,0.45651651313626535,401,-5,19.710827320443777,8.622262429234132
0.6371333516189374,0.45651194904427406,401,-5,19.710827320443777,8.622262429234132
0.6416973071731689,0.45650738499791454,401,-5,19.710827320443777,8.622262429234132
0.6462612170973803,0.45650282099718614,401,-5,19.710827320443777,8.622262429234132
0.6508250813921191,0.4564982570420883,401,-5,19.710827320443777,8.622262429234132
0.6553889000579265,0.4564936931326205,401,-5,19.710827320443777,8.622262429234132
0.6599526730953368,0.45648912926878216,401,-5,19.710827320443777,8.622262429234132
0.6645164005048784,0.45648456545057275,401,-5,19.710827320443777,8.622262429234132
0.6690800822870742,0.45648000167799174,401,-5,19.710827320443777,8.622262429234132
0.6736437184424419,0.45647543795103857,401,-5,19.710827320443777,8.622262429234132
0.6782073089714948,0.4564708742697127,401,-5,19.710827320443777,8.622262429234132
0.682770853874741,0.45646631063401377,401,-5,19.710827320443777,8.622262429234132
0.6873343531526853,0.45646174704394105,401,-5,19.710827320443777,8.622262429234132
0.6918978068058284,0.4564571834994942,401,-5,19.710827320443777,8.622262429234132
0.6964612148346678,0.4564526200006726,401,-5,19.710827320443777,8.622262429234132
0.7010245772396976,0.45644805654747583,401,-5,19.710827320443777,8.622262429234132
0.7055878940214091,0.45644349313990334,401,-5,19.710827320443777,8.622262429234132
0.7101511651802911,0.45643892977795464,401,-5,19.710827320443777,8.622262429234132
0.7147143907168293,0.45643436646162927,401,-5,19.710827320443777,8.622262429234132
0.7192775706315075,0.45642980319092674,401,-5,19.710827320443777,8.622262429234132
0.7238407049248076,0.4564252399658465,401,-5,19.710827320443777,8.622262429234132
0.7284037935972091,0.45642067678638815,401,-5,19.710827320443777,8.622262429234132
0.7329668366491897,0.4564161136525512,401,-5,19.710827320443777,8.622262429234132
0.7375298340812259,0.4564115505643351,401,-5,19.710827320443777,8.622262429234132
0.7420927858937919,0.4564069875217394,401,-5,19.710827320443777,8.622262429234132
0.7466556920873612,0.4564024245247637,401,-5,19.710827320443777,8.622262429234132
0.7512185526624056,0.45639786157340745,401,-5,19.710827320443777,8.622262429234132
0.7557813676193955,0.4563932986676702,401,-5,19.710827320443777,8.622262429234132
0.7603441369588005,0.4563887358075514,401,-5,19.710827320443777,8.622262429234132
0.7649068606810894,0.45638417299305073,401,-5,19.710827320443777,8.622262429234132
0.7694695387867295,0.4563796102241676,401,-5,19.710827320443777,8.622262429234132
0.7740321712761876,0.4563750475009016,401,-5,19.710827320443777,8.622262429234132
0.7785947581499292,0.45637048482325226,401,-5,19.710827320443777,8.622262429234132
0.7831572994084195,0.4563659221912191,401,-5,19.710827320443777,8.622262429234132
0.7877197950521229,0.45636135960480156,401,-5,19.710827320443777,8.622262429234132
0.7922822450815031,0.45635679706399934,401,-5,19.710827320443777,8.622262429234132
0.7968446494970234,0.4563522345688119,401,-5,19.710827320443777,8.622262429234132
0.801407008299146,0.45634767211923877,401,-5,19.710827320443777,8.622262429234132
0.8059693214883332,0.4563431097152795,401,-5,19.710827320443777,8.622262429234132
0.8105315890650466,0.45633854735693363,401,-5,19.710827320443777,8.622262429234132
0.8150938110297471,0.4563339850442007,401,-5,19.710827320443777,8.622262429234132
0.8196559873828958,0.4563294227770802,401,-5,19.710827320443777,8.622262429234132
0.8242181181249527,0.45632486055557175,401,-5,19.710827320443777,8.622262429234132
0.8287802032563782,0.4563202983796748,401,-5,19.710827320443777,8.622262429234132
0.8333422427776321,0.456315736249389,401,-5,19.710827320443777,8.622262429234132
0.8379042366891737,0.4563111741647138,401,-5,19.710827320443777,8.622262429234132
0.8424661849914623,0.4563066121256487,401,-5,19.710827320443777,8.622262429234132
0.8470280876849563,0.4563020501321934,401,-5,19.710827320443777,8.622262429234132
0.851589944770115,0.4562974881843473,401,-5,19.710827320443777,8.622262429234132
0.8561517562473965,0.45629292628211005,401,-5,19.710827320443777,8.622262429234132
0.8607135221172595,0.45628836442548104,401,-5,19.710827320443777,8.622262429234132
0.8652752423801616,0.45628380261445994,401,-5,19.710827320443777,8.622262429234132
0.869836917036561,0.4562792408490463,401,-5,19.710827320443777,8.622262429234132
0.8743985460869154,0.4562746791292396,401,-5,19.710827320443777,8.622262429234132
0.8789601295316827,0.45627011745503937,401,-5,19.710827320443777,8.622262429234132
0.8835216673713199,0.4562655558264452,401,-5,19.710827320443777,8.622262429234132
0.8880831596062847,0.45626099424345656,401,-5,19.710827320443777,8.622262429234132
0.8926446062370345,0.4562564327060731,401,-5,19.710827320443777,8.622262429234132
0.8972060072640261,0.4562518712142943,401,-5,19.710827320443777,8.622262429234132
0.9017673626877168,0.45624730976811967,401,-5,19.710827320443777,8.622262429234132
0.9063286725085632,0.45624274836754886,401,-5,19.710827320443777,8.622262429234132
0.9108899367270226,0.4562381870125813,401,-5,19.710827320443777,8.622262429234132
0.9154511553435516,0.45623362570321657,401,-5,19.710827320443777,8.622262429234132
0.9200123283586068,0.45622906443945427,401,-5,19.710827320443777,8.622262429234132
0.9245734557726452,0.4562245032212939,401,-5,19.710827320443777,8.622262429234132
0.9291345375861232,0.45621994204873495,401,-5,19.710827320443777,8.622262429234132
0.9336955737994972,0.45621538092177705,401,-5,19.710827320443777,8.622262429234132
0.9382565644132241,0.45621081984041967,401,-5,19.710827320443777,8.622262429234132
0.9428175094277601,0.4562062588046624,401,-5,19.710827320443777,8.622262429234132
0.9473784088435615,0.45620169781450476,401,-5,19.710827320443777,8.622262429234132
0.9519392626610846,0.45619713686994634,401,-5,19.710827320443777,8.622262429234132
0.9565000708807861,0.45619257597098667,401,-5,19.710827320443777,8.622262429234132
0.9610608335031219,0.45618801511762525,401,-5,19.710827320443777,8.622262429234132
0.965621550528548,0.4561834543098616,401,-5,19.710827320443777,8.622262429234132
0.9701822219575212,0.45617889354769536,401,-5,19.710827320443777,8.622262429234132
0.9747428477904976,0.456174332831126,401,-5,19.710827320443777,8.622262429234132
0.9793034280279329,0.45616977216015314,401,-5,19.710827320443777,8.622262429234132
0.9838639626702835,0.4561652115347762,401,-5,19.710827320443777,8.622262429234132
0.9884244517180054,0.45616065095499486,401,-5,19.710827320443777,8.622262429234132
0.9929848951715549,0.45615609042080857,401,-5,19.710827320443777,8.622262429234132
0.9975452930313877,0.4561515299322169,401,-5,19.710827320443777,8.622262429234132
1.00210564529796,0.4561469694892194,401,-5,19.710827320443777,8.622262429234132
1.0066659519717276,0.45614240909181564,401,-5,19.710827320443777,8.622262429234132
1.0112262130531469,0.45613784874000507,401,-5,19.710827320443777,8.622262429234132
1.0157864285426734,0.45613328843378736,401,-5,19.710827320443777,8.622262429234132
1.0203465984407638,0.45612872817316197,401,-5,19.710827320443777,8.622262429234132
1.0249067227478728,0.4561241679581285,401,-5,19.710827320443777,8.622262429234132
1.0294668014644575,0.45611960778868643,401,-5,19.710827320443777,8.622262429234132
1.0340268345909736,0.45611504766483535,401,-5,19.710827320443777,8.622262429234132
1.0385868221278765,0.45611048758657474,401,-5,19.710827320443777,8.622262429234132
1.043146764075622,0.4561059275539043,401,-5,19.710827320443777,8.622262429234132
1.0477066604346665,0.45610136756682335,401,-5,19.710827320443777,8.622262429234132
1.0522665112054659,0.4560968076253316,401,-5,19.710827320443777,8.622262429234132
1.056826316388476,0.4560922477294286,401,-5,19.710827320443777,8.622262429234132
1.0613860759841522,0.45608768787911375,401,-5,19.710827320443777,8.622262429234132
1.0659457899929503,0.4560831280743867,401,-5,19.710827320443777,8.622262429234132
1.0705054584153266,0.45607856831524707,401,-5,19.710827320443777,8.622262429234132
1.0750650812517368,0.4560740086016942,401,-5,19.710827320443777,8.622262429234132
1.0796246585026363,0.4560694489337278,401,-5,19.710827320443777,8.622262429234132
1.0841841901684817,0.4560648893113474,401,-5,19.710827320443777,8.622262429234132
