Vout,Iout,Irradiance,Temperature,MaxVoltage,MaxPower
0.006605936481379989,1.3212000000000002,1101,25,21.93432932236675,28.49908809290448
0.01981768729412215,1.3212000000000002,1101,25,21.93432932236675,28.49908809290448
0.033029169515284104,1.3211932619435187,1101,25,21.93432932236675,28.49908809290448
0.04624033516106899,1.321180050192706,1101,25,21.93432932236675,28.49908809290448
0.05945116854953954,1.3211668387111586,1101,25,21.93432932236675,28.49908809290448
0.07266168508534289,1.321153627546834,1101,25,21.93432932236675,28.49908809290448
0.08587189898840905,1.3211404167147667,1101,25,21.93432932236675,28.49908809290448
0.0990818233848122,1.321127206199552,1101,25,21.93432932236675,28.49908809290448
0.11229147039078737,1.32111399598697,1101,25,21.93432932236675,28.49908809290448
0.12550085119042903,1.3211007860638948,1101,25,21.93432932236675,28.49908809290448
0.13870997610741134,1.3210875764182097,1101,25,21.93432932236675,28.49908809290448
0.1519188546711904,1.321074367038731,1101,25,21.93432932236675,28.49908809290448
0.16512749567811247,1.321061157915135,1101,25,21.93432932236675,28.49908809290448
0.17833590724782075,1.3210479490378924,1101,25,21.93432932236675,28.49908809290448
0.19154409687532184,1.3210347403982063,1101,25,21.93432932236675,28.49908809290448
0.2047520714790464,1.3210215319879575,1101,25,21.93432932236675,28.49908809290448
0.2179598374452116,1.3210083237996508,1101,25,21.93432932236675,28.49908809290448
0.23116740066877076,1.320995115826368,1101,25,21.93432932236675,28.49908809290448
0.24437476659121163,1.3209819080617227,1101,25,21.93432932236675,28.49908809290448
0.257581940235447,1.3209687004998198,1101,25,21.93432932236675,28.49908809290448
0.27078892623802037,1.320955493135218,1101,25,21.93432932236675,28.49908809290448
0.2839957288788338,1.3209422859628948,1101,25,21.93432932236675,28.49908809290448
0.29720235210858853,1.3209290789782129,1101,25,21.93432932236675,28.49908809290448
0.3104087995741144,1.3209158721768928,1101,25,21.93432932236675,28.49908809290448
0.32361507464174977,1.3209026655549836,1101,25,21.93432932236675,28.49908809290448
0.33682118041892317,1.320889459108839,1101,25,21.93432932236675,28.49908809290448
0.3500271197740744,1.320876252835092,1101,25,21.93432932236675,28.49908809290448
0.3632328953550424,1.3208630467306353,1101,25,21.93432932236675,28.49908809290448
0.37643850960603886,1.3208498407926008,1101,25,21.93432932236675,28.49908809290448
0.38964396478331537,1.3208366350183405,1101,25,21.93432932236675,28.49908809290448
0.4028492629696258,1.32082342940541,1101,25,21.93432932236675,28.49908809290448
0.41605440608757505,1.3208102239515533,1101,25,21.93432932236675,28.49908809290448
0.4292593959119412,1.3207970186546876,1101,25,21.93432932236675,28.49908809290448
0.44246423408104985,1.3207838135128902,1101,25,21.93432932236675,28.49908809290448
0.4556689221072729,1.3207706085243864,1101,25,21.93432932236675,28.49908809290448
0.46887346138671904,1.3207574036875378,1101,25,21.93432932236675,28.49908809290448
0.48207785320818036,1.320744199000832,1101,25,21.93432932236675,28.49908809290448
0.4952820987613882,1.3207309944628731,1101,25,21.93432932236675,28.49908809290448
0.508486199144636,1.320717790072372,1101,25,21.93432932236675,28.49908809290448
0.521690155371814,1.3207045858281392,1101,25,21.93432932236675,28.49908809290448
0.5348939683789039,1.3206913817290764,1101,25,21.93432932236675,28.49908809290448
0.5480976390299733,1.3206781777741698,1101,25,21.93432932236675,28.49908809290448
0.5613011681227081,1.3206649739624832,1101,25,21.93432932236675,28.49908809290448
0.5745045563935207,1.3206517702931524,1101,25,21.93432932236675,28.49908809290448
0.5877078045222643,1.32063856676538,1101,25,21.93432932236675,28.49908809290448
0.6009109131365848,1.3206253633784295,1101,25,21.93432932236675,28.49908809290448
0.6141138828159375,1.3206121601316212,1101,25,21.93432932236675,28.49908809290448
0.6273167140952949,1.3205989570243273,1101,25,21.93432932236675,28.49908809290448
0.6405194074685694,1.3205857540559682,1101,25,21.93432932236675,28.49908809290448
0.6537219633917728,1.3205725512260091,1101,25,21.93432932236675,28.49908809290448
0.6669243822859318,1.3205593485339562,1101,25,21.93432932236675,28.49908809290448
0.6801266645397802,1.3205461459793533,1101,25,21.93432932236675,28.49908809290448
0.6933288105122439,1.3205329435617794,1101,25,21.93432932236675,28.49908809290448
0.706530820534734,1.3205197412808458,1101,25,21.93432932236675,28.49908809290448
0.7197326949132632,1.3205065391361936,1101,25,21.93432932236675,28.49908809290448
0.7329344339304009,1.3204933371274914,1101,25,21.93432932236675,28.49908809290448
0.7461360378470773,1.320480135254433,1101,25,21.93432932236675,28.49908809290448
0.7593375069042468,1.320466933516736,1101,25,21.93432932236675,28.49908809290448
0.7725388413244267,1.3204537319141396,1101,25,21.93432932236675,28.49908809290448
0.7857400413131144,1.3204405304464026,1101,25,21.93432932236675,28.49908809290448
0.7989411070600977,1.3204273291133026,1101,25,21.93432932236675,28.49908809290448
0.8121420387406634,1.320414127914634,1101,25,21.93432932236675,28.49908809290448
0.825342836516713,1.320400926850207,1101,25,21.93432932236675,28.49908809290448
0.8385435005377926,1.3203877259198467,1101,25,21.93432932236675,28.49908809290448
0.8517440309420431,1.3203745251233907,1101,25,21.93432932236675,28.49908809290448
0.8649444278570788,1.3203613244606898,1101,25,21.93432932236675,28.49908809290448
0.8781446914007961,1.3203481239316055,1101,25,21.93432932236675,28.49908809290448
0.8913448216821221,1.3203349235360107,1101,25,21.93432932236675,28.49908809290448
0.9045448188017041,1.320321723273787,1101,25,21.93432932236675,28.49908809290448
0.9177446828525472,1.3203085231448257,1101,25,21.93432932236675,28.49908809290448
0.9309444139206019,1.3202953231490262,1101,25,21.93432932236675,28.49908809290448
0.9441440120853071,1.3202821232862954,1101,25,21.93432932236675,28.49908809290448
0.9573434774200908,1.3202689235565472,1101,25,21.93432932236675,28.49908809290448
0.9705428099928333,1.3202557239597026,1101,25,21.93432932236675,28.49908809290448
0.983742009866293,1.3202425244956877,1101,25,21.93432932236675,28.49908809290448
0.9969410770985022,1.320229325164435,1101,25,21.93432932236675,28.49908809290448
1.0101400117431278,1.3202161259658813,1101,25,21.93432932236675,28.49908809290448
1.023338813849811,1.320202926899969,1101,25,21.93432932236675,28.49908809290448
1.036537483464473,1.3201897279666444,1101,25,21.93432932236675,28.49908809290448
1.049736020629605,1.3201765291658576,1101,25,21.93432932236675,28.49908809290448
1.062934425384529,1.3201633304975628,1101,25,21.93432932236675,28.49908809290448
1.0761326977656442,1.3201501319617177,1101,25,21.93432932236675,28.49908809290448
1.0893308378066495,1.3201369335582827,1101,25,21.93432932236675,28.49908809290448
1.1025288455387539,1.3201237352872213,1101,25,21.93432932236675,28.49908809290448
1.1157267209908646,1.3201105371485002,1101,25,21.93432932236675,28.49908809290448
1.128924464189768,1.3200973391420878,1101,25,21.93432932236675,28.49908809290448
1.1421220751602903,1.3200841412679556,1101,25,21.93432932236675,28.49908809290448
1.1553195539254484,1.3200709435260765,1101,25,21.93432932236675,28.49908809290448
1.1685169005065912,1.3200577459164258,1101,25,21.93432932236675,28.49908809290448
1.1817141149235248,1.3200445484389804,1101,25,21.93432932236675,28.49908809290448
1.1949111971946336,1.320031351093719,1101,25,21.93432932236675,28.49908809290448
1.2081081473369895,1.3200181538806217,1101,25,21.93432932236675,28.49908809290448
1.2213049653664518,1.3200049567996703,1101,25,21.93432932236675,28.49908809290448
1.234501651297761,1.3199917598508477,1101,25,21.93432932236675,28.49908809290448
1.2476982051446246,1.319978563034138,1101,25,21.93432932236675,28.49908809290448
1.2608946269197976,1.3199653663495263,1101,25,21.93432932236675,28.49908809290448
1.274090916635155,1.3199521697969991,1101,25,21.93432932236675,28.49908809290448
1.2872870743017593,1.3199389733765436,1101,25,21.93432932236675,28.49908809290448
1.3004830999299233,1.319925777088148,1101,25,21.93432932236675,28.49908809290448
1.3136789935292676,1.319912580931801,1101,25,21.93432932236675,28.49908809290448
1.326874755108775,1.3198993849074925,1101,25,21.93432932236675,28.49908809290448
1.3400703846768374,1.3198861890152127,1101,25,21.93432932236675,28.49908809290448
1.353265882241303,1.3198729932549529,1101,25,21.93432932236675,28.49908809290448
1.3664612478095184,1.3198597976267044,1101,25,21.93432932236675,28.49908809290448
1.379656481388365,1.3198466021304596,1101,25,21.93432932236675,28.49908809290448
1.392851582984297,1.319833406766211,1101,25,21.93432932236675,28.49908809290448
1.4060465526033732,1.3198202115339517,1101,25,21.93432932236675,28.49908809290448
1.419241390251288,1.3198070164336753,1101,25,21.93432932236675,28.49908809290448
1.4324360959333986,1.3197938214653757,1101,25,21.93432932236675,28.49908809290448
1.4456306696547525,1.3197806266290473,1101,25,21.93432932236675,28.49908809290448
1.4588251114201096,1.3197674319246846,1101,25,21.93432932236675,28.49908809290448
1.4720194212339643,1.3197542373522828,1101,25,21.93432932236675,28.49908809290448
1.485213599100568,1.3197410429118368,1101,25,21.93432932236675,28.49908809290448
1.4984076450239459,1.3197278486033424,1101,25,21.93432932236675,28.49908809290448
1.5116015590079146,1.3197146544267953,1101,25,21.93432932236675,28.49908809290448
1.5247953410560988,1.3197014603821913,1101,25,21.93432932236675,28.49908809290448
1.5379889911719458,1.3196882664695269,1101,25,21.93432932236675,28.49908809290448
1.5511825093587392,1.319675072688798,1101,25,21.93432932236675,28.49908809290448
1.5643758956196117,1.3196618790400017,1101,25,21.93432932236675,28.49908809290448
1.5775691499575553,1.3196486855231342,1101,25,21.93432932236675,28.49908809290448
1.5907622723754342,1.3196354921381925,1101,25,21.93432932236675,28.49908809290448
1.6039552628759937,1.319622298885174,1101,25,21.93432932236675,28.49908809290448
1.6171481214618686,1.3196091057640755,1101,25,21.93432932236675,28.49908809290448
1.6303408481355937,1.3195959127748942,1101,25,21.93432932236675,28.49908809290448
1.6435334428996082,1.3195827199176278,1101,25,21.93432932236675,28.49908809290448
1.6567259057562678,1.3195695271922734,1101,25,21.93432932236675,28.49908809290448
1.6699182367078453,1.3195563345988286,1101,25,21.93432932236675,28.49908809290448
1.6831104357565425,1.3195431421372912,1101,25,21.93432932236675,28.49908809290448
1.6963025029044922,1.319529949807659,1101,25,21.93432932236675,28.49908809290448
1.709494438153765,1.3195167576099294,1101,25,21.93432932236675,28.49908809290448
1.7226862415063728,1.3195035655441008,1101,25,21.93432932236675,28.49908809290448
1.7358779129642754,1.3194903736101706,1101,25,21.93432932236675,28.49908809290448
1.7490694525293817,1.3194771818081372,1101,25,21.93432932236675,28.49908809290448
1.7622608602035568,1.3194639901379985,1101,25,21.93432932236675,28.49908809290448
1.7754521359886217,1.3194507985997526,1101,25,21.93432932236675,28.49908809290448
1.7886432798863614,1.3194376071933975,1101,25,21.93432932236675,28.49908809290448
1.8018342918985224,1.3194244159189317,1101,25,21.93432932236675,28.49908809290448
1.8150251720268202,1.319411224776353,1101,25,21.93432932236675,28.49908809290448
1.8282159202729389,1.3193980337656601,1101,25,21.93432932236675,28.49908809290448
1.8414065366385342,1.3193848428868509,1101,25,21.93432932236675,28.49908809290448
1.8545970211252365,1.319371652139924,1101,25,21.93432932236675,28.49908809290448
1.8677873737346509,1.3193584615248772,1101,25,21.93432932236675,28.49908809290448
1.8809775944683624,1.3193452710417097,1101,25,21.93432932236675,28.49908809290448
1.8941676833279346,1.3193320806904194,1101,25,21.93432932236675,28.49908809290448
1.9073576403149113,1.3193188904710047,1101,25,21.93432932236675,28.49908809290448
1.92054746543082,1.319305700383464,1101,25,21.93432932236675,28.49908809290448
1.9337371586771714,1.3192925104277962,1101,25,21.93432932236675,28.49908809290448
1.9469267200554625,1.3192793206039992,1101,25,21.93432932236675,28.49908809290448
1.9601161495671757,1.319266130912072,1101,25,21.93432932236675,28.49908809290448
1.9733054472137803,1.3192529413520127,1101,25,21.93432932236675,28.49908809290448
1.9864946129967354,1.31923975192382,1101,25,21.93432932236675,28.49908809290448
1.9996836469174875,1.3192265626274922,1101,25,21.93432932236675,28.49908809290448
2.012872548977475,1.3192133734630282,1101,25,21.93432932236675,28.49908809290448
2.0260613191781247,1.3192001844304264,1101,25,21.93432932236675,28.49908809290448
2.039249957520859,1.3191869955296853,1101,25,21.93432932236675,28.49908809290448
2.0524384640070883,1.3191738067608036,1101,25,21.93432932236675,28.49908809290448
2.065626838638217,1.3191606181237798,1101,25,21.93432932236675,28.49908809290448
2.0788150814156436,1.3191474296186123,1101,25,21.93432932236675,28.49908809290448
2.0920031923407607,1.3191342412453002,1101,25,21.93432932236675,28.49908809290448
2.105191171414955,1.3191210530038415,1101,25,21.93432932236675,28.49908809290448
2.118379018639606,1.3191078648942354,1101,25,21.93432932236675,28.49908809290448
2.13156673401609,1.31909467691648,1101,25,21.93432932236675,28.49908809290448
2.1447543175457793,1.319081489070574,1101,25,21.93432932236675,28.49908809290448
2.157941769230042,1.3190683013565163,1101,25,21.93432932236675,28.49908809290448
2.1711290890702406,1.3190551137743054,1101,25,21.93432932236675,28.49908809290448
2.184316277067737,1.31904192632394,1101,25,21.93432932236675,28.49908809290448
2.1975033332238856,1.3190287390054185,1101,25,21.93432932236675,28.49908809290448
2.210690257540043,1.3190155518187399,1101,25,21.93432932236675,28.49908809290448
2.2238770500175593,1.3190023647639024,1101,25,21.93432932236675,28.49908809290448
2.2370637106577833,1.3189891778409049,1101,25,21.93432932236675,28.49908809290448
2.2502502394620607,1.318975991049746,1101,25,21.93432932236675,28.49908809290448
2.263436636431736,1.3189628043904247,1101,25,21.93432932236675,28.49908809290448
2.276622901568151,1.318949617862939,1101,25,21.93432932236675,28.49908809290448
2.289809034872647,1.318936431467288,1101,25,21.93432932236675,28.49908809290448
2.302995036346561,1.3189232452034703,1101,25,21.93432932236675,28.49908809290448
2.316180905991231,1.3189100590714844,1101,25,21.93432932236675,28.49908809290448
2.329366643807992,1.318896873071329,1101,25,21.93432932236675,28.49908809290448
2.342552249798178,1.318883687203003,1101,25,21.93432932236675,28.49908809290448
2.3557377239631223,1.3188705014665048,1101,25,21.93432932236675,28.49908809290448
2.368923066304155,1.3188573158618333,1101,25,21.93432932236675,28.49908809290448
2.382108276822609,1.3188441303889868,1101,25,21.93432932236675,28.49908809290448
2.395293355519813,1.3188309450479645,1101,25,21.93432932236675,28.49908809290448
2.4084783023970946,1.3188177598387645,1101,25,21.93432932236675,28.49908809290448
2.4216631174557826,1.318804574761386,1101,25,21.93432932236675,28.49908809290448
2.434847800697204,1.318791389815827,1101,25,21.93432932236675,28.49908809290448
2.4480323521226857,1.3187782050020869,1101,25,21.93432932236675,28.49908809290448
2.4612167717335525,1.318765020320164,1101,25,21.93432932236675,28.49908809290448
2.4744010595311297,1.318751835770057,1101,25,21.93432932236675,28.49908809290448
2.487585215516742,1.3187386513517645,1101,25,21.93432932236675,28.49908809290448
2.5007692396917136,1.3187254670652855,1101,25,21.93432932236675,28.49908809290448
2.5139531320573667,1.3187122829106184,1101,25,21.93432932236675,28.49908809290448
2.527136892615026,1.3186990988877618,1101,25,21.93432932236675,28.49908809290448
2.540320521366013,1.3186859149967145,1101,25,21.93432932236675,28.49908809290448
2.553504018311651,1.3186727312374753,1101,25,21.93432932236675,28.49908809290448
2.566687383453261,1.3186595476100427,1101,25,21.93432932236675,28.49908809290448
2.579870616792164,1.3186463641144153,1101,25,21.93432932236675,28.49908809290448
2.5930537183296827,1.3186331807505922,1101,25,21.93432932236675,28.49908809290448
2.6062366880671375,1.3186199975185715,1101,25,21.93432932236675,28.49908809290448
2.619419526005849,1.3186068144183525,1101,25,21.93432932236675,28.49908809290448
2.632602232147137,1.3185936314499334,1101,25,21.93432932236675,28.49908809290448
2.6457848064923226,1.3185804486133128,1101,25,21.93432932236675,28.49908809290448
2.658967249042725,1.31856726590849,1101,25,21.93432932236675,28.49908809290448
2.6721495597996654,1.318554083335463,1101,25,21.93432932236675,28.49908809290448
2.6853317387644617,1.3185409008942308,1101,25,21.93432932236675,28.49908809290448
2.698513785938435,1.3185277185847921,1101,25,21.93432932236675,28.49908809290448
2.7116957013229035,1.3185145364071456,1101,25,21.93432932236675,28.49908809290448
2.724877484919187,1.3185013543612898,1101,25,21.93432932236675,28.49908809290448
2.7380591367286033,1.3184881724472237,1101,25,21.93432932236675,28.49908809290448
2.7512406567524725,1.3184749906649456,1101,25,21.93432932236675,28.49908809290448
2.7644220449921133,1.3184618090144542,1101,25,21.93432932236675,28.49908809290448
2.777603301448844,1.3184486274957485,1101,25,21.93432932236675,28.49908809290448
2.7907844261239845,1.3184354461088272,1101,25,21.93432932236675,28.49908809290448
2.803965419018851,1.3184222648536885,1101,25,21.93432932236675,28.49908809290448
2.817146280134763,1.3184090837303315,1101,25,21.93432932236675,28.49908809290448
2.830327009473039,1.3183959027387548,1101,25,21.93432932236675,28.49908809290448
2.8435076070349976,1.318382721878957,1101,25,21.93432932236675,28.49908809290448
2.856688072821956,1.3183695411509369,1101,25,21.93432932236675,28.49908809290448
2.8698684068352334,1.318356360554693,1101,25,21.93432932236675,28.49908809290448
2.883048609076147,1.318343180090224,1101,25,21.93432932236675,28.49908809290448
2.8962286795460153,1.3183299997575288,1101,25,21.93432932236675,28.49908809290448
2.909408618246155,1.318316819556606,1101,25,21.93432932236675,28.49908809290448
2.922588425177885,1.318303639487454,1101,25,21.93432932236675,28.49908809290448
2.9357681003425227,1.318290459550072,1101,25,21.93432932236675,28.49908809290448
2.9489476437413864,1.3182772797444584,1101,25,21.93432932236675,28.49908809290448
2.9621270553757935,1.3182641000706117,1101,25,21.93432932236675,28.49908809290448
2.9753063352470623,1.3182509205285309,1101,25,21.93432932236675,28.49908809290448
2.9884854833565093,1.3182377411182145,1101,25,21.93432932236675,28.49908809290448
3.0016644997054533,1.318224561839661,1101,25,21.93432932236675,28.49908809290448
3.0148433842952116,1.3182113826928696,1101,25,21.93432932236675,28.49908809290448
3.0280221371271,1.3181982036778386,1101,25,21.93432932236675,28.49908809290448
3.0412007582024385,1.3181850247945666,1101,25,21.93432932236675,28.49908809290448
3.0543792475225424,1.3181718460430527,1101,25,21.93432932236675,28.49908809290448
3.067557605088731,1.3181586674232952,1101,25,21.93432932236675,28.49908809290448
3.0807358309023205,1.318145488935293,1101,25,21.93432932236675,28.49908809290448
3.093913924964629,1.3181323105790448,1101,25,21.93432932236675,28.49908809290448
3.1070918872769733,1.318119132354549,1101,25,21.93432932236675,28.49908809290448
3.120269717840671,1.3181059542618045,1101,25,21.93432932236675,28.49908809290448
3.13344741665704,1.31809277630081,1101,25,21.93432932236675,28.49908809290448
3.146624983727395,1.318079598471564,1101,25,21.93432932236675,28.49908809290448
3.1598024190530567,1.3180664207740656,1101,25,21.93432932236675,28.49908809290448
3.1729797226353402,1.318053243208313,1101,25,21.93432932236675,28.49908809290448
