Vout,Iout,Irradiance,Temperature,MaxVoltage,MaxPower
0.0033956173498331747,0.6791299999999999,601,-10,19.351489243206995,12.767950774724705
0.0101867892613209,0.6791299999999999,601,-10,19.351489243206995,12.767950774724705
0.01697782310998705,0.67912653646965,601,-10,19.351489243206995,12.767950774724705
0.02376869423095427,0.6791197452977386,601,-10,19.351489243206995,12.767950774724705
0.030559394563312733,0.6791129542642362,601,-10,19.351489243206995,12.767950774724705
0.03734993202543817,0.6791061633937944,601,-10,19.351489243206995,12.767950774724705
0.04414031392673193,0.6790993726941411,601,-10,19.351489243206995,12.767950774724705
0.05093054701432599,0.6790925821573581,601,-10,19.351489243206995,12.767950774724705
0.057720637516269616,0.6790857917761359,601,-10,19.351489243206995,12.767950774724705
0.06451059118146839,0.6790790015437274,601,-10,19.351489243206995,12.767950774724705
0.07130041331655028,0.6790722114539045,601,-10,19.351489243206995,12.767950774724705
0.07809010881989517,0.6790654215009183,601,-10,19.351489243206995,12.767950774724705
0.08487968221304609,0.6790586316794622,601,-10,19.351489243206995,12.767950774724705
0.09166913766970367,0.6790518419846379,601,-10,19.351489243206995,12.767950774724705
0.09845847904248964,0.6790450524119237,601,-10,19.351489243206995,12.767950774724705
0.10524770988765121,0.679038262957146,601,-10,19.351489243206995,12.767950774724705
0.11203683348786453,0.6790314736164522,601,-10,19.351489243206995,12.767950774724705
0.11882585287328362,0.6790246843862859,601,-10,19.351489243206995,12.767950774724705
0.12561477084097003,0.6790178952633646,601,-10,19.351489243206995,12.767950774724705
0.13240358997282708,0.6790111062446582,601,-10,19.351489243206995,12.767950774724705
0.13919231265215465,0.6790043173273694,601,-10,19.351489243206995,12.767950774724705
0.14598094107893003,0.6789975285089165,601,-10,19.351489243206995,12.767950774724705
0.15276947728391294,0.678990739786916,601,-10,19.351489243206995,12.767950774724705
0.1595579231416654,0.6789839511591681,601,-10,19.351489243206995,12.767950774724705
0.16634628038257004,0.678977162623642,601,-10,19.351489243206995,12.767950774724705
0.17313455060392313,0.6789703741784631,601,-10,19.351489243206995,12.767950774724705
0.1799227352801749,0.6789635858219011,601,-10,19.351489243206995,12.767950774724705
0.186710835772381,0.6789567975523586,601,-10,19.351489243206995,12.767950774724705
0.1934988533369278,0.6789500093683611,601,-10,19.351489243206995,12.767950774724705
0.2002867891335853,0.6789432212685478,601,-10,19.351489243206995,12.767950774724705
0.2070746442329412,0.6789364332516621,601,-10,19.351489243206995,12.767950774724705
0.21386241962326275,0.6789296453165442,601,-10,19.351489243206995,12.767950774724705
0.22065011621683053,0.6789228574621237,601,-10,19.351489243206995,12.767950774724705
0.22743773485578514,0.6789160696874121,601,-10,19.351489243206995,12.767950774724705
0.23422527631752357,0.6789092819914974,601,-10,19.351489243206995,12.767950774724705
0.24101274131968092,0.6789024943735371,601,-10,19.351489243206995,12.767950774724705
0.2478001305247286,0.6788957068327541,601,-10,19.351489243206995,12.767950774724705
0.2545874445442185,0.6788889193684308,601,-10,19.351489243206995,12.767950774724705
0.26137468394270086,0.6788821319799044,601,-10,19.351489243206995,12.767950774724705
0.26816184924134107,0.6788753446665637,601,-10,19.351489243206995,12.767950774724705
0.27494894092125716,0.678868557427844,601,-10,19.351489243206995,12.767950774724705
0.2817359594266013,0.6788617702632241,601,-10,19.351489243206995,12.767950774724705
0.28852290516740436,0.6788549831722229,601,-10,19.351489243206995,12.767950774724705
0.2953097785222007,0.6788481961543963,601,-10,19.351489243206995,12.767950774724705
0.302096579840452,0.6788414092093342,601,-10,19.351489243206995,12.767950774724705
0.30888330944478415,0.678834622336658,601,-10,19.351489243206995,12.767950774724705
0.3156699676330514,0.6788278355360186,601,-10,19.351489243206995,12.767950774724705
0.3224565546802433,0.6788210488070929,601,-10,19.351489243206995,12.767950774724705
0.3292430708402433,0.6788142621495833,601,-10,19.351489243206995,12.767950774724705
0.3360295163474527,0.6788074755632147,601,-10,19.351489243206995,12.767950774724705
0.34281589141829,0.6788006890477335,601,-10,19.351489243206995,12.767950774724705
0.3496021962525741,0.6787939026029048,601,-10,19.351489243206995,12.767950774724705
0.35638843103480194,0.6787871162285127,601,-10,19.351489243206995,12.767950774724705
0.36317459593532697,0.6787803299243571,601,-10,19.351489243206995,12.767950774724705
0.3699606911114475,0.6787735436902534,601,-10,19.351489243206995,12.767950774724705
0.3767467167084114,0.6787667575260316,601,-10,19.351489243206995,12.767950774724705
0.3835326728603433,0.6787599714315341,601,-10,19.351489243206995,12.767950774724705
0.3903185596910998,0.6787531854066158,601,-10,19.351489243206995,12.767950774724705
0.39710437731506026,0.6787463994511425,601,-10,19.351489243206995,12.767950774724705
0.4038901258378557,0.6787396135649902,601,-10,19.351489243206995,12.767950774724705
0.4106758053570419,0.6787328277480449,601,-10,19.351489243206995,12.767950774724705
0.4174614159627206,0.6787260420002007,601,-10,19.351489243206995,12.767950774724705
0.424246957738113,0.6787192563213601,601,-10,19.351489243206995,12.767950774724705
0.4310324307600898,0.6787124707114329,601,-10,19.351489243206995,12.767950774724705
0.4378178350996589,0.6787056851703361,601,-10,19.351489243206995,12.767950774724705
0.4446031708224173,0.6786988996979927,601,-10,19.351489243206995,12.767950774724705
0.45138843798896644,0.6786921142943317,601,-10,19.351489243206995,12.767950774724705
0.45817363665529776,0.6786853289592875,601,-10,19.351489243206995,12.767950774724705
0.4649587668731464,0.6786785436927995,601,-10,19.351489243206995,12.767950774724705
0.4717438286903195,0.6786717584948118,601,-10,19.351489243206995,12.767950774724705
0.4785288221509976,0.6786649733652724,601,-10,19.351489243206995,12.767950774724705
0.4853137472960144,0.6786581883041337,601,-10,19.351489243206995,12.767950774724705
0.4920986041631138,0.6786514033113515,601,-10,19.351489243206995,12.767950774724705
0.4988833927871879,0.6786446183868851,601,-10,19.351489243206995,12.767950774724705
0.5056681132004961,0.6786378335306965,601,-10,19.351489243206995,12.767950774724705
0.5124527654328683,0.6786310487427508,601,-10,19.351489243206995,12.767950774724705
0.519237349511891,0.678624264023016,601,-10,19.351489243206995,12.767950774724705
0.5260218654630805,0.6786174793714621,601,-10,19.351489243206995,12.767950774724705
0.5328063133100419,0.6786106947880616,601,-10,19.351489243206995,12.767950774724705
0.5395906930746166,0.6786039102727889,601,-10,19.351489243206995,12.767950774724705
0.5463750047770172,0.6785971258256204,601,-10,19.351489243206995,12.767950774724705
0.5531592484359535,0.6785903414465343,601,-10,19.351489243206995,12.767950774724705
0.559943424068748,0.6785835571355103,601,-10,19.351489243206995,12.767950774724705
0.5667275316914424,0.6785767728925298,601,-10,19.351489243206995,12.767950774724705
0.5735115713188965,0.6785699887175755,601,-10,19.351489243206995,12.767950774724705
0.5802955429648783,0.6785632046106311,601,-10,19.351489243206995,12.767950774724705
0.5870794466421495,0.6785564205716821,601,-10,19.351489243206995,12.767950774724705
0.5938632823625416,0.6785496366007145,601,-10,19.351489243206995,12.767950774724705
0.6006470501370278,0.6785428526977157,601,-10,19.351489243206995,12.767950774724705
0.6074307499757897,0.6785360688626737,601,-10,19.351489243206995,12.767950774724705
0.614214381888277,0.6785292850955776,601,-10,19.351489243206995,12.767950774724705
0.6209979458832651,0.6785225013964172,601,-10,19.351489243206995,12.767950774724705
0.6277814419689057,0.6785157177651832,601,-10,19.351489243206995,12.767950774724705
0.6345648701527763,0.6785089342018665,601,-10,19.351489243206995,12.767950774724705
0.641348230441923,0.6785021507064593,601,-10,19.351489243206995,12.767950774724705
0.648131522842902,0.6784953672789537,601,-10,19.351489243206995,12.767950774724705
0.6549147473618171,0.6784885839193429,601,-10,19.351489243206995,12.767950774724705
0.6616979040043549,0.6784818006276203,601,-10,19.351489243206995,12.767950774724705
0.6684809927758163,0.6784750174037797,601,-10,19.351489243206995,12.767950774724705
0.675264013681147,0.6784682342478154,601,-10,19.351489243206995,12.767950774724705
0.6820469667249638,0.6784614511597223,601,-10,19.351489243206995,12.767950774724705
0.6888298519115806,0.6784546681394953,601,-10,19.351489243206995,12.767950774724705
0.695612669245032,0.6784478851871298,601,-10,19.351489243206995,12.767950774724705
0.7023954187290934,0.6784411023026216,601,-10,19.351489243206995,12.767950774724705
0.7091781003673026,0.6784343194859663,601,-10,19.351489243206995,12.767950774724705
0.715960714162977,0.6784275367371606,601,-10,19.351489243206995,12.767950774724705
0.7227432601192315,0.6784207540562006,601,-10,19.351489243206995,12.767950774724705
0.7295257382389927,0.6784139714430832,601,-10,19.351489243206995,12.767950774724705
0.7363081485250145,0.6784071888978053,601,-10,19.351489243206995,12.767950774724705
0.7430904909798911,0.6784004064203638,601,-10,19.351489243206995,12.767950774724705
0.7498727656060692,0.678393624010756,601,-10,19.351489243206995,12.767950774724705
0.7566549724058598,0.6783868416689793,601,-10,19.351489243206995,12.767950774724705
0.7634371113814475,0.6783800593950314,601,-10,19.351489243206995,12.767950774724705
0.7702191825349014,0.6783732771889098,601,-10,19.351489243206995,12.767950774724705
0.7770011858681838,0.6783664950506125,601,-10,19.351489243206995,12.767950774724705
0.7837831213831574,0.6783597129801373,601,-10,19.351489243206995,12.767950774724705
0.7905649890815944,0.6783529309774822,601,-10,19.351489243206995,12.767950774724705
0.797346788965183,0.6783461490426455,601,-10,19.351489243206995,12.767950774724705
0.8041285210355328,0.6783393671756253,601,-10,19.351489243206995,12.767950774724705
0.8109101852941824,0.6783325853764198,601,-10,19.351489243206995,12.767950774724705
0.8176917817426036,0.6783258036450277,601,-10,19.351489243206995,12.767950774724705
0.8244733103822077,0.6783190219814472,601,-10,19.351489243206995,12.767950774724705
0.8312547712143493,0.678312240385677,601,-10,19.351489243206995,12.767950774724705
0.8380361642403309,0.6783054588577155,601,-10,19.351489243206995,12.767950774724705
0.8448174894614066,0.6782986773975616,601,-10,19.351489243206995,12.767950774724705
0.851598746878787,0.6782918960052137,601,-10,19.351489243206995,12.767950774724705
0.8583799364936407,0.6782851146806708,601,-10,19.351489243206995,12.767950774724705
0.8651610583070997,0.6782783334239315,601,-10,19.351489243206995,12.767950774724705
0.8719421123202596,0.6782715522349948,601,-10,19.351489243206995,12.767950774724705
0.8787230985341855,0.6782647711138594,601,-10,19.351489243206995,12.767950774724705
0.885504016949911,0.6782579900605245,601,-10,19.351489243206995,12.767950774724705
0.8922848675684436,0.6782512090749886,601,-10,19.351489243206995,12.767950774724705
0.8990656503907648,0.678244428157251,601,-10,19.351489243206995,12.767950774724705
0.9058463654178329,0.6782376473073105,601,-10,19.351489243206995,12.767950774724705
0.9126270126505845,0.6782308665251663,601,-10,19.351489243206995,12.767950774724705
0.9194075920899367,0.6782240858108174,601,-10,19.351489243206995,12.767950774724705
0.9261881037367873,0.6782173051642627,601,-10,19.351489243206995,12.767950774724705
0.9329685475920183,0.6782105245855014,601,-10,19.351489243206995,12.767950774724705
0.939748923656495,0.6782037440745325,601,-10,19.351489243206995,12.767950774724705
0.9465292319310686,0.6781969636313554,601,-10,19.351489243206995,12.767950774724705
0.9533094724165773,0.678190183255969,601,-10,19.351489243206995,12.767950774724705
0.9600896451138464,0.6781834029483724,601,-10,19.351489243206995,12.767950774724705
0.9668697500236901,0.678176622708565,601,-10,19.351489243206995,12.767950774724705
0.9736497871469124,0.6781698425365458,601,-10,19.351489243206995,12.767950774724705
0.9804297564843066,0.678163062432314,601,-10,19.351489243206995,12.767950774724705
0.9872096580366584,0.6781562823958688,601,-10,19.351489243206995,12.767950774724705
0.9939894918047439,0.6781495024272094,601,-10,19.351489243206995,12.767950774724705
1.0007692577893328,0.678142722526335,601,-10,19.351489243206995,12.767950774724705
1.007548955991187,0.678135942693245,601,-10,19.351489243206995,12.767950774724705
1.0143285864110618,0.6781291629279383,601,-10,19.351489243206995,12.767950774724705
1.0211081490497071,0.6781223832304144,601,-10,19.351489243206995,12.767950774724705
1.027887643907867,0.6781156036006726,601,-10,19.351489243206995,12.767950774724705
1.0346670709862797,0.6781088240387119,601,-10,19.351489243206995,12.767950774724705
1.0414464302856803,0.6781020445445317,601,-10,19.351489243206995,12.767950774724705
1.048225721806798,0.6780952651181312,601,-10,19.351489243206995,12.767950774724705
1.0550049455503587,0.6780884857595098,601,-10,19.351489243206995,12.767950774724705
1.0617841015170852,0.6780817064686666,601,-10,19.351489243206995,12.767950774724705
1.068563189707695,0.6780749272456009,601,-10,19.351489243206995,12.767950774724705
1.0753422101229049,0.6780681480903121,601,-10,19.351489243206995,12.767950774724705
1.0821211627634262,0.6780613690027995,601,-10,19.351489243206995,12.767950774724705
1.0889000476299697,0.6780545899830622,601,-10,19.351489243206995,12.767950774724705
1.0956788647232427,0.6780478110310996,601,-10,19.351489243206995,12.767950774724705
1.1024576140439495,0.6780410321469109,601,-10,19.351489243206995,12.767950774724705
1.109236295592794,0.6780342533304956,601,-10,19.351489243206995,12.767950774724705
1.1160149093704763,0.6780274745818528,601,-10,19.351489243206995,12.767950774724705
1.1227934553776966,0.6780206959009818,601,-10,19.351489243206995,12.767950774724705
1.1295719336151517,0.678013917287882,601,-10,19.351489243206995,12.767950774724705
1.1363503440835379,0.6780071387425526,601,-10,19.351489243206995,12.767950774724705
1.1431286867835495,0.678000360264993,601,-10,19.351489243206995,12.767950774724705
1.14990696171588,0.6779935818552025,601,-10,19.351489243206995,12.767950774724705
1.1566851688812212,0.6779868035131803,601,-10,19.351489243206995,12.767950774724705
1.1634633082802641,0.6779800252389259,601,-10,19.351489243206995,12.767950774724705
1.1702413799136986,0.6779732470324383,601,-10,19.351489243206995,12.767950774724705
1.1770193837822136,0.6779664688937171,601,-10,19.351489243206995,12.767950774724705
1.1837973198864973,0.6779596908227615,601,-10,19.351489243206995,12.767950774724705
1.1905751882272364,0.6779529128195708,601,-10,19.351489243206995,12.767950774724705
1.1973529888051178,0.6779461348841443,601,-10,19.351489243206995,12.767950774724705
1.204130721620827,0.6779393570164813,601,-10,19.351489243206995,12.767950774724705
1.2109083866750492,0.6779325792165813,601,-10,19.351489243206995,12.767950774724705
1.2176859839684688,0.6779258014844434,601,-10,19.351489243206995,12.767950774724705
1.2244635135017699,0.677919023820067,601,-10,19.351489243206995,12.767950774724705
1.231240975275636,0.6779122462234513,601,-10,19.351489243206995,12.767950774724705
1.2380183692907498,0.6779054686945958,601,-10,19.351489243206995,12.767950774724705
1.244795695547794,0.6778986912334997,601,-10,19.351489243206995,12.767950774724705
1.2515729540474507,0.6778919138401622,601,-10,19.351489243206995,12.767950774724705
1.258350144790402,0.6778851365145829,601,-10,19.351489243206995,12.767950774724705
1.2651272677773289,0.6778783592567611,601,-10,19.351489243206995,12.767950774724705
1.2719043230089127,0.6778715820666958,601,-10,19.351489243206995,12.767950774724705
1.2786813104858343,0.6778648049443866,601,-10,19.351489243206995,12.767950774724705
1.285458230208774,0.6778580278898327,601,-10,19.351489243206995,12.767950774724705
1.292235082178413,0.6778512509030336,601,-10,19.351489243206995,12.767950774724705
1.2990118663954298,0.6778444739839883,601,-10,19.351489243206995,12.767950774724705
1.3057885828605054,0.6778376971326964,601,-10,19.351489243206995,12.767950774724705
1.3125652315743193,0.677830920349157,601,-10,19.351489243206995,12.767950774724705
1.3193418125375507,0.6778241436333697,601,-10,19.351489243206995,12.767950774724705
1.326118325750879,0.6778173669853336,601,-10,19.351489243206995,12.767950774724705
1.332894771214984,0.677810590405048,601,-10,19.351489243206995,12.767950774724705
1.3396711489305437,0.6778038138925123,601,-10,19.351489243206995,12.767950774724705
1.3464474588982376,0.6777970374477259,601,-10,19.351489243206995,12.767950774724705
1.353223701118744,0.677790261070688,601,-10,19.351489243206995,12.767950774724705
1.3599998755927416,0.6777834847613979,601,-10,19.351489243206995,12.767950774724705
1.3667759823209091,0.677776708519855,601,-10,19.351489243206995,12.767950774724705
1.373552021303925,0.6777699323460586,601,-10,19.351489243206995,12.767950774724705
1.3803279925424672,0.6777631562400082,601,-10,19.351489243206995,12.767950774724705
1.3871038960372146,0.6777563802017027,601,-10,19.351489243206995,12.767950774724705
1.3938797317888452,0.6777496042311418,601,-10,19.351489243206995,12.767950774724705
1.4006554997980365,0.6777428283283247,601,-10,19.351489243206995,12.767950774724705
1.4074312000654672,0.6777360524932506,601,-10,19.351489243206995,12.767950774724705
1.414206832591815,0.677729276725919,601,-10,19.351489243206995,12.767950774724705
1.4209823973777571,0.6777225010263291,601,-10,19.351489243206995,12.767950774724705
1.4277578944239724,0.6777157253944804,601,-10,19.351489243206995,12.767950774724705
1.4345333237311384,0.677708949830372,601,-10,19.351489243206995,12.767950774724705
1.4413086852999326,0.6777021743340034,601,-10,19.351489243206995,12.767950774724705
1.4480839791310327,0.6776953989053738,601,-10,19.351489243206995,12.767950774724705
1.4548592052251164,0.6776886235444826,601,-10,19.351489243206995,12.767950774724705
1.4616343635828615,0.6776818482513289,601,-10,19.351489243206995,12.767950774724705
1.4684094542049448,0.6776750730259125,601,-10,19.351489243206995,12.767950774724705
1.4751844770920448,0.6776682978682322,601,-10,19.351489243206995,12.767950774724705
1.4819594322448386,0.6776615227782876,601,-10,19.351489243206995,12.767950774724705
1.488734319664004,0.677654747756078,601,-10,19.351489243206995,12.767950774724705
1.4955091393502182,0.6776479728016028,601,-10,19.351489243206995,12.767950774724705
1.5022838913041585,0.6776411979148611,601,-10,19.351489243206995,12.767950774724705
1.5090585755265022,0.6776344230958524,601,-10,19.351489243206995,12.767950774724705
1.515833192017927,0.677627648344576,601,-10,19.351489243206995,12.767950774724705
1.5226077407791099,0.6776208736610311,601,-10,19.351489243206995,12.767950774724705
1.5293822218107285,0.6776140990452172,601,-10,19.351489243206995,12.767950774724705
1.53615663511346,0.6776073244971335,601,-10,19.351489243206995,12.767950774724705
1.5429309806879814,0.6776005500167792,601,-10,19.351489243206995,12.767950774724705
1.5497052585349707,0.677593775604154,601,-10,19.351489243206995,12.767950774724705
1.556479468655104,0.677587001259257,601,-10,19.351489243206995,12.767950774724705
1.5632536110490596,0.6775802269820874,601,-10,19.351489243206995,12.767950774724705
1.5700276857175144,0.6775734527726447,601,-10,19.351489243206995,12.767950774724705
1.5768016926611454,0.6775666786309281,601,-10,19.351489243206995,12.767950774724705
1.5835756318806302,0.6775599045569372,601,-10,19.351489243206995,12.767950774724705
