Vout,Iout,Irradiance,Temperature,MaxVoltage,MaxPower
0.006220590186632821,1.24413,1101,-10,19.357554204642746,23.709070704505148
0.018661655535298353,1.24413,1101,-10,19.357554204642746,23.709070704505148
0.031102467960225862,1.2441236549968133,1101,-10,19.357554204642746,23.709070704505148
0.043542982276673296,1.2441112139314647,1101,-10,19.357554204642746,23.709070704505148
0.05598318371748308,1.2440987731196742,1101,-10,19.357554204642746,23.709070704505148
0.0684230867886979,1.2440863326066018,1101,-10,19.357554204642746,23.709070704505148
0.08086270488075187,1.2440738924064052,1101,-10,19.357554204642746,23.709070704505148
0.0933020503540315,1.244061452504578,1101,-10,19.357554204642746,23.709070704505148
0.10574113461799148,1.24404901288773,1101,-10,19.357554204642746,23.709070704505148
0.1181799682043207,1.2440365735435006,1101,-10,19.357554204642746,23.709070704505148
0.13061856083447904,1.2440241344604808,1101,-10,19.357554204642746,23.709070704505148
0.14305692148203764,1.2440116956281382,1101,-10,19.357554204642746,23.709070704505148
0.15549505843022254,1.243999257036752,1101,-10,19.357554204642746,23.709070704505148
0.1679329793250312,1.2439868186773484,1101,-10,19.357554204642746,23.709070704505148
0.18037069122426141,1.243974380541644,1101,-10,19.357554204642746,23.709070704505148
0.1928082006427687,1.243961942621993,1101,-10,19.357554204642746,23.709070704505148
0.205245513594241,1.2439495049113376,1101,-10,19.357554204642746,23.709070704505148
0.21768263562975915,1.243937067403163,1101,-10,19.357554204642746,23.709070704505148
0.23011957187339094,1.2439246300914553,1101,-10,19.357554204642746,23.709070704505148
0.24255632705504587,1.2439121929706634,1101,-10,19.357554204642746,23.709070704505148
0.2549929055408024,1.2438997560356635,1101,-10,19.357554204642746,23.709070704505148
0.26742931136090164,1.2438873192817257,1101,-10,19.357554204642746,23.709070704505148
0.27986554823558746,1.2438748827044837,1101,-10,19.357554204642746,23.709070704505148
0.2923016195989577,1.243862446299907,1101,-10,19.357554204642746,23.709070704505148
0.30473752862098086,1.2438500100642762,1101,-10,19.357554204642746,23.709070704505148
0.31717327822781916,1.2438375739941563,1101,-10,19.357554204642746,23.709070704505148
0.32960887112058657,1.243825138086378,1101,-10,19.357554204642746,23.709070704505148
0.3420443097926647,1.2438127023380148,1101,-10,19.357554204642746,23.709070704505148
0.35447959654568634,1.2438002667463655,1101,-10,19.357554204642746,23.709070704505148
0.36691473350428855,1.243787831308937,1101,-10,19.357554204642746,23.709070704505148
0.3793497226297309,1.2437753960234277,1101,-10,19.357554204642746,23.709070704505148
0.3917845657324664,1.2437629608877125,1101,-10,19.357554204642746,23.709070704505148
0.40421926448374457,1.2437505258998307,1101,-10,19.357554204642746,23.709070704505148
0.416653820426322,1.2437380910579714,1101,-10,19.357554204642746,23.709070704505148
0.42908823498434856,1.2437256563604637,1101,-10,19.357554204642746,23.709070704505148
0.4415225094724938,1.2437132218057645,1101,-10,19.357554204642746,23.709070704505148
0.4539566451043697,1.24370078739245,1101,-10,19.357554204642746,23.709070704505148
0.4663906430003071,1.2436883531192053,1101,-10,19.357554204642746,23.709070704505148
0.4788245041945319,1.2436759189848168,1101,-10,19.357554204642746,23.709070704505148
0.49125822964179117,1.2436634849881643,1101,-10,19.357554204642746,23.709070704505148
0.5036918202234676,1.2436510511282135,1101,-10,19.357554204642746,23.709070704505148
0.5161252767532247,1.2436386174040097,1101,-10,19.357554204642746,23.709070704505148
0.5285585999822165,1.2436261838146714,1101,-10,19.357554204642746,23.709070704505148
0.5409917906038982,1.243613750359385,1101,-10,19.357554204642746,23.709070704505148
0.5534248492584652,1.2436013170373994,1101,-10,19.357554204642746,23.709070704505148
0.5658577765369505,1.2435888838480211,1101,-10,19.357554204642746,23.709070704505148
0.5782905729850075,1.2435764507906097,1101,-10,19.357554204642746,23.709070704505148
0.5907232391064023,1.2435640178645746,1101,-10,19.357554204642746,23.709070704505148
0.6031557753662358,1.24355158506937,1101,-10,19.357554204642746,23.709070704505148
0.615588182193919,1.2435391524044919,1101,-10,19.357554204642746,23.709070704505148
0.6280204599859186,1.2435267198694753,1101,-10,19.357554204642746,23.709070704505148
0.6404526091082927,1.2435142874638907,1101,-10,19.357554204642746,23.709070704505148
0.6528846298990294,1.243501855187342,1101,-10,19.357554204642746,23.709070704505148
0.6653165226702074,1.2434894230394629,1101,-10,19.357554204642746,23.709070704505148
0.677748287709989,1.2434769910199155,1101,-10,19.357554204642746,23.709070704505148
0.6901799252844606,1.2434645591283875,1101,-10,19.357554204642746,23.709070704505148
0.7026114356393307,1.2434521273645909,1101,-10,19.357554204642746,23.709070704505148
0.7150428190014988,1.2434396957282596,1101,-10,19.357554204642746,23.709070704505148
0.7274740755805014,1.243427264219148,1101,-10,19.357554204642746,23.709070704505148
0.739905205569849,1.243414832837029,1101,-10,19.357554204642746,23.709070704505148
0.7523362091482583,1.2434024015816931,1101,-10,19.357554204642746,23.709070704505148
0.764767086480791,1.2433899704529467,1101,-10,19.357554204642746,23.709070704505148
0.7771978377199042,1.2433775394506115,1101,-10,19.357554204642746,23.709070704505148
0.7896284630064209,1.243365108574522,1101,-10,19.357554204642746,23.709070704505148
0.8020589624704235,1.243352677824526,1101,-10,19.357554204642746,23.709070704505148
0.8144893362320822,1.2433402472004826,1101,-10,19.357554204642746,23.709070704505148
0.8269195844024161,1.2433278167022617,1101,-10,19.357554204642746,23.709070704505148
0.8393497070839981,1.2433153863297433,1101,-10,19.357554204642746,23.709070704505148
0.8517797043716042,1.243302956082816,1101,-10,19.357554204642746,23.709070704505148
0.8642095763528148,1.2432905259613773,1101,-10,19.357554204642746,23.709070704505148
0.8766393231085663,1.2432780959653327,1101,-10,19.357554204642746,23.709070704505148
0.8890689447136635,1.2432656660945947,1101,-10,19.357554204642746,23.709070704505148
0.9014984412372515,1.2432532363490818,1101,-10,19.357554204642746,23.709070704505148
0.9139278127432507,1.2432408067287197,1101,-10,19.357554204642746,23.709070704505148
0.9263570592907592,1.2432283772334392,1101,-10,19.357554204642746,23.709070704505148
0.9387861809344226,1.2432159478631761,1101,-10,19.357554204642746,23.709070704505148
0.9512151777247786,1.2432035186178714,1101,-10,19.357554204642746,23.709070704505148
0.9636440497085716,1.2431910894974707,1101,-10,19.357554204642746,23.709070704505148
0.9760727969290452,1.2431786605019233,1101,-10,19.357554204642746,23.709070704505148
0.9885014194262112,1.2431662316311825,1101,-10,19.357554204642746,23.709070704505148
1.000929917237098,1.243153802885205,1101,-10,19.357554204642746,23.709070704505148
1.0133582903959817,1.2431413742639505,1101,-10,19.357554204642746,23.709070704505148
1.0257865389345953,1.2431289457673826,1101,-10,19.357554204642746,23.709070704505148
1.0382146628823266,1.2431165173954666,1101,-10,19.357554204642746,23.709070704505148
1.0506426622663976,1.2431040891481708,1101,-10,19.357554204642746,23.709070704505148
1.0630705371120317,1.2430916610254659,1101,-10,19.357554204642746,23.709070704505148
1.075498287442607,1.2430792330273246,1101,-10,19.357554204642746,23.709070704505148
1.0879259132797976,1.243066805153722,1101,-10,19.357554204642746,23.709070704505148
1.1003534146437066,1.243054377404634,1101,-10,19.357554204642746,23.709070704505148
1.112780791552986,1.2430419497800396,1101,-10,19.357554204642746,23.709070704505148
1.125208044024947,1.2430295222799186,1101,-10,19.357554204642746,23.709070704505148
1.1376351720756654,1.243017094904252,1101,-10,19.357554204642746,23.709070704505148
1.1500621757200757,1.2430046676530229,1101,-10,19.357554204642746,23.709070704505148
1.1624890549720586,1.2429922405262148,1101,-10,19.357554204642746,23.709070704505148
1.1749158098445218,1.242979813523813,1101,-10,19.357554204642746,23.709070704505148
1.1873424403494768,1.2429673866458038,1101,-10,19.357554204642746,23.709070704505148
1.199768946498105,1.242954959892174,1101,-10,19.357554204642746,23.709070704505148
1.2121953283008238,1.2429425332629118,1101,-10,19.357554204642746,23.709070704505148
1.2246215857673448,1.2429301067580059,1101,-10,19.357554204642746,23.709070704505148
1.2370477189067275,1.2429176803774458,1101,-10,19.357554204642746,23.709070704505148
1.2494737277274302,1.242905254121222,1101,-10,19.357554204642746,23.709070704505148
1.2618996122373558,1.2428928279893252,1101,-10,19.357554204642746,23.709070704505148
1.2743253724438945,1.2428804019817472,1101,-10,19.357554204642746,23.709070704505148
1.286751008353964,1.2428679760984798,1101,-10,19.357554204642746,23.709070704505148
1.2991765199740442,1.2428555503395158,1101,-10,19.357554204642746,23.709070704505148
1.3116019073102132,1.2428431247048484,1101,-10,19.357554204642746,23.709070704505148
1.3240271703681767,1.2428306991944709,1101,-10,19.357554204642746,23.709070704505148
1.3364523091532965,1.2428182738083773,1101,-10,19.357554204642746,23.709070704505148
1.3488773236706177,1.2428058485465618,1101,-10,19.357554204642746,23.709070704505148
1.3613022139248923,1.2427934234090192,1101,-10,19.357554204642746,23.709070704505148
1.3737269799206033,1.2427809983957445,1101,-10,19.357554204642746,23.709070704505148
1.3861516216619834,1.2427685735067326,1101,-10,19.357554204642746,23.709070704505148
1.3985761391530351,1.2427561487419796,1101,-10,19.357554204642746,23.709070704505148
1.4110005323975494,1.2427437241014807,1101,-10,19.357554204642746,23.709070704505148
1.4234248013991195,1.242731299585232,1101,-10,19.357554204642746,23.709070704505148
1.4358489461611594,1.24271887519323,1101,-10,19.357554204642746,23.709070704505148
1.4482729666869159,1.2427064509254708,1101,-10,19.357554204642746,23.709070704505148
1.4606968629794794,1.2426940267819513,1101,-10,19.357554204642746,23.709070704505148
1.473120635041801,1.242681602762668,1101,-10,19.357554204642746,23.709070704505148
1.4855442828766983,1.2426691788676179,1101,-10,19.357554204642746,23.709070704505148
1.4979678064868673,1.242656755096798,1101,-10,19.357554204642746,23.709070704505148
1.5103912058748943,1.2426443314502054,1101,-10,19.357554204642746,23.709070704505148
1.5228144810432598,1.2426319079278376,1101,-10,19.357554204642746,23.709070704505148
1.5352376319943504,1.2426194845296918,1101,-10,19.357554204642746,23.709070704505148
1.5476606587304644,1.2426070612557658,1101,-10,19.357554204642746,23.709070704505148
1.5600835612538184,1.242594638106057,1101,-10,19.357554204642746,23.709070704505148
1.5725063395665542,1.2425822150805634,1101,-10,19.357554204642746,23.709070704505148
1.584928993670744,1.2425697921792824,1101,-10,19.357554204642746,23.709070704505148
1.5973515235683968,1.2425573694022118,1101,-10,19.357554204642746,23.709070704505148
1.6097739292614617,1.24254494674935,1101,-10,19.357554204642746,23.709070704505148
1.6221962107518342,1.2425325242206946,1101,-10,19.357554204642746,23.709070704505148
1.634618368041359,1.2425201018162437,1101,-10,19.357554204642746,23.709070704505148
1.647040401131834,1.2425076795359957,1101,-10,19.357554204642746,23.709070704505148
1.6594623100250154,1.2424952573799484,1101,-10,19.357554204642746,23.709070704505148
1.6718840947226188,1.2424828353481001,1101,-10,19.357554204642746,23.709070704505148
1.6843057552263236,1.2424704134404492,1101,-10,19.357554204642746,23.709070704505148
1.6967272915377762,1.2424579916569938,1101,-10,19.357554204642746,23.709070704505148
1.7091487036585897,1.2424455699977324,1101,-10,19.357554204642746,23.709070704505148
1.7215699915903515,1.242433148462663,1101,-10,19.357554204642746,23.709070704505148
1.7339911553346203,1.2424207270517844,1101,-10,19.357554204642746,23.709070704505148
1.7464121948929314,1.2424083057650948,1101,-10,19.357554204642746,23.709070704505148
1.7588331102667971,1.2423958846025926,1101,-10,19.357554204642746,23.709070704505148
1.7712539014577091,1.2423834635642765,1101,-10,19.357554204642746,23.709070704505148
1.7836745684671396,1.2423710426501446,1101,-10,19.357554204642746,23.709070704505148
1.7960951112965424,1.2423586218601959,1101,-10,19.357554204642746,23.709070704505148
1.8085155299473563,1.2423462011944286,1101,-10,19.357554204642746,23.709070704505148
1.8209358244210039,1.2423337806528412,1101,-10,19.357554204642746,23.709070704505148
1.8333559947188944,1.2423213602354324,1101,-10,19.357554204642746,23.709070704505148
1.845776040842424,1.242308939942201,1101,-10,19.357554204642746,23.709070704505148
1.8581959627929767,1.242296519773145,1101,-10,19.357554204642746,23.709070704505148
1.870615760571926,1.2422840997282636,1101,-10,19.357554204642746,23.709070704505148
1.8830354341806343,1.242271679807555,1101,-10,19.357554204642746,23.709070704505148
1.8954549836204557,1.242259260011018,1101,-10,19.357554204642746,23.709070704505148
1.907874408892735,1.2422468403386513,1101,-10,19.357554204642746,23.709070704505148
1.9202937099988096,1.2422344207904534,1101,-10,19.357554204642746,23.709070704505148
1.9327128869400088,1.2422220013664231,1101,-10,19.357554204642746,23.709070704505148
1.945131939717655,1.242209582066559,1101,-10,19.357554204642746,23.709070704505148
1.957550868333066,1.24219716289086,1101,-10,19.357554204642746,23.709070704505148
1.9699696727875515,1.242184743839324,1101,-10,19.357554204642746,23.709070704505148
1.9823883530824167,1.2421723249119505,1101,-10,19.357554204642746,23.709070704505148
1.9948069092189629,1.242159906108738,1101,-10,19.357554204642746,23.709070704505148
2.007225341198486,1.242147487429685,1101,-10,19.357554204642746,23.709070704505148
2.0196436490222767,1.2421350688747903,1101,-10,19.357554204642746,23.709070704505148
2.0320618326916238,1.2421226504440528,1101,-10,19.357554204642746,23.709070704505148
2.044479892207811,1.2421102321374708,1101,-10,19.357554204642746,23.709070704505148
2.05689782757212,1.2420978139550434,1101,-10,19.357554204642746,23.709070704505148
2.0693156387858265,1.242085395896769,1101,-10,19.357554204642746,23.709070704505148
2.081733325850208,1.2420729779626465,1101,-10,19.357554204642746,23.709070704505148
2.094150888766535,1.2420605601526746,1101,-10,19.357554204642746,23.709070704505148
2.1065683275360794,1.242048142466852,1101,-10,19.357554204642746,23.709070704505148
2.118985642160107,1.2420357249051774,1101,-10,19.357554204642746,23.709070704505148
2.1314028326398846,1.2420233074676497,1101,-10,19.357554204642746,23.709070704505148
2.143819898976676,1.2420108901542675,1101,-10,19.357554204642746,23.709070704505148
2.1562368411717427,1.2419984729650293,1101,-10,19.357554204642746,23.709070704505148
2.1686536592263455,1.2419860558999343,1101,-10,19.357554204642746,23.709070704505148
2.1810703531417426,1.2419736389589808,1101,-10,19.357554204642746,23.709070704505148
2.1934869229191922,1.241961222142168,1101,-10,19.357554204642746,23.709070704505148
2.2059033685599503,1.2419488054494943,1101,-10,19.357554204642746,23.709070704505148
2.2183196900652717,1.2419363888809585,1101,-10,19.357554204642746,23.709070704505148
2.2307358874364125,1.2419239724365594,1101,-10,19.357554204642746,23.709070704505148
2.243151960674623,1.241911556116296,1101,-10,19.357554204642746,23.709070704505148
2.255567909781156,1.2418991399201662,1101,-10,19.357554204642746,23.709070704505148
2.2679837347572627,1.2418867238481697,1101,-10,19.357554204642746,23.709070704505148
2.2803994356041946,1.2418743079003047,1101,-10,19.357554204642746,23.709070704505148
2.2928150123232,1.2418618920765703,1101,-10,19.357554204642746,23.709070704505148
2.3052304649155277,1.241849476376965,1101,-10,19.357554204642746,23.709070704505148
2.317645793382427,1.2418370608014875,1101,-10,19.357554204642746,23.709070704505148
2.330060997725146,1.2418246453501367,1101,-10,19.357554204642746,23.709070704505148
2.3424760779449314,1.2418122300229115,1101,-10,19.357554204642746,23.709070704505148
2.354891034043029,1.2417998148198102,1101,-10,19.357554204642746,23.709070704505148
2.3673058660206867,1.241787399740832,1101,-10,19.357554204642746,23.709070704505148
2.379720573879149,1.2417749847859754,1101,-10,19.357554204642746,23.709070704505148
2.3921351576196614,1.2417625699552393,1101,-10,19.357554204642746,23.709070704505148
2.4045496172434704,1.2417501552486223,1101,-10,19.357554204642746,23.709070704505148
2.416963952751819,1.2417377406661232,1101,-10,19.357554204642746,23.709070704505148
2.4293781641459535,1.241725326207741,1101,-10,19.357554204642746,23.709070704505148
2.4417922514271173,1.241712911873474,1101,-10,19.357554204642746,23.709070704505148
2.4542062145965535,1.2417004976633215,1101,-10,19.357554204642746,23.709070704505148
2.4666200536555065,1.2416880835772817,1101,-10,19.357554204642746,23.709070704505148
2.4790337686052197,1.2416756696153537,1101,-10,19.357554204642746,23.709070704505148
2.4914473594469357,1.241663255777536,1101,-10,19.357554204642746,23.709070704505148
2.5038608261818984,1.2416508420638277,1101,-10,19.357554204642746,23.709070704505148
2.51627416881135,1.2416384284742275,1101,-10,19.357554204642746,23.709070704505148
2.5286873873365336,1.241626015008734,1101,-10,19.357554204642746,23.709070704505148
2.5411004817586917,1.2416136016673458,1101,-10,19.357554204642746,23.709070704505148
2.553513452079066,1.241601188450062,1101,-10,19.357554204642746,23.709070704505148
2.5659262982988995,1.241588775356881,1101,-10,19.357554204642746,23.709070704505148
2.5783390204194334,1.241576362387802,1101,-10,19.357554204642746,23.709070704505148
2.5907516184419106,1.2415639495428235,1101,-10,19.357554204642746,23.709070704505148
2.6031640923675727,1.2415515368219443,1101,-10,19.357554204642746,23.709070704505148
2.615576442197661,1.241539124225163,1101,-10,19.357554204642746,23.709070704505148
2.6279886679334177,1.2415267117524786,1101,-10,19.357554204642746,23.709070704505148
2.640400769576084,1.24151429940389,1101,-10,19.357554204642746,23.709070704505148
2.652812747126901,1.2415018871793955,1101,-10,19.357554204642746,23.709070704505148
2.665224600587112,1.241489475078994,1101,-10,19.357554204642746,23.709070704505148
2.6776363299579553,1.2414770631026844,1101,-10,19.357554204642746,23.709070704505148
2.6900479352406745,1.2414646512504652,1101,-10,19.357554204642746,23.709070704505148
2.7024594164365103,1.2414522395223357,1101,-10,19.357554204642746,23.709070704505148
2.7148707735467044,1.241439827918294,1101,-10,19.357554204642746,23.709070704505148
2.7272820065724965,1.2414274164383394,1101,-10,19.357554204642746,23.709070704505148
2.7396931155151285,1.2414150050824704,1101,-10,19.357554204642746,23.709070704505148
2.7521041003758415,1.2414025938506859,1101,-10,19.357554204642746,23.709070704505148
2.764514961155876,1.2413901827429843,1101,-10,19.357554204642746,23.709070704505148
2.7769256978564725,1.2413777717593648,1101,-10,19.357554204642746,23.709070704505148
2.789336310478873,1.2413653608998259,1101,-10,19.357554204642746,23.709070704505148
2.801746799024317,1.2413529501643663,1101,-10,19.357554204642746,23.709070704505148
2.8141571634940465,1.241340539552985,1101,-10,19.357554204642746,23.709070704505148
2.8265674038893014,1.2413281290656806,1101,-10,19.357554204642746,23.709070704505148
2.838977520211324,1.241315718702452,1101,-10,19.357554204642746,23.709070704505148
2.851387512461353,1.2413033084632978,1101,-10,19.357554204642746,23.709070704505148
2.8637973806406296,1.2412908983482167,1101,-10,19.357554204642746,23.709070704505148
2.876207124750395,1.2412784883572077,1101,-10,19.357554204642746,23.709070704505148
2.8886167447918885,1.2412660784902696,1101,-10,19.357554204642746,23.709070704505148
