Vout,Iout,Irradiance,Temperature,MaxVoltage,MaxPower
0.009610557590792396,1.92213,1701,-10,19.359000220808344,36.836477073897655
0.0288314950640713,1.92213,1701,-10,19.359000220808344,36.836477073897655
0.04805204178051244,1.922120197229409,1701,-10,19.359000220808344,36.836477073897655
0.06727212793153614,1.9221009762919359,1701,-10,19.359000220808344,36.836477073897655
0.08649173070248745,1.9220817557461995,1701,-10,19.359000220808344,36.836477073897655
0.10571087250460956,1.9220625356619707,1701,-10,19.359000220808344,36.836477073897655
0.12492957402557577,1.9220433160611219,1701,-10,19.359000220808344,36.836477073897655
0.14414785436167807,1.9220240969212417,1701,-10,19.359000220808344,36.836477073897655
0.16336573114005762,1.9220048782216428,1701,-10,19.359000220808344,36.836477073897655
0.18258322063174337,1.9219856599432286,1701,-10,19.359000220808344,36.836477073897655
0.20180033785599347,1.921966442068372,1701,-10,19.359000220808344,36.836477073897655
0.22101709667660854,1.9219472245808022,1701,-10,19.359000220808344,36.836477073897655
0.24023350989083433,1.9219280074654996,1701,-10,19.359000220808344,36.836477073897655
0.25944958931142426,1.9219087907086008,1701,-10,19.359000220808344,36.836477073897655
0.27866534584238756,1.9218895742973083,1701,-10,19.359000220808344,36.836477073897655
0.29788078954890973,1.9218703582198093,1701,-10,19.359000220808344,36.836477073897655
0.3170959297218927,1.9218511424652,1701,-10,19.359000220808344,36.836477073897655
0.33631077493752987,1.9218319270234152,1701,-10,19.359000220808344,36.836477073897655
0.3555253331122962,1.9218127118851638,1701,-10,19.359000220808344,36.836477073897655
0.37473961155370866,1.9217934970418697,1701,-10,19.359000220808344,36.836477073897655
0.39395361700717996,1.9217742824856163,1701,-10,19.359000220808344,36.836477073897655
0.41316735569926805,1.9217550682090965,1701,-10,19.359000220808344,36.836477073897655
0.4323808333775973,1.9217358542055645,1701,-10,19.359000220808344,36.836477073897655
0.4515940553477087,1.9217166404687938,1701,-10,19.359000220808344,36.836477073897655
0.4708070265070744,1.921697426993037,1701,-10,19.359000220808344,36.836477073897655
0.49001975137649484,1.9216782137729882,1701,-10,19.359000220808344,36.836477073897655
0.5092322341290809,1.9216590008037502,1701,-10,19.359000220808344,36.836477073897655
0.5284444786170056,1.921639788080802,1701,-10,19.359000220808344,36.836477073897655
0.547656488396197,1.9216205755999707,1701,-10,19.359000220808344,36.836477073897655
0.5668682667491327,1.921601363357404,1701,-10,19.359000220808344,36.836477073897655
0.5860798167058787,1.9215821513495461,1701,-10,19.359000220808344,36.836477073897655
0.605291141063511,1.9215629395731144,1701,-10,19.359000220808344,36.836477073897655
0.6245022424040417,1.921543728025079,1701,-10,19.359000220808344,36.836477073897655
0.6437131231109664,1.9215245167026425,1701,-10,19.359000220808344,36.836477073897655
0.6629237853845389,1.921505305603223,1701,-10,19.359000220808344,36.836477073897655
0.6821342312558696,1.9214860947244372,1701,-10,19.359000220808344,36.836477073897655
0.7013444625999394,1.9214668840640847,1701,-10,19.359000220808344,36.836477073897655
0.7205544811476137,1.9214476736201345,1701,-10,19.359000220808344,36.836477073897655
0.7397642884967295,1.9214284633907115,1701,-10,19.359000220808344,36.836477073897655
0.7589738861223319,1.921409253374085,1701,-10,19.359000220808344,36.836477073897655
0.7781832753861208,1.9213900435686568,1701,-10,19.359000220808344,36.836477073897655
0.7973924575451731,1.9213708339729523,1701,-10,19.359000220808344,36.836477073897655
0.8166014337599916,1.9213516245856095,1701,-10,19.359000220808344,36.836477073897655
0.835810205101936,1.9213324154053713,1701,-10,19.359000220808344,36.836477073897655
0.8550187725600819,1.9213132064310774,1701,-10,19.359000220808344,36.836477073897655
0.8742271370475508,1.9212939976616563,1701,-10,19.359000220808344,36.836477073897655
0.8934352994073554,1.9212747890961193,1701,-10,19.359000220808344,36.836477073897655
0.9126432604177939,1.9212555807335525,1701,-10,19.359000220808344,36.836477073897655
0.9318510207974278,1.9212363725731136,1701,-10,19.359000220808344,36.836477073897655
0.9510585812096792,1.921217164614024,1701,-10,19.359000220808344,36.836477073897655
0.970265942267074,1.9211979568555653,1701,-10,19.359000220808344,36.836477073897655
0.9894731045351557,1.9211787492970738,1701,-10,19.359000220808344,36.836477073897655
1.0086800685361033,1.921159541937937,1701,-10,19.359000220808344,36.836477073897655
1.0278868347520649,1.9211403347775897,1701,-10,19.359000220808344,36.836477073897655
1.04709340362824,1.9211211278155096,1701,-10,19.359000220808344,36.836477073897655
1.0662997755757206,1.9211019210512144,1701,-10,19.359000220808344,36.836477073897655
1.0855059509741165,1.9210827144842588,1701,-10,19.359000220808344,36.836477073897655
1.1047119301739783,1.921063508114232,1701,-10,19.359000220808344,36.836477073897655
1.1239177134990312,1.9210443019407544,1701,-10,19.359000220808344,36.836477073897655
1.1431233012482411,1.9210250959634751,1701,-10,19.359000220808344,36.836477073897655
1.1623286936977184,1.9210058901820706,1701,-10,19.359000220808344,36.836477073897655
1.1815338911024758,1.920986684596242,1701,-10,19.359000220808344,36.836477073897655
1.200738893698054,1.9209674792057132,1701,-10,19.359000220808344,36.836477073897655
1.2199437017020183,1.920948274010229,1701,-10,19.359000220808344,36.836477073897655
1.2391483153153415,1.920929069009554,1701,-10,19.359000220808344,36.836477073897655
1.2583527347236807,1.9209098642034705,1701,-10,19.359000220808344,36.836477073897655
1.2775569600985557,1.9208906595917776,1701,-10,19.359000220808344,36.836477073897655
1.2967609915984384,1.9208714551742898,1701,-10,19.359000220808344,36.836477073897655
1.3159648293697541,1.9208522509508354,1701,-10,19.359000220808344,36.836477073897655
1.3351684735478095,1.920833046921256,1701,-10,19.359000220808344,36.836477073897655
1.3543719242576489,1.9208138430854051,1701,-10,19.359000220808344,36.836477073897655
1.373575181614843,1.9207946394431474,1701,-10,19.359000220808344,36.836477073897655
1.3927782457262172,1.9207754359943578,1701,-10,19.359000220808344,36.836477073897655
1.4119811166905265,1.9207562327389212,1701,-10,19.359000220808344,36.836477073897655
1.4311837945990746,1.92073702967673,1701,-10,19.359000220808344,36.836477073897655
1.4503862795362874,1.920717826807686,1701,-10,19.359000220808344,36.836477073897655
1.4695885715802435,1.920698624131698,1701,-10,19.359000220808344,36.836477073897655
1.4887906708031609,1.9206794216486809,1701,-10,19.359000220808344,36.836477073897655
1.507992577271849,1.9206602193585571,1701,-10,19.359000220808344,36.836477073897655
1.5271942910481247,1.9206410172612545,1701,-10,19.359000220808344,36.836477073897655
1.5463958121891952,1.920621815356706,1701,-10,19.359000220808344,36.836477073897655
1.565597140748015,1.92060261364485,1701,-10,19.359000220808344,36.836477073897655
1.5847982767736115,1.920583412125629,1701,-10,19.359000220808344,36.836477073897655
1.6039992203113866,1.9205642107989904,1701,-10,19.359000220808344,36.836477073897655
1.6231999714033982,1.920545009664885,1701,-10,19.359000220808344,36.836477073897655
1.642400530088615,1.9205258087232675,1701,-10,19.359000220808344,36.836477073897655
1.6616008964031546,1.9205066079740956,1701,-10,19.359000220808344,36.836477073897655
1.6808010703805034,1.9204874074173304,1701,-10,19.359000220808344,36.836477073897655
1.70000105205172,1.920468207052936,1701,-10,19.359000220808344,36.836477073897655
1.71920084144562,1.9204490068808786,1701,-10,19.359000220808344,36.836477073897655
1.7384004385889493,1.9204298069011274,1701,-10,19.359000220808344,36.836477073897655
1.757599843506544,1.9204106071136535,1701,-10,19.359000220808344,36.836477073897655
1.7767990562214777,1.9203914075184303,1701,-10,19.359000220808344,36.836477073897655
1.7959980767551948,1.9203722081154326,1701,-10,19.359000220808344,36.836477073897655
1.8151969051276384,1.9203530089046377,1701,-10,19.359000220808344,36.836477073897655
1.8343955413573643,1.9203338098860239,1701,-10,19.359000220808344,36.836477073897655
1.8535939854616483,1.9203146110595715,1701,-10,19.359000220808344,36.836477073897655
1.8727922374565846,1.9202954124252616,1701,-10,19.359000220808344,36.836477073897655
1.891990297357177,1.9202762139830771,1701,-10,19.359000220808344,36.836477073897655
1.9111881651774223,1.9202570157330021,1701,-10,19.359000220808344,36.836477073897655
1.930385840930388,1.9202378176750212,1701,-10,19.359000220808344,36.836477073897655
1.9495833246282837,1.920218619809121,1701,-10,19.359000220808344,36.836477073897655
1.9687806162825272,1.9201994221352878,1701,-10,19.359000220808344,36.836477073897655
1.987977715903806,1.9201802246535096,1701,-10,19.359000220808344,36.836477073897655
2.007174623502132,1.9201610273637753,1701,-10,19.359000220808344,36.836477073897655
2.0263713390868947,1.9201418302660735,1701,-10,19.359000220808344,36.836477073897655
2.045567862666909,1.9201226333603951,1701,-10,19.359000220808344,36.836477073897655
2.0647641942504595,1.92010343664673,1701,-10,19.359000220808344,36.836477073897655
2.0839603338453396,1.9200842401250697,1701,-10,19.359000220808344,36.836477073897655
2.1031562814588924,1.9200650437954059,1701,-10,19.359000220808344,36.836477073897655
2.1223520370980427,1.9200458476577305,1701,-10,19.359000220808344,36.836477073897655
2.1415476007693295,1.9200266517120366,1701,-10,19.359000220808344,36.836477073897655
2.1607429724789387,1.9200074559583171,1701,-10,19.359000220808344,36.836477073897655
2.1799381522327246,1.9199882603965654,1701,-10,19.359000220808344,36.836477073897655
2.199133140036241,1.9199690650267753,1701,-10,19.359000220808344,36.836477073897655
2.218327935894761,1.9199498698489412,1701,-10,19.359000220808344,36.836477073897655
2.2375225398132996,1.9199306748630571,1701,-10,19.359000220808344,36.836477073897655
2.256716951796634,1.9199114800691182,1701,-10,19.359000220808344,36.836477073897655
2.2759111718493217,1.9198922854671192,1701,-10,19.359000220808344,36.836477073897655
2.295105199975715,1.9198730910570552,1701,-10,19.359000220808344,36.836477073897655
2.3142990361799827,1.919853896838922,1701,-10,19.359000220808344,36.836477073897655
2.333492680466117,1.9198347028127152,1701,-10,19.359000220808344,36.836477073897655
2.3526861328379516,1.9198155089784301,1701,-10,19.359000220808344,36.836477073897655
2.3718793932991744,1.9197963153360635,1701,-10,19.359000220808344,36.836477073897655
2.3910724618533337,1.919777121885611,1701,-10,19.359000220808344,36.836477073897655
2.4102653385038564,1.9197579286270692,1701,-10,19.359000220808344,36.836477073897655
2.4294580232540506,1.9197387355604343,1701,-10,19.359000220808344,36.836477073897655
2.4486505161071173,1.9197195426857032,1701,-10,19.359000220808344,36.836477073897655
2.4678428170661615,1.9197003500028722,1701,-10,19.359000220808344,36.836477073897655
2.487034926134194,1.9196811575119386,1701,-10,19.359000220808344,36.836477073897655
2.5062268433141432,1.9196619652128988,1701,-10,19.359000220808344,36.836477073897655
2.5254185686088584,1.91964277310575,1701,-10,19.359000220808344,36.836477073897655
2.5446101020211187,1.9196235811904891,1701,-10,19.359000220808344,36.836477073897655
2.5638014435536354,1.9196043894671138,1701,-10,19.359000220808344,36.836477073897655
2.58299259320906,1.9195851979356207,1701,-10,19.359000220808344,36.836477073897655
2.602183550989989,1.9195660065960074,1701,-10,19.359000220808344,36.836477073897655
2.6213743168989625,1.919546815448271,1701,-10,19.359000220808344,36.836477073897655
2.6405648909384754,1.9195276244924093,1701,-10,19.359000220808344,36.836477073897655
2.6597552731109793,1.9195084337284194,1701,-10,19.359000220808344,36.836477073897655
2.678945463418882,1.9194892431562989,1701,-10,19.359000220808344,36.836477073897655
2.698135461864556,1.9194700527760455,1701,-10,19.359000220808344,36.836477073897655
2.717325268450338,1.9194508625876567,1701,-10,19.359000220808344,36.836477073897655
2.736514883178532,1.91943167259113,1701,-10,19.359000220808344,36.836477073897655
2.755704306051413,1.9194124827864634,1701,-10,19.359000220808344,36.836477073897655
2.774893537071226,1.9193932931736541,1701,-10,19.359000220808344,36.836477073897655
2.7940825762401946,1.9193741037527001,1701,-10,19.359000220808344,36.836477073897655
2.813271423560517,1.9193549145235993,1701,-10,19.359000220808344,36.836477073897655
2.8324600790343704,1.9193357254863492,1701,-10,19.359000220808344,36.836477073897655
2.8516485426639107,1.919316536640948,1701,-10,19.359000220808344,36.836477073897655
2.870836814451277,1.919297347987393,1701,-10,19.359000220808344,36.836477073897655
2.8900248943985907,1.9192781595256823,1701,-10,19.359000220808344,36.836477073897655
2.9092127825079577,1.919258971255814,1701,-10,19.359000220808344,36.836477073897655
2.9284004787814695,1.9192397831777854,1701,-10,19.359000220808344,36.836477073897655
2.9475879832212035,1.9192205952915948,1701,-10,19.359000220808344,36.836477073897655
2.9667752958292257,1.9192014075972401,1701,-10,19.359000220808344,36.836477073897655
2.985962416607591,1.919182220094719,1701,-10,19.359000220808344,36.836477073897655
3.005149345558342,1.9191630327840299,1701,-10,19.359000220808344,36.836477073897655
3.024336082683512,1.9191438456651704,1701,-10,19.359000220808344,36.836477073897655
3.0435226279851286,1.9191246587381383,1701,-10,19.359000220808344,36.836477073897655
3.062708981465207,1.919105472002932,1701,-10,19.359000220808344,36.836477073897655
3.081895143125756,1.919086285459549,1701,-10,19.359000220808344,36.836477073897655
3.101081112968779,1.9190670991079875,1701,-10,19.359000220808344,36.836477073897655
3.1202668909962705,1.9190479129482456,1701,-10,19.359000220808344,36.836477073897655
3.1394524772102215,1.9190287269803212,1701,-10,19.359000220808344,36.836477073897655
3.1586378716126142,1.9190095412042123,1701,-10,19.359000220808344,36.836477073897655
3.177823074205429,1.918990355619917,1701,-10,19.359000220808344,36.836477073897655
3.197008084990639,1.9189711702274332,1701,-10,19.359000220808344,36.836477073897655
3.2161929039702146,1.918951985026759,1701,-10,19.359000220808344,36.836477073897655
3.2353775311461215,1.9189328000178922,1701,-10,19.359000220808344,36.836477073897655
3.254561966520321,1.9189136152008313,1701,-10,19.359000220808344,36.836477073897655
3.2737462100947727,1.9188944305755737,1701,-10,19.359000220808344,36.836477073897655
3.2929302618714322,1.9188752461421181,1701,-10,19.359000220808344,36.836477073897655
3.3121141218522516,1.918856061900462,1701,-10,19.359000220808344,36.836477073897655
3.33129779003918,1.9188368778506038,1701,-10,19.359000220808344,36.836477073897655
3.3504812664341657,1.9188176939925414,1701,-10,19.359000220808344,36.836477073897655
3.3696645510391527,1.918798510326273,1701,-10,19.359000220808344,36.836477073897655
3.3888476438560846,1.9187793268517963,1701,-10,19.359000220808344,36.836477073897655
3.4080305448869015,1.9187601435691097,1701,-10,19.359000220808344,36.836477073897655
3.427213254133544,1.918740960478211,1701,-10,19.359000220808344,36.836477073897655
3.4463957715979476,1.9187217775790986,1701,-10,19.359000220808344,36.836477073897655
3.465578097282049,1.9187025948717702,1701,-10,19.359000220808344,36.836477073897655
3.4847602311877828,1.9186834123562242,1701,-10,19.359000220808344,36.836477073897655
3.5039421733170824,1.9186642300324583,1701,-10,19.359000220808344,36.836477073897655
3.5231239236718785,1.9186450479004709,1701,-10,19.359000220808344,36.836477073897655
3.5423054822541014,1.9186258659602597,1701,-10,19.359000220808344,36.836477073897655
3.561486849065682,1.9186066842118232,1701,-10,19.359000220808344,36.836477073897655
3.5806680241085482,1.918587502655159,1701,-10,19.359000220808344,36.836477073897655
3.599849007384629,1.9185683212902658,1701,-10,19.359000220808344,36.836477073897655
3.619029798895849,1.918549140117141,1701,-10,19.359000220808344,36.836477073897655
3.6382103986441368,1.9185299591357832,1701,-10,19.359000220808344,36.836477073897655
3.657390806631417,1.91851077834619,1701,-10,19.359000220808344,36.836477073897655
3.676571022859614,1.9184915977483599,1701,-10,19.359000220808344,36.836477073897655
3.6957510473306514,1.9184724173422907,1701,-10,19.359000220808344,36.836477073897655
3.714930880046454,1.9184532371279805,1701,-10,19.359000220808344,36.836477073897655
3.7341105210089447,1.9184340571054275,1701,-10,19.359000220808344,36.836477073897655
3.753289970220046,1.9184148772746297,1701,-10,19.359000220808344,36.836477073897655
3.7724692276816802,1.9183956976355852,1701,-10,19.359000220808344,36.836477073897655
3.791648293395769,1.9183765181882921,1701,-10,19.359000220808344,36.836477073897655
3.8108271673642324,1.9183573389327484,1701,-10,19.359000220808344,36.836477073897655
3.8300058495889937,1.9183381598689524,1701,-10,19.359000220808344,36.836477073897655
3.8491843400719716,1.9183189809969017,1701,-10,19.359000220808344,36.836477073897655
3.8683626388150887,1.918299802316595,1701,-10,19.359000220808344,36.836477073897655
3.8875407458202633,1.9182806238280299,1701,-10,19.359000220808344,36.836477073897655
3.9067186610894167,1.9182614455312046,1701,-10,19.359000220808344,36.836477073897655
3.9258963846244677,1.9182422674261173,1701,-10,19.359000220808344,36.836477073897655
3.945073916427335,1.9182230895127659,1701,-10,19.359000220808344,36.836477073897655
3.964251256499938,1.9182039117911487,1701,-10,19.359000220808344,36.836477073897655
3.983428404844197,1.9181847342612637,1701,-10,19.359000220808344,36.836477073897655
4.00260536146203,1.9181655569231089,1701,-10,19.359000220808344,36.836477073897655
4.021782126355355,1.9181463797766822,1701,-10,19.359000220808344,36.836477073897655
4.04095869952609,1.9181272028219822,1701,-10,19.359000220808344,36.836477073897655
4.060135080976155,1.9181080260590067,1701,-10,19.359000220808344,36.836477073897655
4.079311270707469,1.9180888494877535,1701,-10,19.359000220808344,36.836477073897655
4.098487268721947,1.9180696731082212,1701,-10,19.359000220808344,36.836477073897655
4.117663075021508,1.9180504969204075,1701,-10,19.359000220808344,36.836477073897655
4.136838689608072,1.9180313209243107,1701,-10,19.359000220808344,36.836477073897655
4.156014112483553,1.9180121451199288,1701,-10,19.359000220808344,36.836477073897655
4.175189343649872,1.9179929695072597,1701,-10,19.359000220808344,36.836477073897655
4.194364383108945,1.9179737940863018,1701,-10,19.359000220808344,36.836477073897655
4.21353923086269,1.917954618857053,1701,-10,19.359000220808344,36.836477073897655
4.232713886913023,1.9179354438195115,1701,-10,19.359000220808344,36.836477073897655
4.2518883512618615,1.9179162689736753,1701,-10,19.359000220808344,36.836477073897655
4.271062623911124,1.9178970943195426,1701,-10,19.359000220808344,36.836477073897655
4.2902367048627275,1.9178779198571112,1701,-10,19.359000220808344,36.836477073897655
4.309410594118589,1.9178587455863794,1701,-10,19.359000220808344,36.836477073897655
4.328584291680625,1.917839571507345,1701,-10,19.359000220808344,36.836477073897655
4.347757797550751,1.9178203976200068,1701,-10,19.359000220808344,36.836477073897655
4.366931111730887,1.917801223924362,1701,-10,19.359000220808344,36.836477073897655
4.386104234222947,1.9177820504204093,1701,-10,19.359000220808344,36.836477073897655
4.405277165028851,1.9177628771081465,1701,-10,19.359000220808344,36.836477073897655
4.424449904150512,1.917743703987572,1701,-10,19.359000220808344,36.836477073897655
4.4436224515898495,1.9177245310586832,1701,-10,19.359000220808344,36.836477073897655
4.462794807348778,1.917705358321479,1701,-10,19.359000220808344,36.836477073897655
