Vout,Iout,Irradiance,Temperature,MaxVoltage,MaxPower
0.009995453889866444,1.9991099999999997,1801,-20,18.630068132980114,36.897210144003445
0.029986176844196577,1.9991099999999997,1801,-20,18.630068132980114,36.897210144003445
0.049976493392143204,1.9990998046351098,1801,-20,18.630068132980114,36.897210144003445
0.06996633092934046,1.9990798139121555,1801,-20,18.630068132980114,36.897210144003445
0.08995566572742202,1.999059823596627,1801,-20,18.630068132980114,36.897210144003445
0.10994452109518604,1.999039833761089,1801,-20,18.630068132980114,36.897210144003445
0.12993291854883315,1.9990198444282898,1801,-20,18.630068132980114,36.897210144003445
0.14992087794944886,1.998999855574921,1801,-20,18.630068132980114,36.897210144003445
0.16990841763012934,1.9989798671794665,1801,-20,18.630068132980114,36.897210144003445
0.18989555451354714,1.9989598792220646,1801,-20,18.630068132980114,36.897210144003445
0.20988230422047155,1.9989398916843828,1801,-20,18.630068132980114,36.897210144003445
0.22986868116993894,1.9989199045494983,1801,-20,18.630068132980114,36.897210144003445
0.2498546986717161,1.99889991780179,1801,-20,18.630068132980114,36.897210144003445
0.2698403690116492,1.9988799314268393,1801,-20,18.630068132980114,36.897210144003445
0.28982570353044557,1.9988599454113363,1801,-20,18.630068132980114,36.897210144003445
0.3098107126963945,1.9988399597429949,1801,-20,18.630068132980114,36.897210144003445
0.3297954061724925,1.9988199744104747,1801,-20,18.630068132980114,36.897210144003445
0.3497797928784032,1.9987999894033073,1801,-20,18.630068132980114,36.897210144003445
0.36976388104765145,1.9987800047118298,1801,-20,18.630068132980114,36.897210144003445
0.38974767828041507,1.9987600203271223,1801,-20,18.630068132980114,36.897210144003445
0.40973119159225607,1.9987400362409515,1801,-20,18.630068132980114,36.897210144003445
0.42971442745910166,1.9987200524457174,1801,-20,18.630068132980114,36.897210144003445
0.44969739185876495,1.9987000689344039,1801,-20,18.630068132980114,36.897210144003445
0.46968009030927005,1.9986800857005353,1801,-20,18.630068132980114,36.897210144003445
0.4896625279042296,1.998660102738134,1801,-20,18.630068132980114,36.897210144003445
0.509644709345499,1.998640120041682,1801,-20,18.630068132980114,36.897210144003445
0.5296266389733194,1.9986201376060853,1801,-20,18.630068132980114,36.897210144003445
0.5496083207941405,1.9986001554266422,1801,-20,18.630068132980114,36.897210144003445
0.5695897585063032,1.9985801734990127,1801,-20,18.630068132980114,36.897210144003445
0.5895709555237459,1.99856019181919,1801,-20,18.630068132980114,36.897210144003445
0.6095519149978869,1.998540210383476,1801,-20,18.630068132980114,36.897210144003445
0.6295326398378229,1.9985202291884567,1801,-20,18.630068132980114,36.897210144003445
0.649513132728974,1.9985002482309808,1801,-20,18.630068132980114,36.897210144003445
0.6694933961502932,1.998480267508139,1801,-20,18.630068132980114,36.897210144003445
0.6894734323901528,1.9984602870172459,1801,-20,18.630068132980114,36.897210144003445
0.7094532435610079,1.9984403067558227,1801,-20,18.630068132980114,36.897210144003445
0.7294328316129313,1.9984203267215808,1801,-20,18.630068132980114,36.897210144003445
0.7494121983461083,1.998400346912408,1801,-20,18.630068132980114,36.897210144003445
0.769391345422368,1.998380367326354,1801,-20,18.630068132980114,36.897210144003445
0.78937027437583,1.998360387961619,1801,-20,18.630068132980114,36.897210144003445
0.8093489866227296,1.9983404088165406,1801,-20,18.630068132980114,36.897210144003445
0.8293274834704885,1.9983204298895851,1801,-20,18.630068132980114,36.897210144003445
0.8493057661260873,1.998300451179336,1801,-20,18.630068132980114,36.897210144003445
0.8692838357037924,1.9982804726844863,1801,-20,18.630068132980114,36.897210144003445
0.8892616932322913,1.9982604944038285,1801,-20,18.630068132980114,36.897210144003445
0.9092393396612758,1.9982405163362487,1801,-20,18.630068132980114,36.897210144003445
0.9292167758675206,1.998220538480718,1801,-20,18.630068132980114,36.897210144003445
0.9491940026604937,1.9982005608362867,1801,-20,18.630068132980114,36.897210144003445
0.9691710207875348,1.9981805834020783,1801,-20,18.630068132980114,36.897210144003445
0.9891478309386362,1.9981606061772832,1801,-20,18.630068132980114,36.897210144003445
1.0091244337508538,1.9981406291611539,1801,-20,18.630068132980114,36.897210144003445
1.0291008298123823,1.9981206523530004,1801,-20,18.630068132980114,36.897210144003445
1.0490770196663122,1.998100675752186,1801,-20,18.630068132980114,36.897210144003445
1.069053003814102,1.9980806993581222,1801,-20,18.630068132980114,36.897210144003445
1.0890287827187806,1.9980607231702658,1801,-20,18.630068132980114,36.897210144003445
1.1090043568079044,1.9980407471881156,1801,-20,18.630068132980114,36.897210144003445
1.128979726476287,1.9980207714112086,1801,-20,18.630068132980114,36.897210144003445
1.148954892088517,1.998000795839117,1801,-20,18.630068132980114,36.897210144003445
1.1689298539812853,1.9979808204714462,1801,-20,18.630068132980114,36.897210144003445
1.188904612465531,1.9979608453078317,1801,-20,18.630068132980114,36.897210144003445
1.208879167828422,1.9979408703479364,1801,-20,18.630068132980114,36.897210144003445
1.2288535203351856,1.9979208955914496,1801,-20,18.630068132980114,36.897210144003445
1.2488276702307948,1.9979009210380843,1801,-20,18.630068132980114,36.897210144003445
1.2688016177415276,1.9978809466875749,1801,-20,18.630068132980114,36.897210144003445
1.2887753630764063,1.9978609725396768,1801,-20,18.630068132980114,36.897210144003445
1.3087489064285234,1.9978409985941634,1801,-20,18.630068132980114,36.897210144003445
1.3287222479762681,1.9978210248508261,1801,-20,18.630068132980114,36.897210144003445
1.3486953878844592,1.9978010513094713,1801,-20,18.630068132980114,36.897210144003445
1.3686683263053852,1.997781077969921,1801,-20,18.630068132980114,36.897210144003445
1.3886410633797728,1.99776110483201,1801,-20,18.630068132980114,36.897210144003445
1.4086135992376738,1.9977411318955864,1801,-20,18.630068132980114,36.897210144003445
1.428585933999287,1.9977211591605095,1801,-20,18.630068132980114,36.897210144003445
1.4485580677757173,1.9977011866266488,1801,-20,18.630068132980114,36.897210144003445
1.4685300006696738,1.9976812142938845,1801,-20,18.630068132980114,36.897210144003445
1.4885017327761167,1.9976612421621054,1801,-20,18.630068132980114,36.897210144003445
1.5084732641828538,1.9976412702312085,1801,-20,18.630068132980114,36.897210144003445
1.52844459497109,1.9976212985010995,1801,-20,18.630068132980114,36.897210144003445
1.5484157252159363,1.99760132697169,1801,-20,18.630068132980114,36.897210144003445
1.5683866549868772,1.9975813556428987,1801,-20,18.630068132980114,36.897210144003445
1.5883573843482055,1.9975613845146512,1801,-20,18.630068132980114,36.897210144003445
1.6083279133594202,1.9975414135868772,1801,-20,18.630068132980114,36.897210144003445
1.6282982420755956,1.9975214428595132,1801,-20,18.630068132980114,36.897210144003445
1.6482683705477224,1.9975014723324989,1801,-20,18.630068132980114,36.897210144003445
1.6682382988230222,1.99748150200578,1801,-20,18.630068132980114,36.897210144003445
1.6882080269452369,1.9974615318793048,1801,-20,18.630068132980114,36.897210144003445
1.7081775549548948,1.9974415619530266,1801,-20,18.630068132980114,36.897210144003445
1.7281468828895603,1.9974215922269012,1801,-20,18.630068132980114,36.897210144003445
1.748116010784062,1.9974016227008886,1801,-20,18.630068132980114,36.897210144003445
1.7680849386707012,1.9973816533749509,1801,-20,18.630068132980114,36.897210144003445
1.7880536665794475,1.9973616842490534,1801,-20,18.630068132980114,36.897210144003445
1.8080221945381192,1.9973417153231636,1801,-20,18.630068132980114,36.897210144003445
1.8279905225725464,1.997321746597252,1801,-20,18.630068132980114,36.897210144003445
1.847958650706726,1.99730177807129,1801,-20,18.630068132980114,36.897210144003445
1.867926578962962,1.9972818097452525,1801,-20,18.630068132980114,36.897210144003445
1.8878943073619958,1.9972618416191152,1801,-20,18.630068132980114,36.897210144003445
1.9078618359231272,1.9972418736928559,1801,-20,18.630068132980114,36.897210144003445
1.927829164664323,1.9972219059664535,1801,-20,18.630068132980114,36.897210144003445
1.9477962936023228,1.9972019384398891,1801,-20,18.630068132980114,36.897210144003445
1.9677632227527309,1.9971819711131449,1801,-20,18.630068132980114,36.897210144003445
1.9877299521301042,1.9971620039862035,1801,-20,18.630068132980114,36.897210144003445
2.007696481748034,1.9971420370590498,1801,-20,18.630068132980114,36.897210144003445
2.0276628116192184,1.9971220703316692,1801,-20,18.630068132980114,36.897210144003445
2.047628941755534,1.997102103804048,1801,-20,18.630068132980114,36.897210144003445
2.0675948721680943,1.9970821374761734,1801,-20,18.630068132980114,36.897210144003445
2.087560602867313,1.9970621713480339,1801,-20,18.630068132980114,36.897210144003445
2.107526133862956,1.997042205419618,1801,-20,18.630068132980114,36.897210144003445
2.127491465164191,1.9970222396909152,1801,-20,18.630068132980114,36.897210144003445
2.147456596779634,1.9970022741619162,1801,-20,18.630068132980114,36.897210144003445
2.1674215287173912,1.9969823088326115,1801,-20,18.630068132980114,36.897210144003445
2.1873862609850994,1.9969623437029926,1801,-20,18.630068132980114,36.897210144003445
2.20735079358996,1.9969423787730514,1801,-20,18.630068132980114,36.897210144003445
2.227315126538776,1.9969224140427801,1801,-20,18.630068132980114,36.897210144003445
2.247279259837978,1.9969024495121719,1801,-20,18.630068132980114,36.897210144003445
2.267243193493657,1.9968824851812195,1801,-20,18.630068132980114,36.897210144003445
2.287206927511589,1.9968625210499167,1801,-20,18.630068132980114,36.897210144003445
2.3071704618972584,1.9968425571182575,1801,-20,18.630068132980114,36.897210144003445
2.32713379665588,1.996822593386236,1801,-20,18.630068132980114,36.897210144003445
2.347096931792423,1.9968026298538468,1801,-20,18.630068132980114,36.897210144003445
2.367059867311627,1.9967826665210846,1801,-20,18.630068132980114,36.897210144003445
2.3870226032180204,1.9967627033879443,1801,-20,18.630068132980114,36.897210144003445
2.406985139515936,1.9967427404544213,1801,-20,18.630068132980114,36.897210144003445
2.4269474762095276,1.9967227777205114,1801,-20,18.630068132980114,36.897210144003445
2.4469096133027826,1.9967028151862098,1801,-20,18.630068132980114,36.897210144003445
2.4668715507995356,1.9966828528515124,1801,-20,18.630068132980114,36.897210144003445
2.486833288703479,1.9966628907164155,1801,-20,18.630068132980114,36.897210144003445
2.5067948270181746,1.9966429287809149,1801,-20,18.630068132980114,36.897210144003445
2.5267561657470634,1.996622967045007,1801,-20,18.630068132980114,36.897210144003445
2.546717304893477,1.9966030055086887,1801,-20,18.630068132980114,36.897210144003445
2.5666782444606415,1.9965830441719559,1801,-20,18.630068132980114,36.897210144003445
2.5866389844516906,1.9965630830348058,1801,-20,18.630068132980114,36.897210144003445
2.606599524869668,1.9965431220972347,1801,-20,18.630068132980114,36.897210144003445
2.6265598657175393,1.9965231613592398,1801,-20,18.630068132980114,36.897210144003445
2.646520006998193,1.996503200820818,1801,-20,18.630068132980114,36.897210144003445
2.66647994871445,1.9964832404819661,1801,-20,18.630068132980114,36.897210144003445
2.6864396908690686,1.9964632803426814,1801,-20,18.630068132980114,36.897210144003445
2.706399233464747,1.9964433204029612,1801,-20,18.630068132980114,36.897210144003445
2.7263585765041296,1.9964233606628026,1801,-20,18.630068132980114,36.897210144003445
2.746317719989811,1.996403401122203,1801,-20,18.630068132980114,36.897210144003445
2.766276663924338,1.9963834417811595,1801,-20,18.630068132980114,36.897210144003445
2.786235408310218,1.99636348263967,1801,-20,18.630068132980114,36.897210144003445
2.806193953149918,1.9963435236977312,1801,-20,18.630068132980114,36.897210144003445
2.826152298445867,1.9963235649553412,1801,-20,18.630068132980114,36.897210144003445
2.846110444200462,1.9963036064124975,1801,-20,18.630068132980114,36.897210144003445
2.8660683904160673,1.9962836480691974,1801,-20,18.630068132980114,36.897210144003445
2.8860261370950213,1.9962636899254387,1801,-20,18.630068132980114,36.897210144003445
2.9059836842396347,1.9962437319812187,1801,-20,18.630068132980114,36.897210144003445
2.925941031852194,1.9962237742365356,1801,-20,18.630068132980114,36.897210144003445
2.945898179934964,1.996203816691387,1801,-20,18.630068132980114,36.897210144003445
2.9658551284901864,1.9961838593457701,1801,-20,18.630068132980114,36.897210144003445
2.985811877520087,1.996163902199683,1801,-20,18.630068132980114,36.897210144003445
3.0057684270268696,1.9961439452531236,1801,-20,18.630068132980114,36.897210144003445
3.025724777012727,1.9961239885060895,1801,-20,18.630068132980114,36.897210144003445
3.045680927479833,1.9961040319585783,1801,-20,18.630068132980114,36.897210144003445
3.065636878430349,1.9960840756105882,1801,-20,18.630068132980114,36.897210144003445
3.085592629866424,1.9960641194621167,1801,-20,18.630068132980114,36.897210144003445
3.105548181790195,1.9960441635131618,1801,-20,18.630068132980114,36.897210144003445
3.1255035342037853,1.9960242077637214,1801,-20,18.630068132980114,36.897210144003445
3.1454586871093126,1.996004252213793,1801,-20,18.630068132980114,36.897210144003445
3.165413640508881,1.9959842968633752,1801,-20,18.630068132980114,36.897210144003445
3.1853683944045907,1.9959643417124653,1801,-20,18.630068132980114,36.897210144003445
3.2053229487985293,1.9959443867610611,1801,-20,18.630068132980114,36.897210144003445
3.22527730369278,1.995924432009161,1801,-20,18.630068132980114,36.897210144003445
3.2452314590894176,1.9959044774567625,1801,-20,18.630068132980114,36.897210144003445
3.265185414990512,1.9958845231038638,1801,-20,18.630068132980114,36.897210144003445
3.2851391713981273,1.9958645689504626,1801,-20,18.630068132980114,36.897210144003445
3.305092728314319,1.995844614996557,1801,-20,18.630068132980114,36.897210144003445
3.3250460857411435,1.9958246612421446,1801,-20,18.630068132980114,36.897210144003445
3.3449992436806473,1.9958047076872238,1801,-20,18.630068132980114,36.897210144003445
3.364952202134876,1.9957847543317924,1801,-20,18.630068132980114,36.897210144003445
3.38490496110587,1.9957648011758482,1801,-20,18.630068132980114,36.897210144003445
3.4048575205956664,1.9957448482193894,1801,-20,18.630068132980114,36.897210144003445
3.4248098806062988,1.9957248954624138,1801,-20,18.630068132980114,36.897210144003445
3.4447620411397986,1.9957049429049192,1801,-20,18.630068132980114,36.897210144003445
3.464714002198192,1.9956849905469038,1801,-20,18.630068132980114,36.897210144003445
3.4846657637835063,1.9956650383883656,1801,-20,18.630068132980114,36.897210144003445
3.504617325897763,1.9956450864293025,1801,-20,18.630068132980114,36.897210144003445
3.524568688542983,1.9956251346697125,1801,-20,18.630068132980114,36.897210144003445
3.5445198517211853,1.9956051831095933,1801,-20,18.630068132980114,36.897210144003445
3.5644708154343863,1.9955852317489433,1801,-20,18.630068132980114,36.897210144003445
3.584421579684601,1.9955652805877602,1801,-20,18.630068132980114,36.897210144003445
3.604372144473843,1.9955453296260421,1801,-20,18.630068132980114,36.897210144003445
3.6243225098041223,1.995525378863787,1801,-20,18.630068132980114,36.897210144003445
3.6442726756774517,1.995505428300993,1801,-20,18.630068132980114,36.897210144003445
3.66422264209584,1.9954854779376576,1801,-20,18.630068132980114,36.897210144003445
3.6841724090612944,1.9954655277737794,1801,-20,18.630068132980114,36.897210144003445
3.704121976575822,1.995445577809356,1801,-20,18.630068132980114,36.897210144003445
3.724071344641429,1.9954256280443856,1801,-20,18.630068132980114,36.897210144003445
3.74402051326012,1.995405678478866,1801,-20,18.630068132980114,36.897210144003445
3.7639694824338985,1.9953857291127954,1801,-20,18.630068132980114,36.897210144003445
3.78391825216477,1.9953657799461717,1801,-20,18.630068132980114,36.897210144003445
3.803866822454735,1.9953458309789929,1801,-20,18.630068132980114,36.897210144003445
3.8238151933057964,1.995325882211257,1801,-20,18.630068132980114,36.897210144003445
3.843763364719955,1.995305933642962,1801,-20,18.630068132980114,36.897210144003445
3.863711336699212,1.9952859852741056,1801,-20,18.630068132980114,36.897210144003445
3.8836591092455652,1.9952660371046864,1801,-20,18.630068132980114,36.897210144003445
3.9036066823610174,1.995246089134702,1801,-20,18.630068132980114,36.897210144003445
3.923554056047567,1.9952261413641506,1801,-20,18.630068132980114,36.897210144003445
3.9435012303072114,1.9952061937930299,1801,-20,18.630068132980114,36.897210144003445
3.9634482051419506,1.9951862464213381,1801,-20,18.630068132980114,36.897210144003445
3.9833949805537805,1.995166299249073,1801,-20,18.630068132980114,36.897210144003445
4.003341556544701,1.9951463522762332,1801,-20,18.630068132980114,36.897210144003445
4.023287933116707,1.995126405502816,1801,-20,18.630068132980114,36.897210144003445
4.0432341102718,1.9951064589288199,1801,-20,18.630068132980114,36.897210144003445
4.063180088011971,1.9950865125542425,1801,-20,18.630068132980114,36.897210144003445
4.08312586633922,1.995066566379082,1801,-20,18.630068132980114,36.897210144003445
4.103071445255541,1.9950466204033366,1801,-20,18.630068132980114,36.897210144003445
4.123016824762933,1.9950266746270038,1801,-20,18.630068132980114,36.897210144003445
4.1429620048633895,1.9950067290500821,1801,-20,18.630068132980114,36.897210144003445
4.162906985558906,1.9949867836725694,1801,-20,18.630068132980114,36.897210144003445
4.18285176685148,1.9949668384944634,1801,-20,18.630068132980114,36.897210144003445
4.202796348743105,1.9949468935157624,1801,-20,18.630068132980114,36.897210144003445
4.2227407312357785,1.9949269487364645,1801,-20,18.630068132980114,36.897210144003445
4.242684914331493,1.9949070041565673,1801,-20,18.630068132980114,36.897210144003445
4.262628898032242,1.994887059776069,1801,-20,18.630068132980114,36.897210144003445
4.2825726823400245,1.9948671155949678,1801,-20,18.630068132980114,36.897210144003445
4.3025162672568324,1.9948471716132614,1801,-20,18.630068132980114,36.897210144003445
4.32245965278466,1.9948272278309482,1801,-20,18.630068132980114,36.897210144003445
4.342402838925504,1.9948072842480258,1801,-20,18.630068132980114,36.897210144003445
4.3623458256813565,1.9947873408644923,1801,-20,18.630068132980114,36.897210144003445
4.382288613054214,1.9947673976803457,1801,-20,18.630068132980114,36.897210144003445
4.402231201046067,1.9947474546955843,1801,-20,18.630068132980114,36.897210144003445
4.422173589658912,1.9947275119102057,1801,-20,18.630068132980114,36.897210144003445
4.442115778894743,1.9947075693242082,1801,-20,18.630068132980114,36.897210144003445
4.462057768755554,1.9946876269375897,1801,-20,18.630068132980114,36.897210144003445
4.481999559243337,1.994667684750348,1801,-20,18.630068132980114,36.897210144003445
4.5019411503600875,1.9946477427624816,1801,-20,18.630068132980114,36.897210144003445
4.521882542107799,1.994627800973988,1801,-20,18.630068132980114,36.897210144003445
4.5418237344884655,1.9946078593848653,1801,-20,18.630068132980114,36.897210144003445
4.56176472750408,1.9945879179951118,1801,-20,18.630068132980114,36.897210144003445
4.581705521156637,1.9945679768047253,1801,-20,18.630068132980114,36.897210144003445
4.601646115448129,1.9945480358137038,1801,-20,18.630068132980114,36.897210144003445
4.621586510380549,1.9945280950220454,1801,-20,18.630068132980114,36.897210144003445
4.641526705955892,1.994508154429748,1801,-20,18.630068132980114,36.897210144003445
