Vout,Iout,Irradiance,Temperature,MaxVoltage,MaxPower
0.004525606484553033,0.9051299999999999,801,-10,19.350080496108617,17.140253752988198
0.01357673577091188,0.9051299999999999,801,-10,19.350080496108617,17.140253752988198
0.022627681050082574,0.9051253838805153,801,-10,19.350080496108617,17.140253752988198
0.031678409449241884,0.9051163327512289,801,-10,19.350080496108617,17.140253752988198
0.04072891022498086,0.9051072818064114,801,-10,19.350080496108617,17.140253752988198
0.04977919393074205,0.9050982310789174,801,-10,19.350080496108617,17.140253752988198
0.058829270308339884,0.9050891805790467,801,-10,19.350080496108617,17.140253752988198
0.06787914835020817,0.905080130296246,801,-10,19.350080496108617,17.140253752988198
0.07692883635695832,0.9050710802207734,801,-10,19.350080496108617,17.140253752988198
0.0859783419906093,0.9050620303436366,801,-10,19.350080496108617,17.140253752988198
0.09502767232372178,0.9050529806565349,801,-10,19.350080496108617,17.140253752988198
0.10407683388475217,0.9050439311518063,801,-10,19.350080496108617,17.140253752988198
0.11312583269991669,0.9050348818223781,801,-10,19.350080496108617,17.140253752988198
0.12217467433183468,0.905025832661722,801,-10,19.350080496108617,17.140253752988198
0.13122336391519837,0.9050167836638118,801,-10,19.350080496108617,17.140253752988198
0.14027190618969823,0.9050077348230848,801,-10,19.350080496108617,17.140253752988198
0.14932030553041512,0.9049986861344063,801,-10,19.350080496108617,17.140253752988198
0.15836856597587382,0.9049896375930367,801,-10,19.350080496108617,17.140253752988198
0.16741669125393838,0.9049805891946009,801,-10,19.350080496108617,17.140253752988198
0.1764646848057146,0.9049715409350603,801,-10,19.350080496108617,17.140253752988198
0.18551254980761378,0.904962492810687,801,-10,19.350080496108617,17.140253752988198
0.19456028919171872,0.9049534448180401,801,-10,19.350080496108617,17.140253752988198
0.20360790566458276,0.904944396953943,801,-10,19.350080496108617,17.140253752988198
0.2126554017245823,0.9049353492154637,801,-10,19.350080496108617,17.140253752988198
0.22170277967793436,0.9049263015998956,801,-10,19.350080496108617,17.140253752988198
0.2307500416534816,0.9049172541047403,801,-10,19.350080496108617,17.140253752988198
0.2397971896163396,0.9049082067276918,801,-10,19.350080496108617,17.140253752988198
0.24884422538049453,0.904899159466621,801,-10,19.350080496108617,17.140253752988198
0.2578911506204313,0.9048901123195628,801,-10,19.350080496108617,17.140253752988198
0.2669379668818666,0.9048810652847035,801,-10,19.350080496108617,17.140253752988198
0.27598467559165707,0.9048720183603682,801,-10,19.350080496108617,17.140253752988198
0.28503127806694417,0.9048629715450115,801,-10,19.350080496108617,17.140253752988198
0.2940777755235962,0.9048539248372064,801,-10,19.350080496108617,17.140253752988198
0.3031241690839998,0.9048448782356358,801,-10,19.350080496108617,17.140253752988198
0.3121704597842535,0.9048358317390838,801,-10,19.350080496108617,17.140253752988198
0.32121664858080606,0.904826785346428,801,-10,19.350080496108617,17.140253752988198
0.33026273635658504,0.9048177390566324,801,-10,19.350080496108617,17.140253752988198
0.3393087239266539,0.9048086928687405,801,-10,19.350080496108617,17.140253752988198
0.3483546120434333,0.9047996467818694,801,-10,19.350080496108617,17.140253752988198
0.3574004014015212,0.9047906007952039,801,-10,19.350080496108617,17.140253752988198
0.36644609264214134,0.9047815549079917,801,-10,19.350080496108617,17.140253752988198
0.37549168635725066,0.9047725091195383,801,-10,19.350080496108617,17.140253752988198
0.38453718309332935,0.9047634634292022,801,-10,19.350080496108617,17.140253752988198
0.3935825833548799,0.9047544178363918,801,-10,19.350080496108617,17.140253752988198
0.4026278876076575,0.9047453723405602,801,-10,19.350080496108617,17.140253752988198
0.41167309628165083,0.9047363269412032,801,-10,19.350080496108617,17.140253752988198
0.42071820977383406,0.904727281637855,801,-10,19.350080496108617,17.140253752988198
0.4297632284507072,0.9047182364300855,801,-10,19.350080496108617,17.140253752988198
0.4388081526506405,0.9047091913174978,801,-10,19.350080496108617,17.140253752988198
0.4478529826860394,0.9047001462997255,801,-10,19.350080496108617,17.140253752988198
0.4568977188453417,0.9046911013764302,801,-10,19.350080496108617,17.140253752988198
0.46594236139486184,0.9046820565472992,801,-10,19.350080496108617,17.140253752988198
0.4749869105804932,0.9046730118120444,801,-10,19.350080496108617,17.140253752988198
0.4840313666292794,0.9046639671703993,801,-10,19.350080496108617,17.140253752988198
0.49307572975086444,0.9046549226221182,801,-10,19.350080496108617,17.140253752988198
0.5021200001388314,0.9046458781669738,801,-10,19.350080496108617,17.140253752988198
0.5111641779719386,0.9046368338047568,801,-10,19.350080496108617,17.140253752988198
0.5202082634152597,0.9046277895352732,801,-10,19.350080496108617,17.140253752988198
0.5292522566212371,0.9046187453583445,801,-10,19.350080496108617,17.140253752988198
0.5382961577306533,0.9046097012738057,801,-10,19.350080496108617,17.140253752988198
0.5473399668735288,0.9046006572815041,801,-10,19.350080496108617,17.140253752988198
0.556383684169949,0.9045916133812991,801,-10,19.350080496108617,17.140253752988198
0.5654273097308298,0.9045825695730606,801,-10,19.350080496108617,17.140253752988198
0.5744708436586227,0.9045735258566686,801,-10,19.350080496108617,17.140253752988198
0.5835142860479653,0.9045644822320121,801,-10,19.350080496108617,17.140253752988198
0.5925576369862835,0.9045554386989887,801,-10,19.350080496108617,17.140253752988198
0.6016008965543467,0.9045463952575037,801,-10,19.350080496108617,17.140253752988198
0.6106440648267781,0.9045373519074698,801,-10,19.350080496108617,17.140253752988198
0.6196871418725299,0.904528308648806,801,-10,19.350080496108617,17.140253752988198
0.6287301277553179,0.9045192654814379,801,-10,19.350080496108617,17.140253752988198
0.6377730225340252,0.9045102224052964,801,-10,19.350080496108617,17.140253752988198
0.6468158262630744,0.904501179420318,801,-10,19.350080496108617,17.140253752988198
0.6558585389927692,0.9044921365264437,801,-10,19.350080496108617,17.140253752988198
0.6649011607696133,0.9044830937236189,801,-10,19.350080496108617,17.140253752988198
0.6739436916366016,0.9044740510117935,801,-10,19.350080496108617,17.140253752988198
0.6829861316334903,0.9044650083909209,801,-10,19.350080496108617,17.140253752988198
0.692028480797046,0.9044559658609582,801,-10,19.350080496108617,17.140253752988198
0.701070739161277,0.9044469234218655,801,-10,19.350080496108617,17.140253752988198
0.7101129067576434,0.9044378810736062,801,-10,19.350080496108617,17.140253752988198
0.7191549836152547,0.9044288388161462,801,-10,19.350080496108617,17.140253752988198
0.7281969697610499,0.9044197966494542,801,-10,19.350080496108617,17.140253752988198
0.7372388652199648,0.9044107545735007,801,-10,19.350080496108617,17.140253752988198
0.7462806700150868,0.9044017125882592,801,-10,19.350080496108617,17.140253752988198
0.7553223841677961,0.9043926706937044,801,-10,19.350080496108617,17.140253752988198
0.7643640076978967,0.9043836288898135,801,-10,19.350080496108617,17.140253752988198
0.7734055406237393,0.904374587176565,801,-10,19.350080496108617,17.140253752988198
0.7824469829623321,0.9043655455539391,801,-10,19.350080496108617,17.140253752988198
0.7914883347294437,0.9043565040219175,801,-10,19.350080496108617,17.140253752988198
0.800529595939699,0.904347462580483,801,-10,19.350080496108617,17.140253752988198
0.8095707666066678,0.90433842122962,801,-10,19.350080496108617,17.140253752988198
0.8186118467429446,0.904329379969314,801,-10,19.350080496108617,17.140253752988198
0.8276528363602248,0.9043203387995511,801,-10,19.350080496108617,17.140253752988198
0.8366937354693733,0.9043112977203189,801,-10,19.350080496108617,17.140253752988198
0.8457345440804886,0.9043022567316058,801,-10,19.350080496108617,17.140253752988198
0.8547752622029621,0.9042932158334007,801,-10,19.350080496108617,17.140253752988198
0.8638158898455314,0.9042841750256937,801,-10,19.350080496108617,17.140253752988198
0.8728564270163316,0.9042751343084753,801,-10,19.350080496108617,17.140253752988198
0.881896873722942,0.9042660936817368,801,-10,19.350080496108617,17.140253752988198
0.8909372299724272,0.9042570531454701,801,-10,19.350080496108617,17.140253752988198
0.8999774957713786,0.9042480126996676,801,-10,19.350080496108617,17.140253752988198
0.9090176711259498,0.9042389723443222,801,-10,19.350080496108617,17.140253752988198
0.9180577560418901,0.9042299320794273,801,-10,19.350080496108617,17.140253752988198
0.9270977505245764,0.9042208919049767,801,-10,19.350080496108617,17.140253752988198
0.9361376545790409,0.9042118518209648,801,-10,19.350080496108617,17.140253752988198
0.9451774682099985,0.9042028118273862,801,-10,19.350080496108617,17.140253752988198
0.954217191421871,0.9041937719242357,801,-10,19.350080496108617,17.140253752988198
0.9632568242188092,0.9041847321115087,801,-10,19.350080496108617,17.140253752988198
0.9722963666047136,0.9041756923892008,801,-10,19.350080496108617,17.140253752988198
0.9813358185832551,0.9041666527573079,801,-10,19.350080496108617,17.140253752988198
0.990375180157891,0.9041576132158259,801,-10,19.350080496108617,17.140253752988198
0.9994144513318824,0.9041485737647513,801,-10,19.350080496108617,17.140253752988198
1.0084536321083084,0.9041395344040807,801,-10,19.350080496108617,17.140253752988198
1.0174927224900818,0.9041304951338106,801,-10,19.350080496108617,17.140253752988198
1.0265317224799597,0.9041214559539381,801,-10,19.350080496108617,17.140253752988198
1.0355706320805576,0.9041124168644603,801,-10,19.350080496108617,17.140253752988198
1.0446094512943576,0.9041033778653743,801,-10,19.350080496108617,17.140253752988198
1.0536481801237223,0.9040943389566777,801,-10,19.350080496108617,17.140253752988198
1.062686818570901,0.9040853001383677,801,-10,19.350080496108617,17.140253752988198
1.0717253666380397,0.9040762614104423,801,-10,19.350080496108617,17.140253752988198
1.080763824327188,0.904067222772899,801,-10,19.350080496108617,17.140253752988198
1.089802191640309,0.9040581842257357,801,-10,19.350080496108617,17.140253752988198
1.0988404685792819,0.9040491457689505,801,-10,19.350080496108617,17.140253752988198
1.1078786551459132,0.9040401074025411,801,-10,19.350080496108617,17.140253752988198
1.1169167513419385,0.904031069126506,801,-10,19.350080496108617,17.140253752988198
1.1259547571690298,0.9040220309408432,801,-10,19.350080496108617,17.140253752988198
1.1349926726287995,0.904012992845551,801,-10,19.350080496108617,17.140253752988198
1.1440304977228062,0.9040039548406278,801,-10,19.350080496108617,17.140253752988198
1.1530682324525574,0.9039949169260718,801,-10,19.350080496108617,17.140253752988198
1.1621058768195147,0.9039858791018816,801,-10,19.350080496108617,17.140253752988198
1.1711434308250963,0.9039768413680557,801,-10,19.350080496108617,17.140253752988198
1.1801808944706804,0.9039678037245924,801,-10,19.350080496108617,17.140253752988198
1.18921826775761,0.9039587661714906,801,-10,19.350080496108617,17.140253752988198
1.1982555506871926,0.9039497287087488,801,-10,19.350080496108617,17.140253752988198
1.207292743260706,0.9039406913363657,801,-10,19.350080496108617,17.140253752988198
1.2163298454793983,0.9039316540543398,801,-10,19.350080496108617,17.140253752988198
1.2253668573444916,0.9039226168626701,801,-10,19.350080496108617,17.140253752988198
1.2344037788571827,0.9039135797613551,801,-10,19.350080496108617,17.140253752988198
1.2434406100186466,0.9039045427503937,801,-10,19.350080496108617,17.140253752988198
1.2524773508300375,0.9038955058297847,801,-10,19.350080496108617,17.140253752988198
1.2615140012924895,0.903886468999527,801,-10,19.350080496108617,17.140253752988198
1.2705505614071189,0.9038774322596193,801,-10,19.350080496108617,17.140253752988198
1.2795870311750266,0.9038683956100605,801,-10,19.350080496108617,17.140253752988198
1.2886234105972973,0.9038593590508496,801,-10,19.350080496108617,17.140253752988198
1.297659699675003,0.9038503225819853,801,-10,19.350080496108617,17.140253752988198
1.306695898409201,0.9038412862034667,801,-10,19.350080496108617,17.140253752988198
1.3157320068009375,0.9038322499152927,801,-10,19.350080496108617,17.140253752988198
1.3247680248512481,0.9038232137174621,801,-10,19.350080496108617,17.140253752988198
1.3338039525611576,0.903814177609974,801,-10,19.350080496108617,17.140253752988198
1.342839789931682,0.9038051415928272,801,-10,19.350080496108617,17.140253752988198
1.3518755369638278,0.903796105666021,801,-10,19.350080496108617,17.140253752988198
1.3609111936585945,0.903787069829554,801,-10,19.350080496108617,17.140253752988198
1.3699467600169735,0.9037780340834255,801,-10,19.350080496108617,17.140253752988198
1.3789822360399497,0.9037689984276343,801,-10,19.350080496108617,17.140253752988198
1.3880176217285014,0.9037599628621795,801,-10,19.350080496108617,17.140253752988198
1.3970529170836021,0.9037509273870601,801,-10,19.350080496108617,17.140253752988198
1.406088122106218,0.9037418920022751,801,-10,19.350080496108617,17.140253752988198
1.4151232367973126,0.9037328567078236,801,-10,19.350080496108617,17.140253752988198
1.424158261157843,0.9037238215037044,801,-10,19.350080496108617,17.140253752988198
1.4331931951887629,0.9037147863899169,801,-10,19.350080496108617,17.140253752988198
1.442228038891022,0.9037057513664599,801,-10,19.350080496108617,17.140253752988198
1.4512627922655663,0.9036967164333325,801,-10,19.350080496108617,17.140253752988198
1.460297455313339,0.9036876815905337,801,-10,19.350080496108617,17.140253752988198
1.4693320280352797,0.9036786468380626,801,-10,19.350080496108617,17.140253752988198
1.4783665104323251,0.9036696121759183,801,-10,19.350080496108617,17.140253752988198
1.48740090250541,0.9036605776040999,801,-10,19.350080496108617,17.140253752988198
1.4964352042554654,0.9036515431226063,801,-10,19.350080496108617,17.140253752988198
1.5054694156834212,0.9036425087314367,801,-10,19.350080496108617,17.140253752988198
1.5145035367902053,0.9036334744305901,801,-10,19.350080496108617,17.140253752988198
1.523537567576744,0.9036244402200656,801,-10,19.350080496108617,17.140253752988198
1.5325715080439601,0.9036154060998622,801,-10,19.350080496108617,17.140253752988198
1.541605358192776,0.9036063720699791,801,-10,19.350080496108617,17.140253752988198
1.5506391180241128,0.9035973381304153,801,-10,19.350080496108617,17.140253752988198
1.55967278753889,0.9035883042811699,801,-10,19.350080496108617,17.140253752988198
1.5687063667380257,0.903579270522242,801,-10,19.350080496108617,17.140253752988198
1.5777398556224365,0.9035702368536306,801,-10,19.350080496108617,17.140253752988198
1.5867732541930393,0.9035612032753348,801,-10,19.350080496108617,17.140253752988198
1.5958065624507476,0.9035521697873538,801,-10,19.350080496108617,17.140253752988198
1.6048397803964765,0.9035431363896865,801,-10,19.350080496108617,17.140253752988198
1.613872908031139,0.9035341030823322,801,-10,19.350080496108617,17.140253752988198
1.6229059453556467,0.9035250698652898,801,-10,19.350080496108617,17.140253752988198
1.6319388923709115,0.9035160367385584,801,-10,19.350080496108617,17.140253752988198
1.6409717490778444,0.9035070037021372,801,-10,19.350080496108617,17.140253752988198
1.6500045154773555,0.9034979707560253,801,-10,19.350080496108617,17.140253752988198
1.6590371915703543,0.9034889379002217,801,-10,19.350080496108617,17.140253752988198
1.6680697773577504,0.9034799051347254,801,-10,19.350080496108617,17.140253752988198
1.677102272840453,0.9034708724595357,801,-10,19.350080496108617,17.140253752988198
1.6861346780193687,0.9034618398746516,801,-10,19.350080496108617,17.140253752988198
1.6951669928954065,0.9034528073800722,801,-10,19.350080496108617,17.140253752988198
1.7041992174694733,0.9034437749757965,801,-10,19.350080496108617,17.140253752988198
1.7132313517424766,0.9034347426618238,801,-10,19.350080496108617,17.140253752988198
1.7222633957153224,0.9034257104381529,801,-10,19.350080496108617,17.140253752988198
1.7312953493889176,0.9034166783047831,801,-10,19.350080496108617,17.140253752988198
1.7403272127641682,0.9034076462617135,801,-10,19.350080496108617,17.140253752988198
1.7493589858419802,0.9033986143089431,801,-10,19.350080496108617,17.140253752988198
1.7583906686232589,0.903389582446471,801,-10,19.350080496108617,17.140253752988198
1.7674222611089097,0.9033805506742965,801,-10,19.350080496108617,17.140253752988198
1.7764537632998376,0.9033715189924184,801,-10,19.350080496108617,17.140253752988198
1.785485175196948,0.9033624874008359,801,-10,19.350080496108617,17.140253752988198
1.7945164968011456,0.9033534558995482,801,-10,19.350080496108617,17.140253752988198
1.8035477281133343,0.9033444244885542,801,-10,19.350080496108617,17.140253752988198
1.8125788691344196,0.9033353931678532,801,-10,19.350080496108617,17.140253752988198
1.8216099198653053,0.9033263619374441,801,-10,19.350080496108617,17.140253752988198
1.8306408803068954,0.9033173307973261,801,-10,19.350080496108617,17.140253752988198
1.8396717504600941,0.9033082997474984,801,-10,19.350080496108617,17.140253752988198
1.8487025303258058,0.9032992687879599,801,-10,19.350080496108617,17.140253752988198
1.8577332199049337,0.9032902379187098,801,-10,19.350080496108617,17.140253752988198
1.8667638191983817,0.9032812071397472,801,-10,19.350080496108617,17.140253752988198
1.8757943282070542,0.9032721764510712,801,-10,19.350080496108617,17.140253752988198
1.8848247469318538,0.9032631458526807,801,-10,19.350080496108617,17.140253752988198
1.8938550753736838,0.9032541153445752,801,-10,19.350080496108617,17.140253752988198
1.9028853135334483,0.9032450849267535,801,-10,19.350080496108617,17.140253752988198
1.9119154614120508,0.9032360545992146,801,-10,19.350080496108617,17.140253752988198
1.920945519010394,0.9032270243619579,801,-10,19.350080496108617,17.140253752988198
1.9299754863293812,0.9032179942149824,801,-10,19.350080496108617,17.140253752988198
1.9390053633699151,0.903208964158287,801,-10,19.350080496108617,17.140253752988198
1.9480351501328996,0.9031999341918711,801,-10,19.350080496108617,17.140253752988198
1.957064846619238,0.9031909043157336,801,-10,19.350080496108617,17.140253752988198
1.9660944528298323,0.9031818745298735,801,-10,19.350080496108617,17.140253752988198
1.9751239687655862,0.9031728448342902,801,-10,19.350080496108617,17.140253752988198
1.9841533944274021,0.9031638152289826,801,-10,19.350080496108617,17.140253752988198
1.9931827298161833,0.9031547857139498,801,-10,19.350080496108617,17.140253752988198
2.0022119749328326,0.9031457562891909,801,-10,19.350080496108617,17.140253752988198
2.0112411297782526,0.9031367269547051,801,-10,19.350080496108617,17.140253752988198
2.0202701943533463,0.9031276977104914,801,-10,19.350080496108617,17.140253752988198
2.0292991686590165,0.9031186685565489,801,-10,19.350080496108617,17.140253752988198
2.038328052696165,0.9031096394928768,801,-10,19.350080496108617,17.140253752988198
2.0473568464656955,0.903100610519474,801,-10,19.350080496108617,17.140253752988198
2.0563855499685104,0.9030915816363397,801,-10,19.350080496108617,17.140253752988198
2.0654141632055127,0.9030825528434732,801,-10,19.350080496108617,17.140253752988198
2.0744426861776044,0.9030735241408732,801,-10,19.350080496108617,17.140253752988198
2.0834711188856887,0.9030644955285391,801,-10,19.350080496108617,17.140253752988198
2.092499461330667,0.9030554670064699,801,-10,19.350080496108617,17.140253752988198
2.101527713513444,0.9030464385746646,801,-10,19.350080496108617,17.140253752988198
2.11055587543492,0.9030374102331226,801,-10,19.350080496108617,17.140253752988198
