Vout,Iout,Irradiance,Temperature,MaxVoltage,MaxPower
0.003925562254209094,0.7851199999999999,701,-15,18.98593441576808,14.546060519629869
0.011776614175265803,0.7851199999999999,701,-15,18.98593441576808,14.546060519629869
0.019627506486406182,0.7851159959257458,701,-15,18.98593441576808,14.546060519629869
0.027478210673371535,0.7851081448738246,701,-15,18.98593441576808,14.546060519629869
0.03532871741720744,0.7851002939819139,701,-15,18.98593441576808,14.546060519629869
0.04317903587208932,0.785092443278512,701,-15,18.98593441576808,14.546060519629869
0.05102917448817718,0.7850845927725533,701,-15,18.98593441576808,14.546060519629869
0.058879141065609875,0.7850767424548835,701,-15,18.98593441576808,14.546060519629869
0.06672894280443158,0.7850688923170525,701,-15,18.98593441576808,14.546060519629869
0.07457858635076417,0.7850610423512601,701,-15,18.98593441576808,14.546060519629869
0.08242807783942686,0.7850531925503063,701,-15,18.98593441576808,14.546060519629869
0.09027742293327654,0.7850453429075449,701,-15,18.98593441576808,14.546060519629869
0.09812662685952135,0.7850374934168413,701,-15,18.98593441576808,14.546060519629869
0.10597569444324025,0.7850296440725324,701,-15,18.98593441576808,14.546060519629869
0.11382463013832325,0.785021794869391,701,-15,18.98593441576808,14.546060519629869
0.12167343805603158,0.7850139458025923,701,-15,18.98593441576808,14.546060519629869
0.1295221219913598,0.7850060968676821,701,-15,18.98593441576808,14.546060519629869
0.13737068544737008,0.7849982480605493,701,-15,18.98593441576808,14.546060519629869
0.14521913165765374,0.7849903993773989,701,-15,18.98593441576808,14.546060519629869
0.1530674636070649,0.7849825508147278,701,-15,18.98593441576808,14.546060519629869
0.16091568405085874,0.7849747023693023,701,-15,18.98593441576808,14.546060519629869
0.1687637955323569,0.7849668540381378,701,-15,18.98593441576808,14.546060519629869
0.17661180039925448,0.7849590058184789,701,-15,18.98593441576808,14.546060519629869
0.1844597008186714,0.7849511577077821,701,-15,18.98593441576808,14.546060519629869
0.19230749879104642,0.7849433097037001,701,-15,18.98593441576808,14.546060519629869
0.20015519616296168,0.7849354618040655,701,-15,18.98593441576808,14.546060519629869
0.20800279463898066,0.7849276140068779,701,-15,18.98593441576808,14.546060519629869
0.21585029579257556,0.7849197663102908,701,-15,18.98593441576808,14.546060519629869
0.22369770107621334,0.7849119187125996,701,-15,18.98593441576808,14.546060519629869
0.23154501183066642,0.7849040712122307,701,-15,18.98593441576808,14.546060519629869
0.23939222929360623,0.7848962238077318,701,-15,18.98593441576808,14.546060519629869
0.24723935460753615,0.7848883764977621,701,-15,18.98593441576808,14.546060519629869
0.25508638882711415,0.784880529281084,701,-15,18.98593441576808,14.546060519629869
0.2629333329259112,0.7848726821565547,701,-15,18.98593441576808,14.546060519629869
0.2707801878026506,0.7848648351231199,701,-15,18.98593441576808,14.546060519629869
0.27862695428696704,0.7848569881798058,701,-15,18.98593441576808,14.546060519629869
0.28647363314472185,0.7848491413257138,701,-15,18.98593441576808,14.546060519629869
0.2943202250829102,0.7848412945600142,701,-15,18.98593441576808,14.546060519629869
0.3021667307541904,0.7848334478819411,701,-15,18.98593441576808,14.546060519629869
0.31001315076106445,0.7848256012907876,701,-15,18.98593441576808,14.546060519629869
0.31785948565973726,0.784817754785901,701,-15,18.98593441576808,14.546060519629869
0.3257057359636788,0.7848099083666787,701,-15,18.98593441576808,14.546060519629869
0.3335519021469122,0.7848020620325648,701,-15,18.98593441576808,14.546060519629869
0.3413979846470487,0.7847942157830454,701,-15,18.98593441576808,14.546060519629869
0.34924398386808964,0.7847863696176468,701,-15,18.98593441576808,14.546060519629869
0.3570899001830119,0.7847785235359312,701,-15,18.98593441576808,14.546060519629869
0.36493573393615547,0.7847706775374949,701,-15,18.98593441576808,14.546060519629869
0.3727814854454266,0.7847628316219646,701,-15,18.98593441576808,14.546060519629869
0.3806271550043316,0.784754985788996,701,-15,18.98593441576808,14.546060519629869
0.38847274288385425,0.7847471400382713,701,-15,18.98593441576808,14.546060519629869
0.39631824933418885,0.784739294369497,701,-15,18.98593441576808,14.546060519629869
0.40416367458633967,0.7847314487824021,701,-15,18.98593441576808,14.546060519629869
0.4120090188535973,0.7847236032767363,701,-15,18.98593441576808,14.546060519629869
0.419854282332902,0.7847157578522687,701,-15,18.98593441576808,14.546060519629869
0.42769946520610125,0.784707912508786,701,-15,18.98593441576808,14.546060519629869
0.43554456764111127,0.7847000672460912,701,-15,18.98593441576808,14.546060519629869
0.44338958979298904,0.7846922220640026,701,-15,18.98593441576808,14.546060519629869
0.4512345318049214,0.784684376962352,701,-15,18.98593441576808,14.546060519629869
0.4590793938091385,0.7846765319409847,701,-15,18.98593441576808,14.546060519629869
0.4669241759277567,0.7846686869997573,701,-15,18.98593441576808,14.546060519629869
0.47476887827355707,0.7846608421385376,701,-15,18.98593441576808,14.546060519629869
0.48261350095070343,0.7846529973572035,701,-15,18.98593441576808,14.546060519629869
0.49045804405540516,0.7846451526556422,701,-15,18.98593441576808,14.546060519629869
0.49830250767653,0.7846373080337495,701,-15,18.98593441576808,14.546060519629869
0.5061468918961678,0.7846294634914293,701,-15,18.98593441576808,14.546060519629869
0.5139911967901525,0.7846216190285926,701,-15,18.98593441576808,14.546060519629869
0.5218354224285444,0.7846137746451574,701,-15,18.98593441576808,14.546060519629869
0.5296795688760728,0.7846059303410479,701,-15,18.98593441576808,14.546060519629869
0.5375236361925475,0.784598086116194,701,-15,18.98593441576808,14.546060519629869
0.5453676244332362,0.7845902419705308,701,-15,18.98593441576808,14.546060519629869
0.5532115336492147,0.7845823979039988,701,-15,18.98593441576808,14.546060519629869
0.5610553638876898,0.7845745539165425,701,-15,18.98593441576808,14.546060519629869
0.5688991151922957,0.784566710008111,701,-15,18.98593441576808,14.546060519629869
0.5767427876033704,0.7845588661786569,701,-15,18.98593441576808,14.546060519629869
0.5845863811582076,0.7845510224281367,701,-15,18.98593441576808,14.546060519629869
0.5924298958912925,0.7845431787565099,701,-15,18.98593441576808,14.546060519629869
0.6002733318345173,0.7845353351637395,701,-15,18.98593441576808,14.546060519629869
0.6081166890173806,0.7845274916497907,701,-15,18.98593441576808,14.546060519629869
0.6159599674671714,0.7845196482146319,701,-15,18.98593441576808,14.546060519629869
0.6238031672091396,0.7845118048582334,701,-15,18.98593441576808,14.546060519629869
0.6316462882666524,0.7845039615805679,701,-15,18.98593441576808,14.546060519629869
0.63948933066134,0.7844961183816103,701,-15,18.98593441576808,14.546060519629869
0.6473322944132278,0.7844882752613371,701,-15,18.98593441576808,14.546060519629869
0.6551751795408615,0.7844804322197267,701,-15,18.98593441576808,14.546060519629869
0.6630179860614195,0.7844725892567592,701,-15,18.98593441576808,14.546060519629869
0.6708607139908194,0.7844647463724158,701,-15,18.98593441576808,14.546060519629869
0.6787033633438138,0.7844569035666796,701,-15,18.98593441576808,14.546060519629869
0.6865459341340809,0.7844490608395345,701,-15,18.98593441576808,14.546060519629869
0.694388426374307,0.7844412181909658,701,-15,18.98593441576808,14.546060519629869
0.7022308400762619,0.7844333756209597,701,-15,18.98593441576808,14.546060519629869
0.7100731752508705,0.7844255331295038,701,-15,18.98593441576808,14.546060519629869
0.7179154319082779,0.7844176907165861,701,-15,18.98593441576808,14.546060519629869
0.725757610057908,0.7844098483821957,701,-15,18.98593441576808,14.546060519629869
0.7335997097085207,0.7844020061263226,701,-15,18.98593441576808,14.546060519629869
0.7414417308682616,0.7843941639489572,701,-15,18.98593441576808,14.546060519629869
0.7492836735447101,0.7843863218500908,701,-15,18.98593441576808,14.546060519629869
0.7571255377449232,0.7843784798297153,701,-15,18.98593441576808,14.546060519629869
0.7649673234754742,0.784370637887823,701,-15,18.98593441576808,14.546060519629869
0.7728090307424924,0.7843627960244071,701,-15,18.98593441576808,14.546060519629869
0.7806506595516942,0.7843549542394607,701,-15,18.98593441576808,14.546060519629869
0.7884922099084174,0.7843471125329778,701,-15,18.98593441576808,14.546060519629869
0.7963336818176492,0.7843392709049528,701,-15,18.98593441576808,14.546060519629869
0.8041750752840536,0.7843314293553802,701,-15,18.98593441576808,14.546060519629869
0.8120163903119955,0.7843235878842552,701,-15,18.98593441576808,14.546060519629869
0.8198576269055651,0.784315746491573,701,-15,18.98593441576808,14.546060519629869
0.8276987850685973,0.7843079051773292,701,-15,18.98593441576808,14.546060519629869
0.8355398648046926,0.7843000639415197,701,-15,18.98593441576808,14.546060519629869
0.843380866117235,0.7842922227841408,701,-15,18.98593441576808,14.546060519629869
0.8512217890094079,0.7842843817051889,701,-15,18.98593441576808,14.546060519629869
0.8590626334842105,0.7842765407046605,701,-15,18.98593441576808,14.546060519629869
0.8669033995444717,0.7842686997825523,701,-15,18.98593441576808,14.546060519629869
0.8747440871928622,0.7842608589388617,701,-15,18.98593441576808,14.546060519629869
0.8825846964319086,0.7842530181735855,701,-15,18.98593441576808,14.546060519629869
0.8904252272640023,0.7842451774867212,701,-15,18.98593441576808,14.546060519629869
0.898265679691412,0.7842373368782662,701,-15,18.98593441576808,14.546060519629869
0.9061060537162913,0.7842294963482181,701,-15,18.98593441576808,14.546060519629869
0.9139463493406886,0.7842216558965748,701,-15,18.98593441576808,14.546060519629869
0.9217865665665556,0.784213815523334,701,-15,18.98593441576808,14.546060519629869
0.9296267053957533,0.7842059752284937,701,-15,18.98593441576808,14.546060519629869
0.9374667658300603,0.7841981350120518,701,-15,18.98593441576808,14.546060519629869
0.9453067478711784,0.7841902948740066,701,-15,18.98593441576808,14.546060519629869
0.953146651520739,0.7841824548143563,701,-15,18.98593441576808,14.546060519629869
0.9609864767803078,0.7841746148330992,701,-15,18.98593441576808,14.546060519629869
0.9688262236513909,0.7841667749302337,701,-15,18.98593441576808,14.546060519629869
0.9766658921354383,0.7841589351057582,701,-15,18.98593441576808,14.546060519629869
0.9845054822338489,0.7841510953596711,701,-15,18.98593441576808,14.546060519629869
0.9923449939479745,0.784143255691971,701,-15,18.98593441576808,14.546060519629869
1.000184427279123,0.7841354161026566,701,-15,18.98593441576808,14.546060519629869
1.0080237822285616,0.7841275765917264,701,-15,18.98593441576808,14.546060519629869
1.0158630587975208,0.7841197371591792,701,-15,18.98593441576808,14.546060519629869
1.0237022569871965,0.7841118978050137,701,-15,18.98593441576808,14.546060519629869
1.031541376798753,0.7841040585292287,701,-15,18.98593441576808,14.546060519629869
1.0393804182333248,0.7840962193318229,701,-15,18.98593441576808,14.546060519629869
1.0472193812920199,0.7840883802127954,701,-15,18.98593441576808,14.546060519629869
1.0550582659759213,0.7840805411721447,701,-15,18.98593441576808,14.546060519629869
1.0628970722860889,0.7840727022098699,701,-15,18.98593441576808,14.546060519629869
1.0707358002235612,0.7840648633259699,701,-15,18.98593441576808,14.546060519629869
1.078574449789357,0.7840570245204436,701,-15,18.98593441576808,14.546060519629869
1.086413020984477,0.7840491857932901,701,-15,18.98593441576808,14.546060519629869
1.0942515138099056,0.7840413471445081,701,-15,18.98593441576808,14.546060519629869
1.1020899282666112,0.7840335085740969,701,-15,18.98593441576808,14.546060519629869
1.1099282643555488,0.7840256700820553,701,-15,18.98593441576808,14.546060519629869
1.1177665220776585,0.7840178316683825,701,-15,18.98593441576808,14.546060519629869
1.1256047014338704,0.7840099933330774,701,-15,18.98593441576808,14.546060519629869
1.133442802425102,0.7840021550761391,701,-15,18.98593441576808,14.546060519629869
1.1412808250522606,0.7839943168975667,701,-15,18.98593441576808,14.546060519629869
1.1491187693162446,0.7839864787973593,701,-15,18.98593441576808,14.546060519629869
1.156956635217943,0.7839786407755159,701,-15,18.98593441576808,14.546060519629869
1.164794422758237,0.7839708028320358,701,-15,18.98593441576808,14.546060519629869
1.172632131937999,0.7839629649669179,701,-15,18.98593441576808,14.546060519629869
1.1804697627580973,0.7839551271801614,701,-15,18.98593441576808,14.546060519629869
1.188307315219391,0.7839472894717654,701,-15,18.98593441576808,14.546060519629869
1.1961447893227344,0.7839394518417291,701,-15,18.98593441576808,14.546060519629869
1.2039821850689765,0.7839316142900515,701,-15,18.98593441576808,14.546060519629869
1.2118195024589604,0.783923776816732,701,-15,18.98593441576808,14.546060519629869
1.2196567414935262,0.7839159394217695,701,-15,18.98593441576808,14.546060519629869
1.227493902173508,0.7839081021051633,701,-15,18.98593441576808,14.546060519629869
1.2353309844997369,0.7839002648669124,701,-15,18.98593441576808,14.546060519629869
1.2431679884730402,0.7838924277070162,701,-15,18.98593441576808,14.546060519629869
1.251004914094241,0.7838845906254737,701,-15,18.98593441576808,14.546060519629869
1.258841761364161,0.7838767536222842,701,-15,18.98593441576808,14.546060519629869
1.2666785302836172,0.7838689166974466,701,-15,18.98593441576808,14.546060519629869
1.2745152208534247,0.7838610798509604,701,-15,18.98593441576808,14.546060519629869
1.2823518330743968,0.7838532430828247,701,-15,18.98593441576808,14.546060519629869
1.2901883669473433,0.7838454063930386,701,-15,18.98593441576808,14.546060519629869
1.298024822473073,0.7838375697816012,701,-15,18.98593441576808,14.546060519629869
1.305861199652392,0.7838297332485119,701,-15,18.98593441576808,14.546060519629869
1.3136974984861043,0.7838218967937699,701,-15,18.98593441576808,14.546060519629869
1.321533718975014,0.7838140604173742,701,-15,18.98593441576808,14.546060519629869
1.3293698611199218,0.7838062241193241,701,-15,18.98593441576808,14.546060519629869
1.337205924921628,0.7837983878996189,701,-15,18.98593441576808,14.546060519629869
1.345041910380931,0.7837905517582576,701,-15,18.98593441576808,14.546060519629869
1.3528778174986296,0.7837827156952395,701,-15,18.98593441576808,14.546060519629869
1.3607136462755183,0.7837748797105638,701,-15,18.98593441576808,14.546060519629869
1.3685493967123936,0.7837670438042297,701,-15,18.98593441576808,14.546060519629869
1.3763850688100496,0.7837592079762364,701,-15,18.98593441576808,14.546060519629869
1.3842206625692797,0.7837513722265832,701,-15,18.98593441576808,14.546060519629869
1.3920561779908776,0.7837435365552691,701,-15,18.98593441576808,14.546060519629869
1.3998916150756344,0.7837357009622934,701,-15,18.98593441576808,14.546060519629869
1.4077269738243419,0.7837278654476554,701,-15,18.98593441576808,14.546060519629869
1.41556225423779,0.7837200300113542,701,-15,18.98593441576808,14.546060519629869
1.4233974563167704,0.783712194653389,701,-15,18.98593441576808,14.546060519629869
1.4312325800620713,0.7837043593737592,701,-15,18.98593441576808,14.546060519629869
1.439067625474482,0.7836965241724637,701,-15,18.98593441576808,14.546060519629869
1.4469025925547918,0.783688689049502,701,-15,18.98593441576808,14.546060519629869
1.4547374813037883,0.7836808540048731,701,-15,18.98593441576808,14.546060519629869
1.4625722917222592,0.7836730190385762,701,-15,18.98593441576808,14.546060519629869
1.4704070238109919,0.7836651841506107,701,-15,18.98593441576808,14.546060519629869
1.478241677570774,0.7836573493409758,701,-15,18.98593441576808,14.546060519629869
1.4860762530023914,0.7836495146096705,701,-15,18.98593441576808,14.546060519629869
1.4939107501066318,0.7836416799566942,701,-15,18.98593441576808,14.546060519629869
1.5017451688842802,0.7836338453820461,701,-15,18.98593441576808,14.546060519629869
1.509579509336123,0.7836260108857253,701,-15,18.98593441576808,14.546060519629869
1.5174137714629468,0.7836181764677311,701,-15,18.98593441576808,14.546060519629869
1.5252479552655356,0.7836103421280627,701,-15,18.98593441576808,14.546060519629869
1.5330820607446758,0.7836025078667194,701,-15,18.98593441576808,14.546060519629869
1.5409160879011523,0.7835946736837002,701,-15,18.98593441576808,14.546060519629869
1.5487500367357498,0.7835868395790044,701,-15,18.98593441576808,14.546060519629869
1.556583907249253,0.7835790055526314,701,-15,18.98593441576808,14.546060519629869
1.5644176994424472,0.7835711716045802,701,-15,18.98593441576808,14.546060519629869
1.5722514133161167,0.7835633377348501,701,-15,18.98593441576808,14.546060519629869
1.5800850488710458,0.7835555039434403,701,-15,18.98593441576808,14.546060519629869
1.587918606108019,0.78354767023035,701,-15,18.98593441576808,14.546060519629869
1.5957520850278202,0.7835398365955785,701,-15,18.98593441576808,14.546060519629869
1.603585485631233,0.7835320030391248,701,-15,18.98593441576808,14.546060519629869
1.6114188079190426,0.7835241695609885,701,-15,18.98593441576808,14.546060519629869
1.6192520518920321,0.7835163361611684,701,-15,18.98593441576808,14.546060519629869
1.6270852175509853,0.7835085028396639,701,-15,18.98593441576808,14.546060519629869
1.6349183048966864,0.7835006695964742,701,-15,18.98593441576808,14.546060519629869
1.6427513139299192,0.7834928364315986,701,-15,18.98593441576808,14.546060519629869
1.6505842446514665,0.7834850033450362,701,-15,18.98593441576808,14.546060519629869
1.6584170970621126,0.7834771703367863,701,-15,18.98593441576808,14.546060519629869
1.6662498711626408,0.7834693374068481,701,-15,18.98593441576808,14.546060519629869
1.6740825669538346,0.7834615045552208,701,-15,18.98593441576808,14.546060519629869
1.6819151844364773,0.7834536717819035,701,-15,18.98593441576808,14.546060519629869
1.689747723611352,0.7834458390868957,701,-15,18.98593441576808,14.546060519629869
1.6975801844792424,0.7834380064701962,701,-15,18.98593441576808,14.546060519629869
1.705412567040932,0.7834301739318047,701,-15,18.98593441576808,14.546060519629869
1.7132448712972033,0.7834223414717201,701,-15,18.98593441576808,14.546060519629869
1.7210770972488405,0.7834145090899416,701,-15,18.98593441576808,14.546060519629869
1.7289092448966257,0.7834066767864686,701,-15,18.98593441576808,14.546060519629869
1.7367413142413428,0.7833988445613002,701,-15,18.98593441576808,14.546060519629869
1.7445733052837744,0.7833910124144357,701,-15,18.98593441576808,14.546060519629869
1.7524052180247036,0.7833831803458742,701,-15,18.98593441576808,14.546060519629869
1.760237052464914,0.783375348355615,701,-15,18.98593441576808,14.546060519629869
1.7680688086051888,0.7833675164436572,701,-15,18.98593441576808,14.546060519629869
1.77590048644631,0.7833596846100002,701,-15,18.98593441576808,14.546060519629869
1.7837320859890609,0.7833518528546431,701,-15,18.98593441576808,14.546060519629869
1.7915636072342243,0.7833440211775852,701,-15,18.98593441576808,14.546060519629869
1.799395050182584,0.7833361895788256,701,-15,18.98593441576808,14.546060519629869
1.807226414834922,0.7833283580583635,701,-15,18.98593441576808,14.546060519629869
1.8150577011920221,0.7833205266161984,701,-15,18.98593441576808,14.546060519629869
1.8228889092546665,0.7833126952523292,701,-15,18.98593441576808,14.546060519629869
1.8307200390236384,0.7833048639667552,701,-15,18.98593441576808,14.546060519629869
1.83855109049972,0.7832970327594757,701,-15,18.98593441576808,14.546060519629869
1.846382063683695,0.7832892016304899,701,-15,18.98593441576808,14.546060519629869
1.8542129585763456,0.783281370579797,701,-15,18.98593441576808,14.546060519629869
