Vout,Iout,Irradiance,Temperature,MaxVoltage,MaxPower
0.010355650426438207,2.07115,1801,0,20.101302820670263,41.22957123244794
0.031066759793536992,2.07115,1801,0,20.101302820670263,41.22957123244794
0.051777448108977185,2.0711394372345735,1801,0,20.101302820670263,41.22957123244794
0.07248764015201942,2.0711187261252064,1801,0,20.101302820670263,41.22957123244794
0.09319731133922102,2.071098015437947,1801,0,20.101302820670263,41.22957123244794
0.11390648581933692,2.071077305247975,1801,0,20.101302820670263,41.22957123244794
0.1346151858839263,2.071056595578859,1801,0,20.101302820670263,41.22957123244794
0.15532343210978947,2.0710358864064498,1801,0,20.101302820670263,41.22957123244794
0.17603124349067462,2.0710151777084564,1801,0,20.101302820670263,41.22957123244794
0.19673863755908044,2.0709944694643014,1801,0,20.101302820670263,41.22957123244794
0.21744563049868681,2.0709737616549915,1801,0,20.101302820670263,41.22957123244794
0.23815223724813503,2.070953054262994,1801,0,20.101302820670263,41.22957123244794
0.25885847159682307,2.070932347272125,1801,0,20.101302820670263,41.22957123244794
0.2795643462733302,2.0709116406674464,1801,0,20.101302820670263,41.22957123244794
0.30026987302703817,2.0708909344351683,1801,0,20.101302820670263,41.22957123244794
0.32097506270347176,2.0708702285625624,1801,0,20.101302820670263,41.22957123244794
0.3416799253138435,2.070849523037879,1801,0,20.101302820670263,41.22957123244794
0.36238447009924657,2.0708288178502734,1801,0,20.101302820670263,41.22957123244794
0.38308870558990915,2.0708081129897336,1801,0,20.101302820670263,41.22957123244794
0.4037926396598895,2.0707874084470186,1801,0,20.101302820670263,41.22957123244794
0.42449627957756253,2.0707667042135984,1801,0,20.101302820670263,41.22957123244794
0.44519963205222246,2.070746000281599,1801,0,20.101302820670263,41.22957123244794
0.46590270327709876,2.0707252966437517,1801,0,20.101302820670263,41.22957123244794
0.4866054989690636,2.0707045932933474,1801,0,20.101302820670263,41.22957123244794
0.5073080244052829,2.070683890224193,1801,0,20.101302820670263,41.22957123244794
0.5280102844570483,2.0706631874305717,1801,0,20.101302820670263,41.22957123244794
0.5487122836210064,2.0706424849072054,1801,0,20.101302820670263,41.22957123244794
0.5694140260479833,2.070621782649224,1801,0,20.101302820670263,41.22957123244794
0.5901155155695934,2.07060108065213,1801,0,20.101302820670263,41.22957123244794
0.6108167557227999,2.0705803789117736,1801,0,20.101302820670263,41.22957123244794
0.6315177497725856,2.0705596774243222,1801,0,20.101302820670263,41.22957123244794
0.6522185007328797,2.070538976186239,1801,0,20.101302820670263,41.22957123244794
0.672919011385874,2.0705182751942597,1801,0,20.101302820670263,41.22957123244794
0.6936192842998533,2.0704975744453695,1801,0,20.101302820670263,41.22957123244794
0.7143193218456539,2.0704768739367863,1801,0,20.101302820670263,41.22957123244794
0.7350191262118553,2.0704561736659426,1801,0,20.101302820670263,41.22957123244794
0.7557186994188031,2.0704354736304666,1801,0,20.101302820670263,41.22957123244794
0.7764180433315538,2.0704147738281704,1801,0,20.101302820670263,41.22957123244794
0.7971171596718228,2.0703940742570337,1801,0,20.101302820670263,41.22957123244794
0.8178160500290133,2.070373374915191,1801,0,20.101302820670263,41.22957123244794
0.8385147158703958,2.0703526758009207,1801,0,20.101302820670263,41.22957123244794
0.8592131585505064,2.0703319769126334,1801,0,20.101302820670263,41.22957123244794
0.8799113793198204,2.070311278248862,1801,0,20.101302820670263,41.22957123244794
0.9006093793327582,2.0702905798082516,1801,0,20.101302820670263,41.22957123244794
0.9213071596550768,2.070269881589552,1801,0,20.101302820670263,41.22957123244794
0.9420047212706912,2.070249183591609,1801,0,20.101302820670263,41.22957123244794
0.9627020650879721,2.0702284858133564,1801,0,20.101302820670263,41.22957123244794
0.9833991919455568,2.0702077882538106,1801,0,20.101302820670263,41.22957123244794
1.0040961026177166,2.0701870909120634,1801,0,20.101302820670263,41.22957123244794
1.0247927978193079,2.0701663937872756,1801,0,20.101302820670263,41.22957123244794
1.0454892782103444,2.070145696878673,1801,0,20.101302820670263,41.22957123244794
1.0661855444002164,2.0701250001855414,1801,0,20.101302820670263,41.22957123244794
1.086881596951585,2.07010430370722,1801,0,20.101302820670263,41.22957123244794
1.1075774363839799,2.0700836074430997,1801,0,20.101302820670263,41.22957123244794
1.1282730631771154,2.070062911392618,1801,0,20.101302820670263,41.22957123244794
1.1489684777739555,2.070042215555255,1801,0,20.101302820670263,41.22957123244794
1.1696636805835408,2.0700215199305316,1801,0,20.101302820670263,41.22957123244794
1.1903586719835988,2.0700008245180044,1801,0,20.101302820670263,41.22957123244794
1.2110534523229532,2.069980129317264,1801,0,20.101302820670263,41.22957123244794
1.2317480219237484,2.069959434327934,1801,0,20.101302820670263,41.22957123244794
1.2524423810835006,2.069938739549664,1801,0,20.101302820670263,41.22957123244794
1.2731365300769943,2.0699180449821326,1801,0,20.101302820670263,41.22957123244794
1.2938304691580305,2.0698973506250424,1801,0,20.101302820670263,41.22957123244794
1.3145241985610423,2.0698766564781184,1801,0,20.101302820670263,41.22957123244794
1.3352177185025829,2.069855962541107,1801,0,20.101302820670263,41.22957123244794
1.3559110291827043,2.0698352688137733,1801,0,20.101302820670263,41.22957123244794
1.3766041307862238,2.069814575295901,1801,0,20.101302820670263,41.22957123244794
1.3972970234838984,2.06979388198729,1801,0,20.101302820670263,41.22957123244794
1.4179897074335068,2.069773188887756,1801,0,20.101302820670263,41.22957123244794
1.4386821827808451,2.0697524959971276,1801,0,20.101302820670263,41.22957123244794
1.4593744496606524,2.0697318033152476,1801,0,20.101302820670263,41.22957123244794
1.4800665081974596,2.0697111108419692,1801,0,20.101302820670263,41.22957123244794
1.5007583585063737,2.0696904185771587,1801,0,20.101302820670263,41.22957123244794
1.5214500006938063,2.0696697265206914,1801,0,20.101302820670263,41.22957123244794
1.5421414348581393,2.0696490346724516,1801,0,20.101302820670263,41.22957123244794
1.5628326610903445,2.0696283430323335,1801,0,20.101302820670263,41.22957123244794
1.583523679474553,2.069607651600238,1801,0,20.101302820670263,41.22957123244794
1.604214490088583,2.0695869603760753,1801,0,20.101302820670263,41.22957123244794
1.624905093004423,2.0695662693597603,1801,0,20.101302820670263,41.22957123244794
1.645595488288682,2.069545578551215,1801,0,20.101302820670263,41.22957123244794
1.6662856760030034,2.0695248879503683,1801,0,20.101302820670263,41.22957123244794
1.6869756562044462,2.069504197557153,1801,0,20.101302820670263,41.22957123244794
1.7076654289458395,2.069483507371508,1801,0,20.101302820670263,41.22957123244794
1.7283549942761058,2.069462817393376,1801,0,20.101302820670263,41.22957123244794
1.749044352240562,2.069442127622703,1801,0,20.101302820670263,41.22957123244794
1.7697335028811987,2.069421438059442,1801,0,20.101302820670263,41.22957123244794
1.7904224462369331,2.0694007487035466,1801,0,20.101302820670263,41.22957123244794
1.8111111823438495,2.069380059554975,1801,0,20.101302820670263,41.22957123244794
1.8317997112354125,2.069359370613688,1801,0,20.101302820670263,41.22957123244794
1.8524880329426723,2.06933868187965,1801,0,20.101302820670263,41.22957123244794
1.873176147494449,2.0693179933528274,1801,0,20.101302820670263,41.22957123244794
1.8938640549175043,2.069297305033189,1801,0,20.101302820670263,41.22957123244794
1.9145517552366995,2.069276616920706,1801,0,20.101302820670263,41.22957123244794
1.9352392484751424,2.069255929015352,1801,0,20.101302820670263,41.22957123244794
1.9559265346543215,2.0692352413171013,1801,0,20.101302820670263,41.22957123244794
1.9766136137942323,2.069214553825932,1801,0,20.101302820670263,41.22957123244794
1.9973004859134893,2.0691938665418212,1801,0,20.101302820670263,41.22957123244794
2.0179871510294345,2.0691731794647503,1801,0,20.101302820670263,41.22957123244794
2.0386736091582356,2.0691524925946996,1801,0,20.101302820670263,41.22957123244794
2.0593598603149736,2.0691318059316526,1801,0,20.101302820670263,41.22957123244794
2.08004590451373,2.0691111194755925,1801,0,20.101302820670263,41.22957123244794
2.1007317417676603,2.069090433226504,1801,0,20.101302820670263,41.22957123244794
2.1214173720890677,2.069069747184374,1801,0,20.101302820670263,41.22957123244794
2.1421027954894676,2.069049061349189,1801,0,20.101302820670263,41.22957123244794
2.1627880119796496,2.069028375720936,1801,0,20.101302820670263,41.22957123244794
2.18347302156973,2.069007690299604,1801,0,20.101302820670263,41.22957123244794
2.204157824269208,2.0689870050851824,1801,0,20.101302820670263,41.22957123244794
2.224842420087009,2.068966320077661,1801,0,20.101302820670263,41.22957123244794
2.245526809031532,2.06894563527703,1801,0,20.101302820670263,41.22957123244794
2.2662109911106896,2.068924950683281,1801,0,20.101302820670263,41.22957123244794
2.286894966331942,2.068904266296405,1801,0,20.101302820670263,41.22957123244794
2.307578734702336,2.0688835821163942,1801,0,20.101302820670263,41.22957123244794
2.328262296228537,2.0688628981432413,1801,0,20.101302820670263,41.22957123244794
2.348945650916853,2.0688422143769394,1801,0,20.101302820670263,41.22957123244794
2.369628798773269,2.0688215308174813,1801,0,20.101302820670263,41.22957123244794
2.3903117398034657,2.0688008474648614,1801,0,20.101302820670263,41.22957123244794
2.4109944740128486,2.0687801643190733,1801,0,20.101302820670263,41.22957123244794
2.4316770014065647,2.068759481380112,1801,0,20.101302820670263,41.22957123244794
2.4523593219895234,2.0687387986479706,1801,0,20.101302820670263,41.22957123244794
2.473041435766418,2.0687181161226453,1801,0,20.101302820670263,41.22957123244794
2.4937233427417356,2.0686974338041306,1801,0,20.101302820670263,41.22957123244794
2.5144050429197806,2.0686767516924216,1801,0,20.101302820670263,41.22957123244794
2.535086536304685,2.0686560697875147,1801,0,20.101302820670263,41.22957123244794
2.55576782290042,2.068635388089405,1801,0,20.101302820670263,41.22957123244794
2.576448902710812,2.068614706598088,1801,0,20.101302820670263,41.22957123244794
2.5971297757395506,2.0685940253135606,1801,0,20.101302820670263,41.22957123244794
2.617810441990202,2.0685733442358183,1801,0,20.101302820670263,41.22957123244794
2.638490901466216,2.0685526633648577,1801,0,20.101302820670263,41.22957123244794
2.6591711541709366,2.068531982700675,1801,0,20.101302820670263,41.22957123244794
2.6798512001076085,2.0685113022432673,1801,0,20.101302820670263,41.22957123244794
2.700531039279388,2.0684906219926305,1801,0,20.101302820670263,41.22957123244794
2.721210671689344,2.068469941948762,1801,0,20.101302820670263,41.22957123244794
2.741890097340472,2.0684492621116584,1801,0,20.101302820670263,41.22957123244794
2.7625693162356932,2.0684285824813164,1801,0,20.101302820670263,41.22957123244794
2.7832483283778657,2.068407903057733,1801,0,20.101302820670263,41.22957123244794
2.803927133769785,2.068387223840906,1801,0,20.101302820670263,41.22957123244794
2.8246057324141898,2.0683665448308317,1801,0,20.101302820670263,41.22957123244794
2.845284124313769,2.068345866027508,1801,0,20.101302820670263,41.22957123244794
2.8659623094711635,2.068325187430931,1801,0,20.101302820670263,41.22957123244794
2.8866402878889668,2.0683045090410994,1801,0,20.101302820670263,41.22957123244794
2.9073180595697363,2.06828383085801,1801,0,20.101302820670263,41.22957123244794
2.92799562451599,2.0682631528816597,1801,0,20.101302820670263,41.22957123244794
2.94867298273021,2.068242475112047,1801,0,20.101302820670263,41.22957123244794
2.9693501342148467,2.0682217975491684,1801,0,20.101302820670263,41.22957123244794
2.9900270789723224,2.068201120193022,1801,0,20.101302820670263,41.22957123244794
3.0107038170050306,2.0681804430436053,1801,0,20.101302820670263,41.22957123244794
3.031380348315341,2.0681597661009157,1801,0,20.101302820670263,41.22957123244794
3.052056672905598,2.0681390893649505,1801,0,20.101302820670263,41.22957123244794
3.072732790778126,2.068118412835708,1801,0,20.101302820670263,41.22957123244794
3.09340870193523,2.0680977365131854,1801,0,20.101302820670263,41.22957123244794
3.1140844063791953,2.0680770603973806,1801,0,20.101302820670263,41.22957123244794
3.134759904112291,2.068056384488291,1801,0,20.101302820670263,41.22957123244794
3.1554351951367705,2.0680357087859145,1801,0,20.101302820670263,41.22957123244794
3.1761102794548735,2.068015033290249,1801,0,20.101302820670263,41.22957123244794
3.1967851570688257,2.0679943580012923,1801,0,20.101302820670263,41.22957123244794
3.2174598279808397,2.0679736829190416,1801,0,20.101302820670263,41.22957123244794
3.2381342921931195,2.0679530080434954,1801,0,20.101302820670263,41.22957123244794
3.2588085497078545,2.067932333374651,1801,0,20.101302820670263,41.22957123244794
3.279482600527228,2.067911658912506,1801,0,20.101302820670263,41.22957123244794
3.3001564446534126,2.067890984657059,1801,0,20.101302820670263,41.22957123244794
3.3208300820885746,2.0678703106083067,1801,0,20.101302820670263,41.22957123244794
3.34150351283487,2.067849636766248,1801,0,20.101302820670263,41.22957123244794
3.362176736894449,2.0678289631308804,1801,0,20.101302820670263,41.22957123244794
3.382849754269457,2.067808289702201,1801,0,20.101302820670263,41.22957123244794
3.4035225649620306,2.067787616480209,1801,0,20.101302820670263,41.22957123244794
3.424195168974302,2.0677669434649015,1801,0,20.101302820670263,41.22957123244794
3.4448675663083987,2.067746270656276,1801,0,20.101302820670263,41.22957123244794
3.4655397569664443,2.067725598054331,1801,0,20.101302820670263,41.22957123244794
3.4862117409505555,2.0677049256590645,1801,0,20.101302820670263,41.22957123244794
3.506883518262847,2.0676842534704734,1801,0,20.101302820670263,41.22957123244794
3.527555088905429,2.067663581488557,1801,0,20.101302820670263,41.22957123244794
3.548226452880409,2.0676429097133115,1801,0,20.101302820670263,41.22957123244794
3.5688976101898904,2.0676222381447364,1801,0,20.101302820670263,41.22957123244794
3.5895685608359744,2.0676015667828285,1801,0,20.101302820670263,41.22957123244794
3.6102393048207584,2.0675808956275863,1801,0,20.101302820670263,41.22957123244794
3.6309098421463397,2.0675602246790072,1801,0,20.101302820670263,41.22957123244794
3.6515801728148114,2.0675395539370895,1801,0,20.101302820670263,41.22957123244794
3.6722502968282633,2.067518883401831,1801,0,20.101302820670263,41.22957123244794
3.6929202141887867,2.06749821307323,1801,0,20.101302820670263,41.22957123244794
3.713589924898469,2.0674775429512833,1801,0,20.101302820670263,41.22957123244794
3.734259428959395,2.0674568730359897,1801,0,20.101302820670263,41.22957123244794
3.7549287263736493,2.0674362033273472,1801,0,20.101302820670263,41.22957123244794
3.7755978171433147,2.0674155338253533,1801,0,20.101302820670263,41.22957123244794
3.7962667012704725,2.067394864530006,1801,0,20.101302820670263,41.22957123244794
3.8169353787572047,2.067374195441303,1801,0,20.101302820670263,41.22957123244794
3.8376038496055895,2.067353526559243,1801,0,20.101302820670263,41.22957123244794
3.8582721138177045,2.067332857883823,1801,0,20.101302820670263,41.22957123244794
3.878940171395627,2.0673121894150417,1801,0,20.101302820670263,41.22957123244794
3.899608022341435,2.0672915211528964,1801,0,20.101302820670263,41.22957123244794
3.920275666657202,2.0672708530973853,1801,0,20.101302820670263,41.22957123244794
3.9409431043450045,2.0672501852485063,1801,0,20.101302820670263,41.22957123244794
3.9616103354069145,2.067229517606257,1801,0,20.101302820670263,41.22957123244794
3.9822773598450065,2.0672088501706365,1801,0,20.101302820670263,41.22957123244794
4.002944177661353,2.067188182941641,1801,0,20.101302820670263,41.22957123244794
4.023610788858027,2.06716751591927,1801,0,20.101302820670263,41.22957123244794
4.0442771934370985,2.06714684910352,1801,0,20.101302820670263,41.22957123244794
4.06494339140064,2.0671261824943903,1801,0,20.101302820670263,41.22957123244794
4.085609382750724,2.067105516091878,1801,0,20.101302820670263,41.22957123244794
4.106275167489417,2.067084849895981,1801,0,20.101302820670263,41.22957123244794
4.126940745618792,2.0670641839066977,1801,0,20.101302820670263,41.22957123244794
4.147606117140915,2.0670435181240254,1801,0,20.101302820670263,41.22957123244794
4.16827128205786,2.0670228525479626,1801,0,20.101302820670263,41.22957123244794
4.188936240371694,2.067002187178507,1801,0,20.101302820670263,41.22957123244794
4.209600992084483,2.0669815220156567,1801,0,20.101302820670263,41.22957123244794
4.2302655371983,2.0669608570594096,1801,0,20.101302820670263,41.22957123244794
4.25092987571521,2.066940192309763,1801,0,20.101302820670263,41.22957123244794
4.271594007637282,2.0669195277667156,1801,0,20.101302820670263,41.22957123244794
4.292257932966583,2.066898863430265,1801,0,20.101302820670263,41.22957123244794
4.312921651705182,2.06687819930041,1801,0,20.101302820670263,41.22957123244794
4.3335851638551475,2.066857535377147,1801,0,20.101302820670263,41.22957123244794
4.354248469418543,2.066836871660475,1801,0,20.101302820670263,41.22957123244794
4.3749115683974376,2.0668162081503914,1801,0,20.101302820670263,41.22957123244794
4.395574460793898,2.066795544846894,1801,0,20.101302820670263,41.22957123244794
4.4162371466099914,2.0667748817499816,1801,0,20.101302820670263,41.22957123244794
4.436899625847783,2.0667542188596513,1801,0,20.101302820670263,41.22957123244794
4.457561898509341,2.0667335561759015,1801,0,20.101302820670263,41.22957123244794
4.47822396459673,2.06671289369873,1801,0,20.101302820670263,41.22957123244794
4.498885824112017,2.066692231428135,1801,0,20.101302820670263,41.22957123244794
4.51954747705727,2.0666715693641136,1801,0,20.101302820670263,41.22957123244794
4.540208923434554,2.0666509075066646,1801,0,20.101302820670263,41.22957123244794
4.5608701632459345,2.0666302458557855,1801,0,20.101302820670263,41.22957123244794
4.581531196493476,2.0666095844114745,1801,0,20.101302820670263,41.22957123244794
4.602192023179247,2.0665889231737293,1801,0,20.101302820670263,41.22957123244794
4.622852643305311,2.066568262142548,1801,0,20.101302820670263,41.22957123244794
4.643513056873737,2.0665476013179283,1801,0,20.101302820670263,41.22957123244794
4.664173263886588,2.0665269406998683,1801,0,20.101302820670263,41.22957123244794
4.6848332643459285,2.066506280288366,1801,0,20.101302820670263,41.22957123244794
4.705493058253826,2.066485620083419,1801,0,20.101302820670263,41.22957123244794
4.726152645612347,2.066464960085026,1801,0,20.101302820670263,41.22957123244794
4.746812026423553,2.066444300293184,1801,0,20.101302820670263,41.22957123244794
4.7674712006895135,2.0664236407078915,1801,0,20.101302820670263,41.22957123244794
4.78813016841229,2.0664029813291465,1801,0,20.101302820670263,41.22957123244794
4.808788929593953,2.0663823221569464,1801,0,20.101302820670263,41.22957123244794
4.829447484236563,2.0663616631912896,1801,0,20.101302820670263,41.22957123244794
4.8501058323421855,2.0663410044321737,1801,0,20.101302820670263,41.22957123244794
4.870763973912887,2.066320345879597,1801,0,20.101302820670263,41.22957123244794
4.891421908950734,2.066299687533557,1801,0,20.101302820670263,41.22957123244794
4.912079637457788,2.0662790293940523,1801,0,20.101302820670263,41.22957123244794
4.932737159436118,2.0662583714610805,1801,0,20.101302820670263,41.22957123244794
4.953394474887786,2.066237713734639,1801,0,20.101302820670263,41.22957123244794
4.974051583814857,2.0662170562147266,1801,0,20.101302820670263,41.22957123244794
4.994708486219398,2.0661963989013405,1801,0,20.101302820670263,41.22957123244794
