Vout,Iout,Irradiance,Temperature,MaxVoltage,MaxPower
0.006725535331391044,1.3451199999999999,1201,-15,18.994583018835637,25.189700480328746
0.020176481632659386,1.3451199999999999,1201,-15,18.994583018835637,25.189700480328746
0.033627154479563236,1.3451131399526686,1201,-15,18.994583018835637,25.189700480328746
0.047077505019570934,1.3450996890063671,1201,-15,18.994583018835637,25.189700480328746
0.06052751728682759,1.3450862383342064,1201,-15,18.994583018835637,25.189700480328746
0.07397720696487772,1.3450727879850115,1201,-15,18.994583018835637,25.189700480328746
0.0874265885310996,1.3450593379740892,1201,-15,18.994583018835637,25.189700480328746
0.10087567534921177,1.345045888285756,1201,-15,18.994583018835637,25.189700480328746
0.11432447975481072,1.345032438905535,1201,-15,18.994583018835637,25.189700480328746
0.12777301313447617,1.3450189898200617,1201,-15,18.994583018835637,25.189700480328746
0.14122128599878986,1.3450055410170012,1201,-15,18.994583018835637,25.189700480328746
0.15466930804973633,1.3449920924849663,1201,-15,18.994583018835637,25.189700480328746
0.16811708824291752,1.344978644213447,1201,-15,18.994583018835637,25.189700480328746
0.18156463484498078,1.344965196192741,1201,-15,18.994583018835637,25.189700480328746
0.19501195548662803,1.3449517484138924,1201,-15,18.994583018835637,25.189700480328746
0.20845905721154628,1.3449383008686353,1201,-15,18.994583018835637,25.189700480328746
0.2219059465215737,1.3449248535493383,1201,-15,18.994583018835637,25.189700480328746
0.2353526294183901,1.3449114064489582,1201,-15,18.994583018835637,25.189700480328746
0.2487991114420002,1.344897959560993,1201,-15,18.994583018835637,25.189700480328746
0.2622453977062553,1.3448845128794409,1201,-15,18.994583018835637,25.189700480328746
0.27569149293164236,1.344871066398762,1201,-15,18.994583018835637,25.189700480328746
0.28913740147555017,1.3448576201138422,1201,-15,18.994583018835637,25.189700480328746
0.3025831273602063,1.3448441740199615,1201,-15,18.994583018835637,25.189700480328746
0.3160286742984656,1.3448307281127623,1201,-15,18.994583018835637,25.189700480328746
0.329474045717613,1.3448172823882223,1201,-15,18.994583018835637,25.189700480328746
0.3429192447813365,1.3448038368426285,1201,-15,18.994583018835637,25.189700480328746
0.35636427441000806,1.344790391472554,1201,-15,18.994583018835637,25.189700480328746
0.3698091372994053,1.344776946274835,1201,-15,18.994583018835637,25.189700480328746
0.3832538359379917,1.3447635012465506,1201,-15,18.994583018835637,25.189700480328746
0.39669837262286783,1.3447500563850059,1201,-15,18.994583018835637,25.189700480328746
0.4101427494744951,1.3447366116877117,1201,-15,18.994583018835637,25.189700480328746
0.4235869684502867,1.3447231671523714,1201,-15,18.994583018835637,25.189700480328746
0.4370310313571528,1.3447097227768643,1201,-15,18.994583018835637,25.189700480328746
0.4504749398630804,1.344696278559233,1201,-15,18.994583018835637,25.189700480328746
0.46391869550782233,1.3446828344976705,1201,-15,18.994583018835637,25.189700480328746
0.4773622997127638,1.344669390590509,1201,-15,18.994583018835637,25.189700480328746
0.49080575379002983,1.3446559468362087,1201,-15,18.994583018835637,25.189700480328746
0.5042490589508918,1.344642503233348,1201,-15,18.994583018835637,25.189700480328746
0.5176922163135275,1.3446290597806152,1201,-15,18.994583018835637,25.189700480328746
0.5311352269101833,1.3446156164767986,1201,-15,18.994583018835637,25.189700480328746
0.544578091693787,1.3446021733207805,1201,-15,18.994583018835637,25.189700480328746
0.5580208115440489,1.344588730311528,1201,-15,18.994583018835637,25.189700480328746
0.571463387273098,1.3445752874480887,1201,-15,18.994583018835637,25.189700480328746
0.5849058196306783,1.3445618447295828,1201,-15,18.994583018835637,25.189700480328746
0.5983481093089524,1.344548402155198,1201,-15,18.994583018835637,25.189700480328746
0.6117902569469291,1.3445349597241847,1201,-15,18.994583018835637,25.189700480328746
0.6252322631345545,1.3445215174358507,1201,-15,18.994583018835637,25.189700480328746
0.6386741284164871,1.344508075289557,1201,-15,18.994583018835637,25.189700480328746
0.6521158532955811,1.3444946332847136,1201,-15,18.994583018835637,25.189700480328746
0.6655574382361041,1.344481191420776,1201,-15,18.994583018835637,25.189700480328746
0.678998883666706,1.344467749697241,1201,-15,18.994583018835637,25.189700480328746
0.6924401899831585,1.3444543081136446,1201,-15,18.994583018835637,25.189700480328746
0.7058813575508852,1.3444408666695582,1201,-15,18.994583018835637,25.189700480328746
0.719322386707297,1.3444274253645858,1201,-15,18.994583018835637,25.189700480328746
0.7327632777639478,1.3444139841983622,1201,-15,18.994583018835637,25.189700480328746
0.7462040310085228,1.3444005431705501,1201,-15,18.994583018835637,25.189700480328746
0.7596446467066755,1.3443871022808376,1201,-15,18.994583018835637,25.189700480328746
0.7730851251037237,1.344373661528937,1201,-15,18.994583018835637,25.189700480328746
0.7865254664262125,1.344360220914583,1201,-15,18.994583018835637,25.189700480328746
0.7999656708833601,1.34434678043753,1201,-15,18.994583018835637,25.189700480328746
0.8134057386683905,1.3443333400975517,1201,-15,18.994583018835637,25.189700480328746
0.8268456699597638,1.3443198998944386,1201,-15,18.994583018835637,25.189700480328746
0.8402854649223129,1.3443064598279975,1201,-15,18.994583018835637,25.189700480328746
0.8537251237082912,1.34429301989805,1201,-15,18.994583018835637,25.189700480328746
0.8671646464583409,1.3442795801044316,1201,-15,18.994583018835637,25.189700480328746
0.8806040333023863,1.3442661404469896,1201,-15,18.994583018835637,25.189700480328746
0.8940432843604585,1.3442527009255836,1201,-15,18.994583018835637,25.189700480328746
0.9074823997434569,1.3442392615400833,1201,-15,18.994583018835637,25.189700480328746
0.9209213795538506,1.3442258222903694,1201,-15,18.994583018835637,25.189700480328746
0.9343602238863287,1.3442123831763302,1201,-15,18.994583018835637,25.189700480328746
0.9477989328283976,1.344198944197864,1201,-15,18.994583018835637,25.189700480328746
0.9612375064609349,1.3441855053548752,1201,-15,18.994583018835637,25.189700480328746
0.9746759448586978,1.344172066647277,1201,-15,18.994583018835637,25.189700480328746
0.9881142480907955,1.3441586280749884,1201,-15,18.994583018835637,25.189700480328746
1.0015524162211227,1.3441451896379346,1201,-15,18.994583018835637,25.189700480328746
1.014990449308762,1.3441317513360462,1201,-15,18.994583018835637,25.189700480328746
1.0284283474083526,1.3441183131692598,1201,-15,18.994583018835637,25.189700480328746
1.0418661105704334,1.344104875137516,1201,-15,18.994583018835637,25.189700480328746
1.0553037388417583,1.3440914372407602,1201,-15,18.994583018835637,25.189700480328746
1.0687412322655867,1.344077999478942,1201,-15,18.994583018835637,25.189700480328746
1.0821785908819535,1.3440645618520144,1201,-15,18.994583018835637,25.189700480328746
1.0956158147279158,1.3440511243599342,1201,-15,18.994583018835637,25.189700480328746
1.1090529038377839,1.3440376870026618,1201,-15,18.994583018835637,25.189700480328746
1.12248985824333,1.3440242497801596,1201,-15,18.994583018835637,25.189700480328746
1.1359266779739865,1.3440108126923933,1201,-15,18.994583018835637,25.189700480328746
1.149363363057024,1.3439973757393315,1201,-15,18.994583018835637,25.189700480328746
1.1627999135177178,1.3439839389209447,1201,-15,18.994583018835637,25.189700480328746
1.1762363293795022,1.3439705022372053,1201,-15,18.994583018835637,25.189700480328746
1.189672610664112,1.3439570656880884,1201,-15,18.994583018835637,25.189700480328746
1.2031087573917123,1.3439436292735703,1201,-15,18.994583018835637,25.189700480328746
1.2165447695810208,1.3439301929936291,1201,-15,18.994583018835637,25.189700480328746
1.2299806472494177,1.3439167568482453,1201,-15,18.994583018835637,25.189700480328746
1.2434163904130493,1.3439033208373996,1201,-15,18.994583018835637,25.189700480328746
1.2568519990869234,1.3438898849610748,1201,-15,18.994583018835637,25.189700480328746
1.270287473284996,1.3438764492192548,1201,-15,18.994583018835637,25.189700480328746
1.2837228130202523,1.3438630136119245,1201,-15,18.994583018835637,25.189700480328746
1.2971580183047826,1.34384957813907,1201,-15,18.994583018835637,25.189700480328746
1.31059308914985,1.3438361428006782,1201,-15,18.994583018835637,25.189700480328746
1.3240280255659533,1.3438227075967373,1201,-15,18.994583018835637,25.189700480328746
1.3374628275628881,1.3438092725272357,1201,-15,18.994583018835637,25.189700480328746
1.3508974951497992,1.3437958375921633,1201,-15,18.994583018835637,25.189700480328746
1.364332028335231,1.3437824027915097,1201,-15,18.994583018835637,25.189700480328746
1.3777664271271735,1.3437689681252662,1201,-15,18.994583018835637,25.189700480328746
1.3912006915331054,1.3437555335934244,1201,-15,18.994583018835637,25.189700480328746
1.4046348215600337,1.3437420991959759,1201,-15,18.994583018835637,25.189700480328746
1.4180688172145293,1.3437286649329134,1201,-15,18.994583018835637,25.189700480328746
1.4315026785027611,1.34371523080423,1201,-15,18.994583018835637,25.189700480328746
1.4449364054305265,1.3437017968099187,1201,-15,18.994583018835637,25.189700480328746
1.4583699980032794,1.343688362949974,1201,-15,18.994583018835637,25.189700480328746
1.4718034562261582,1.3436749292243897,1201,-15,18.994583018835637,25.189700480328746
1.4852367801040092,1.3436614956331603,1201,-15,18.994583018835637,25.189700480328746
1.4986699696414085,1.3436480621762807,1201,-15,18.994583018835637,25.189700480328746
1.512103024842685,1.3436346288537464,1201,-15,18.994583018835637,25.189700480328746
1.5255359457119355,1.3436211956655522,1201,-15,18.994583018835637,25.189700480328746
1.5389687322530465,1.3436077626116942,1201,-15,18.994583018835637,25.189700480328746
1.552401384469708,1.3435943296921684,1201,-15,18.994583018835637,25.189700480328746
1.5658339023654302,1.3435808969069705,1201,-15,18.994583018835637,25.189700480328746
1.579266285943556,1.3435674642560973,1201,-15,18.994583018835637,25.189700480328746
1.592698535207274,1.3435540317395447,1201,-15,18.994583018835637,25.189700480328746
1.6061306501596317,1.34354059935731,1201,-15,18.994583018835637,25.189700480328746
1.6195626308035442,1.3435271671093894,1201,-15,18.994583018835637,25.189700480328746
1.6329944771418068,1.3435137349957802,1201,-15,18.994583018835637,25.189700480328746
1.6464261891771026,1.3435003030164796,1201,-15,18.994583018835637,25.189700480328746
1.659857766912011,1.3434868711714845,1201,-15,18.994583018835637,25.189700480328746
1.6732892103490167,1.3434734394607926,1201,-15,18.994583018835637,25.189700480328746
1.6867205194905162,1.3434600078844008,1201,-15,18.994583018835637,25.189700480328746
1.7001516943388257,1.343446576442307,1201,-15,18.994583018835637,25.189700480328746
1.7135827348961856,1.3434331451345085,1201,-15,18.994583018835637,25.189700480328746
1.7270136411647674,1.3434197139610033,1201,-15,18.994583018835637,25.189700480328746
1.7404444131466792,1.3434062829217892,1201,-15,18.994583018835637,25.189700480328746
1.753875050843969,1.3433928520168636,1201,-15,18.994583018835637,25.189700480328746
1.7673055542586327,1.343379421246225,1201,-15,18.994583018835637,25.189700480328746
1.780735923392614,1.3433659906098707,1201,-15,18.994583018835637,25.189700480328746
1.7941661582478108,1.3433525601077991,1201,-15,18.994583018835637,25.189700480328746
1.8075962588260786,1.3433391297400081,1201,-15,18.994583018835637,25.189700480328746
1.821026225129233,1.343325699506496,1201,-15,18.994583018835637,25.189700480328746
1.8344560571590534,1.3433122694072608,1201,-15,18.994583018835637,25.189700480328746
1.8478857549172854,1.3432988394423007,1201,-15,18.994583018835637,25.189700480328746
1.8613153184056435,1.3432854096116138,1201,-15,18.994583018835637,25.189700480328746
1.8747447476258143,1.3432719799151986,1201,-15,18.994583018835637,25.189700480328746
1.8881740425794575,1.3432585503530532,1201,-15,18.994583018835637,25.189700480328746
1.9016032032682075,1.3432451209251761,1201,-15,18.994583018835637,25.189700480328746
1.9150322296936768,1.3432316916315654,1201,-15,18.994583018835637,25.189700480328746
1.9284611218574574,1.3432182624722195,1201,-15,18.994583018835637,25.189700480328746
1.9418898797611224,1.343204833447137,1201,-15,18.994583018835637,25.189700480328746
1.955318503406226,1.3431914045563162,1201,-15,18.994583018835637,25.189700480328746
1.9687469927943064,1.3431779757997555,1201,-15,18.994583018835637,25.189700480328746
1.9821753479268882,1.3431645471774531,1201,-15,18.994583018835637,25.189700480328746
1.9956035688054798,1.343151118689408,1201,-15,18.994583018835637,25.189700480328746
2.0090316554315777,1.3431376903356183,1201,-15,18.994583018835637,25.189700480328746
2.022459607806667,1.3431242621160826,1201,-15,18.994583018835637,25.189700480328746
2.0358874259322213,1.3431108340307993,1201,-15,18.994583018835637,25.189700480328746
2.049315109809704,1.343097406079767,1201,-15,18.994583018835637,25.189700480328746
2.0627426594405693,1.3430839782629842,1201,-15,18.994583018835637,25.189700480328746
2.076170074826263,1.3430705505804497,1201,-15,18.994583018835637,25.189700480328746
2.0895973559682224,1.3430571230321615,1201,-15,18.994583018835637,25.189700480328746
2.103024502867877,1.3430436956181186,1201,-15,18.994583018835637,25.189700480328746
2.1164515155266512,1.3430302683383193,1201,-15,18.994583018835637,25.189700480328746
2.1298783939459622,1.3430168411927623,1201,-15,18.994583018835637,25.189700480328746
2.1433051381272215,1.3430034141814464,1201,-15,18.994583018835637,25.189700480328746
2.156731748071834,1.3429899873043698,1201,-15,18.994583018835637,25.189700480328746
2.1701582237812023,1.3429765605615311,1201,-15,18.994583018835637,25.189700480328746
2.1835845652567207,1.3429631339529293,1201,-15,18.994583018835637,25.189700480328746
2.1970107724997843,1.3429497074785626,1201,-15,18.994583018835637,25.189700480328746
2.2104368455117798,1.3429362811384298,1201,-15,18.994583018835637,25.189700480328746
2.2238627842940923,1.3429228549325294,1201,-15,18.994583018835637,25.189700480328746
2.2372885888481036,1.34290942886086,1201,-15,18.994583018835637,25.189700480328746
2.250714259175192,1.3428960029234203,1201,-15,18.994583018835637,25.189700480328746
2.2641397952767335,1.3428825771202089,1201,-15,18.994583018835637,25.189700480328746
2.2775651971541007,1.3428691514512243,1201,-15,18.994583018835637,25.189700480328746
2.2909904648086648,1.3428557259164655,1201,-15,18.994583018835637,25.189700480328746
2.3044155982417927,1.3428423005159307,1201,-15,18.994583018835637,25.189700480328746
2.3178405974548535,1.3428288752496187,1201,-15,18.994583018835637,25.189700480328746
2.331265462449209,1.342815450117528,1201,-15,18.994583018835637,25.189700480328746
2.3446901932262234,1.3428020251196575,1201,-15,18.994583018835637,25.189700480328746
2.358114789787258,1.3427886002560057,1201,-15,18.994583018835637,25.189700480328746
2.371539252133671,1.342775175526571,1201,-15,18.994583018835637,25.189700480328746
2.384963580266822,1.3427617509313525,1201,-15,18.994583018835637,25.189700480328746
2.398387774188067,1.3427483264703486,1201,-15,18.994583018835637,25.189700480328746
2.4118118338987626,1.342734902143558,1201,-15,18.994583018835637,25.189700480328746
2.4252357594002634,1.342721477950979,1201,-15,18.994583018835637,25.189700480328746
2.438659550693922,1.3427080538926108,1201,-15,18.994583018835637,25.189700480328746
2.452083207781092,1.342694629968452,1201,-15,18.994583018835637,25.189700480328746
2.4655067306631255,1.3426812061785005,1201,-15,18.994583018835637,25.189700480328746
2.4789301193413733,1.3426677825227558,1201,-15,18.994583018835637,25.189700480328746
2.4923533738171852,1.342654359001216,1201,-15,18.994583018835637,25.189700480328746
2.505776494091912,1.3426409356138802,1201,-15,18.994583018835637,25.189700480328746
2.5191994801669018,1.3426275123607467,1201,-15,18.994583018835637,25.189700480328746
2.5326223320435037,1.3426140892418144,1201,-15,18.994583018835637,25.189700480328746
2.546045049723066,1.3426006662570817,1201,-15,18.994583018835637,25.189700480328746
2.559467633206935,1.3425872434065473,1201,-15,18.994583018835637,25.189700480328746
2.572890082496459,1.3425738206902103,1201,-15,18.994583018835637,25.189700480328746
2.5863123975929834,1.3425603981080685,1201,-15,18.994583018835637,25.189700480328746
2.5997345784978547,1.3425469756601214,1201,-15,18.994583018835637,25.189700480328746
2.6131566252124188,1.3425335533463671,1201,-15,18.994583018835637,25.189700480328746
2.6265785377380215,1.3425201311668045,1201,-15,18.994583018835637,25.189700480328746
2.6400003160760073,1.3425067091214322,1201,-15,18.994583018835637,25.189700480328746
2.6534219602277216,1.3424932872102486,1201,-15,18.994583018835637,25.189700480328746
2.6668434701945087,1.342479865433253,1201,-15,18.994583018835637,25.189700480328746
2.680264845977713,1.3424664437904434,1201,-15,18.994583018835637,25.189700480328746
2.693686087578679,1.3424530222818187,1201,-15,18.994583018835637,25.189700480328746
2.7071071949987497,1.3424396009073778,1201,-15,18.994583018835637,25.189700480328746
2.72052816823927,1.3424261796671189,1201,-15,18.994583018835637,25.189700480328746
2.733949007301582,1.342412758561041,1201,-15,18.994583018835637,25.189700480328746
2.7473697121870306,1.3423993375891425,1201,-15,18.994583018835637,25.189700480328746
2.7607902828969575,1.3423859167514225,1201,-15,18.994583018835637,25.189700480328746
2.7742107194327073,1.3423724960478791,1201,-15,18.994583018835637,25.189700480328746
2.787631021795622,1.3423590754785113,1201,-15,18.994583018835637,25.189700480328746
2.801051189987044,1.3423456550433175,1201,-15,18.994583018835637,25.189700480328746
2.814471224008317,1.3423322347422968,1201,-15,18.994583018835637,25.189700480328746
2.827891123860783,1.3423188145754472,1201,-15,18.994583018835637,25.189700480328746
2.8413108895457846,1.342305394542768,1201,-15,18.994583018835637,25.189700480328746
2.8547305210646643,1.3422919746442576,1201,-15,18.994583018835637,25.189700480328746
2.868150018418764,1.3422785548799145,1201,-15,18.994583018835637,25.189700480328746
2.8815693816094248,1.3422651352497377,1201,-15,18.994583018835637,25.189700480328746
2.8949886106379905,1.3422517157537257,1201,-15,18.994583018835637,25.189700480328746
2.9084077055058035,1.3422382963918769,1201,-15,18.994583018835637,25.189700480328746
2.921826666214204,1.3422248771641903,1201,-15,18.994583018835637,25.189700480328746
2.9352454927645355,1.3422114580706643,1201,-15,18.994583018835637,25.189700480328746
2.9486641851581386,1.342198039111298,1201,-15,18.994583018835637,25.189700480328746
2.9620827433963557,1.3421846202860894,1201,-15,18.994583018835637,25.189700480328746
2.9755011674805276,1.3421712015950378,1201,-15,18.994583018835637,25.189700480328746
2.9889194574119973,1.3421577830381415,1201,-15,18.994583018835637,25.189700480328746
3.0023376131921062,1.3421443646153992,1201,-15,18.994583018835637,25.189700480328746
3.015755634822196,1.3421309463268096,1201,-15,18.994583018835637,25.189700480328746
3.0291735223036067,1.3421175281723714,1201,-15,18.994583018835637,25.189700480328746
3.0425912756376814,1.342104110152083,1201,-15,18.994583018835637,25.189700480328746
3.056008894825761,1.3420906922659435,1201,-15,18.994583018835637,25.189700480328746
3.0694263798691863,1.342077274513951,1201,-15,18.994583018835637,25.189700480328746
3.0828437307693,1.342063856896105,1201,-15,18.994583018835637,25.189700480328746
3.0962609475274436,1.3420504394124033,1201,-15,18.994583018835637,25.189700480328746
3.109678030144957,1.3420370220628448,1201,-15,18.994583018835637,25.189700480328746
