Vout,Iout,Irradiance,Temperature,MaxVoltage,MaxPower
5.7799444236113115e-06,0.001156,1,3,0.20950845757978373,0.00019830192842100494
1.7339726394191038e-05,0.001156,1,3,0.20950845757978373,0.00019830192842100494
2.8899273357302772e-05,0.0011559941044555764,1,3,0.20950845757978373,0.00019830192842100494
4.045854332894017e-05,0.0011559825446736058,1,3,0.20950845757978373,0.00019830192842100494
5.20175225880016e-05,0.0011559709851272323,1,3,0.20950845757978373,0.00019830192842100494
6.357622461297034e-05,0.0011559594258584165,1,3,0.20950845757978373,0.00019830192842100494
7.513466184574698e-05,0.0011559478668803135,1,3,0.20950845757978373,0.00019830192842100494
8.669284577114967e-05,0.0011559363081794444,1,3,0.20950845757978373,0.00019830192842100494
9.825078699042558e-05,0.0011559247497433674,1,3,0.20950845757978373,0.00019830192842100494
0.00010980849528923403,0.0011559131915605978,1,3,0.20950845757978373,0.00019830192842100494
0.00012136597970039931,0.0011559016336205345,1,3,0.20950845757978373,0.00019830192842100494
0.0001329232485618348,0.0011558900759133916,1,3,0.20950845757978373,0.00019830192842100494
0.00014448030957001063,0.0011558785184301362,1,3,0.20950845757978373,0.00019830192842100494
0.00015603716982930734,0.0011558669611624304,1,3,0.20950845757978373,0.00019830192842100494
0.00016759383589757203,0.0011558554041025781,1,3,0.20950845757978373,0.00019830192842100494
0.00017915031382816966,0.0011558438472434745,1,3,0.20950845757978373,0.00019830192842100494
0.00019070660920879866,0.001155832290578562,1,3,0.20950845757978373,0.00019830192842100494
0.00020226272719731998,0.001155820734101787,1,3,0.20950845757978373,0.00019830192842100494
0.00021381867255482954,0.0011558091778075621,1,3,0.20950845757978373,0.00019830192842100494
0.0002253744496761859,0.0011557976216907291,1,3,0.20950845757978373,0.00019830192842100494
0.00023693006261818922,0.0011557860657465274,1,3,0.20950845757978373,0.00019830192842100494
0.0002484855151255918,0.0011557745099705615,1,3,0.20950845757978373,0.00019830192842100494
0.00026004081065510783,0.0011557629543587752,1,3,0.20950845757978373,0.00019830192842100494
0.0002715959523975752,0.0011557513989074234,1,3,0.20950845757978373,0.00019830192842100494
0.0002831509432984126,0.0011557398436130495,1,3,0.20950845757978373,0.00019830192842100494
0.0002947057860765026,0.0011557282884724625,1,3,0.20950845757978373,0.00019830192842100494
0.0003062604832416213,0.001155716733482717,1,3,0.20950845757978373,0.00019830192842100494
0.0003178150371105276,0.0011557051786410945,1,3,0.20950845757978373,0.00019830192842100494
0.00032936944982181417,0.001155693623945085,1,3,0.20950845757978373,0.00019830192842100494
0.000340923723349616,0.0011556820693923715,1,3,0.20950845757978373,0.00019830192842100494
0.00035247785951626363,0.0011556705149808157,1,3,0.20950845757978373,0.00019830192842100494
0.00036403186000396367,0.0011556589607084433,1,3,0.20950845757978373,0.00019830192842100494
0.0003755857263655799,0.0011556474065734321,1,3,0.20950845757978373,0.00019830192842100494
0.0003871394600345851,0.0011556358525740998,1,3,0.20950845757978373,0.00019830192842100494
0.00039869306233424734,0.0011556242987088936,1,3,0.20950845757978373,0.00019830192842100494
0.00041024653448610914,0.0011556127449763802,1,3,0.20950845757978373,0.00019830192842100494
0.0004217998776178147,0.0011556011913752358,1,3,0.20950845757978373,0.00019830192842100494
0.0004333530927703337,0.0011555896379042392,1,3,0.20950845757978373,0.00019830192842100494
0.0004449061809046316,0.001155578084562263,1,3,0.20950845757978373,0.00019830192842100494
0.000456459142907824,0.0011555665313482657,1,3,0.20950845757978373,0.00019830192842100494
0.00046801197959885955,0.001155554978261287,1,3,0.20950845757978373,0.00019830192842100494
0.0004795646917337643,0.001155543425300439,1,3,0.20950845757978373,0.00019830192842100494
0.0004911172800104836,0.0011555318724649033,1,3,0.20950845757978373,0.00019830192842100494
0.0005026697450733501,0.0011555203197539236,1,3,0.20950845757978373,0.00019830192842100494
0.0005142220875172101,0.0011555087671668023,1,3,0.20950845757978373,0.00019830192842100494
0.0005257743078912296,0.0011554972147028947,1,3,0.20950845757978373,0.00019830192842100494
0.00053732640670241,0.001155485662361606,1,3,0.20950845757978373,0.00019830192842100494
0.0005488783844188322,0.0011554741101423873,1,3,0.20950845757978373,0.00019830192842100494
0.000560430241472651,0.0011554625580447312,1,3,0.20950845757978373,0.00019830192842100494
0.0005719819782628592,0.00115545100606817,1,3,0.20950845757978373,0.00019830192842100494
0.0005835335951578394,0.0011554394542122714,1,3,0.20950845757978373,0.00019830192842100494
0.000595085092497719,0.0011554279024766365,1,3,0.20950845757978373,0.00019830192842100494
0.0006066364705965443,0.0011554163508608966,1,3,0.20950845757978373,0.00019830192842100494
0.0006181877297442876,0.0011554047993647119,1,3,0.20950845757978373,0.00019830192842100494
0.0006297388702086985,0.0011553932479877683,1,3,0.20950845757978373,0.00019830192842100494
0.0006412898922370147,0.0011553816967297757,1,3,0.20950845757978373,0.00019830192842100494
0.0006528407960575399,0.0011553701455904665,1,3,0.20950845757978373,0.00019830192842100494
0.0006643915818811003,0.0011553585945695932,1,3,0.20950845757978373,0.00019830192842100494
0.0006759422499023899,0.0011553470436669279,1,3,0.20950845757978373,0.00019830192842100494
0.0006874928003012113,0.0011553354928822593,1,3,0.20950845757978373,0.00019830192842100494
0.0006990432332436219,0.0011553239422153931,1,3,0.20950845757978373,0.00019830192842100494
0.0007105935488829907,0.0011553123916661493,1,3,0.20950845757978373,0.00019830192842100494
0.0007221437473609755,0.001155300841234362,1,3,0.20950845757978373,0.00019830192842100494
0.000733693828808423,0.0011552892909198777,1,3,0.20950845757978373,0.00019830192842100494
0.0007452437933462021,0.0011552777407225548,1,3,0.20950845757978373,0.00019830192842100494
0.0007567936410859702,0.0011552661906422625,1,3,0.20950845757978373,0.00019830192842100494
0.0007683433721308818,0.0011552546406788796,1,3,0.20950845757978373,0.00019830192842100494
0.0007798929865762441,0.0011552430908322948,1,3,0.20950845757978373,0.00019830192842100494
0.0007914424845101199,0.001155231541102405,1,3,0.20950845757978373,0.00019830192842100494
0.0008029918660138851,0.0011552199914891146,1,3,0.20950845757978373,0.00019830192842100494
0.000814541131162743,0.0011552084419923358,1,3,0.20950845757978373,0.00019830192842100494
0.0008260902800262,0.001155196892611987,1,3,0.20950845757978373,0.00019830192842100494
0.0008376393126685024,0.001155185343347993,1,3,0.20950845757978373,0.00019830192842100494
0.000849188229149043,0.0011551737942002845,1,3,0.20950845757978373,0.00019830192842100494
0.0008607370295227334,0.001155162245168797,1,3,0.20950845757978373,0.00019830192842100494
0.000872285713840349,0.0011551506962534715,1,3,0.20950845757978373,0.00019830192842100494
0.0008838342821488469,0.0011551391474542527,1,3,0.20950845757978373,0.00019830192842100494
0.0008953827344916604,0.00115512759877109,1,3,0.20950845757978373,0.00019830192842100494
0.0009069310709089701,0.0011551160502039364,1,3,0.20950845757978373,0.00019830192842100494
0.0009184792914379533,0.0011551045017527484,1,3,0.20950845757978373,0.00019830192842100494
0.0009300273961130158,0.001155092953417486,1,3,0.20950845757978373,0.00019830192842100494
0.0009415753849660048,0.0011550814051981117,1,3,0.20950845757978373,0.00019830192842100494
0.0009531232580264062,0.0011550698570945916,1,3,0.20950845757978373,0.00019830192842100494
0.0009646710153215259,0.0011550583091068933,1,3,0.20950845757978373,0.00019830192842100494
0.0009762186568766578,0.0011550467612349879,1,3,0.20950845757978373,0.00019830192842100494
0.000987766182715238,0.0011550352134788474,1,3,0.20950845757978373,0.00019830192842100494
0.0009993135928589888,0.0011550236658384471,1,3,0.20950845757978373,0.00019830192842100494
0.0010108608873280495,0.0011550121183137633,1,3,0.20950845757978373,0.00019830192842100494
0.0010224080661410987,0.0011550005709047744,1,3,0.20950845757978373,0.00019830192842100494
0.001033955129315467,0.00115498902361146,1,3,0.20950845757978373,0.00019830192842100494
0.0010455020768672396,0.0011549774764338017,1,3,0.20950845757978373,0.00019830192842100494
0.0010570489088113535,0.001154965929371782,1,3,0.20950845757978373,0.00019830192842100494
0.001068595625161685,0.0011549543824253851,1,3,0.20950845757978373,0.00019830192842100494
0.001080142225931132,0.0011549428355945956,1,3,0.20950845757978373,0.00019830192842100494
0.0010916887111316882,0.0011549312888793999,1,3,0.20950845757978373,0.00019830192842100494
0.001103235080774513,0.0011549197422797853,1,3,0.20950845757978373,0.00019830192842100494
0.0011147813348699968,0.0011549081957957393,1,3,0.20950845757978373,0.00019830192842100494
0.001126327473427819,0.0011548966494272512,1,3,0.20950845757978373,0.00019830192842100494
0.0011378734964570026,0.0011548851031743103,1,3,0.20950845757978373,0.00019830192842100494
0.0011494194039659662,0.001154873557036907,1,3,0.20950845757978373,0.00019830192842100494
0.0011609651959625681,0.0011548620110150326,1,3,0.20950845757978373,0.00019830192842100494
0.0011725108724541515,0.0011548504651086782,1,3,0.20950845757978373,0.00019830192842100494
0.0011840564334475838,0.0011548389193178363,1,3,0.20950845757978373,0.00019830192842100494
0.0011956018789492917,0.0011548273736424993,1,3,0.20950845757978373,0.00019830192842100494
0.0012071472089652973,0.0011548158280826604,1,3,0.20950845757978373,0.00019830192842100494
0.0012186924235012473,0.0011548042826383133,1,3,0.20950845757978373,0.00019830192842100494
0.001230237522562443,0.0011547927373094517,1,3,0.20950845757978373,0.00019830192842100494
0.0012417825061538674,0.0011547811920960703,1,3,0.20950845757978373,0.00019830192842100494
0.0012533273742802073,0.0011547696469981637,1,3,0.20950845757978373,0.00019830192842100494
0.0012648721269458787,0.001154758102015727,1,3,0.20950845757978373,0.00019830192842100494
0.0012764167641550466,0.001154746557148755,1,3,0.20950845757978373,0.00019830192842100494
0.0012879612859116438,0.0011547350123972439,1,3,0.20950845757978373,0.00019830192842100494
0.0012995056922193897,0.0011547234677611892,1,3,0.20950845757978373,0.00019830192842100494
0.001311049983081806,0.001154711923240587,1,3,0.20950845757978373,0.00019830192842100494
0.001322594158502233,0.0011547003788354338,1,3,0.20950845757978373,0.00019830192842100494
0.0013341382184838412,0.0011546888345457258,1,3,0.20950845757978373,0.00019830192842100494
0.001345682163029648,0.0011546772903714597,1,3,0.20950845757978373,0.00019830192842100494
0.001357225992142525,0.0011546657463126326,1,3,0.20950845757978373,0.00019830192842100494
0.0013687697058252135,0.0011546542023692411,1,3,0.20950845757978373,0.00019830192842100494
0.0013803133040803325,0.0011546426585412827,1,3,0.20950845757978373,0.00019830192842100494
0.0013918567869103872,0.0011546311148287545,1,3,0.20950845757978373,0.00019830192842100494
0.0014034001543177794,0.0011546195712316537,1,3,0.20950845757978373,0.00019830192842100494
0.001414943406304815,0.001154608027749978,1,3,0.20950845757978373,0.00019830192842100494
0.001426486542873711,0.001154596484383725,1,3,0.20950845757978373,0.00019830192842100494
0.0014380295640266034,0.0011545849411328923,1,3,0.20950845757978373,0.00019830192842100494
0.0014495724697655512,0.0011545733979974777,1,3,0.20950845757978373,0.00019830192842100494
0.0014611152600925445,0.0011545618549774791,1,3,0.20950845757978373,0.00019830192842100494
0.0014726579350095098,0.0011545503120728945,1,3,0.20950845757978373,0.00019830192842100494
0.0014842004945183121,0.0011545387692837219,1,3,0.20950845757978373,0.00019830192842100494
0.001495742938620764,0.0011545272266099591,1,3,0.20950845757978373,0.00019830192842100494
0.0015072852673186253,0.0011545156840516047,1,3,0.20950845757978373,0.00019830192842100494
0.0015188274806136107,0.0011545041416086564,1,3,0.20950845757978373,0.00019830192842100494
0.0015303695785073915,0.0011544925992811128,1,3,0.20950845757978373,0.00019830192842100494
0.0015419115610015982,0.0011544810570689721,1,3,0.20950845757978373,0.00019830192842100494
0.001553453428097826,0.0011544695149722326,1,3,0.20950845757978373,0.00019830192842100494
0.0015649951797976345,0.0011544579729908925,1,3,0.20950845757978373,0.00019830192842100494
0.0015765368161025529,0.0011544464311249506,1,3,0.20950845757978373,0.00019830192842100494
0.0015880783370140824,0.001154434889374405,1,3,0.20950845757978373,0.00019830192842100494
0.0015996197425336954,0.0011544233477392542,1,3,0.20950845757978373,0.00019830192842100494
0.0016111610326628417,0.001154411806219497,1,3,0.20950845757978373,0.00019830192842100494
0.0016227022074029472,0.0011544002648151315,1,3,0.20950845757978373,0.00019830192842100494
0.0016342432667554175,0.0011543887235261564,1,3,0.20950845757978373,0.00019830192842100494
0.0016457842107216385,0.0011543771823525704,1,3,0.20950845757978373,0.00019830192842100494
0.0016573250393029776,0.001154365641294372,1,3,0.20950845757978373,0.00019830192842100494
0.0016688657525007864,0.00115435410035156,1,3,0.20950845757978373,0.00019830192842100494
0.001680406350316401,0.0011543425595241328,1,3,0.20950845757978373,0.00019830192842100494
0.0016919468327511438,0.001154331018812089,1,3,0.20950845757978373,0.00019830192842100494
0.001703487199806324,0.0011543194782154275,1,3,0.20950845757978373,0.00019830192842100494
0.0017150274514832393,0.0011543079377341469,1,3,0.20950845757978373,0.00019830192842100494
0.0017265675877831748,0.0011542963973682457,1,3,0.20950845757978373,0.00019830192842100494
0.001738107608707407,0.001154284857117723,1,3,0.20950845757978373,0.00019830192842100494
0.0017496475142572022,0.001154273316982577,1,3,0.20950845757978373,0.00019830192842100494
0.0017611873044338184,0.0011542617769628068,1,3,0.20950845757978373,0.00019830192842100494
0.0017727269792385048,0.001154250237058411,1,3,0.20950845757978373,0.00019830192842100494
0.0017842665386725045,0.0011542386972693884,1,3,0.20950845757978373,0.00019830192842100494
0.0017958059827370527,0.0011542271575957377,1,3,0.20950845757978373,0.00019830192842100494
0.0018073453114333781,0.0011542156180374577,1,3,0.20950845757978373,0.00019830192842100494
0.0018188845247627042,0.0011542040785945471,1,3,0.20950845757978373,0.00019830192842100494
0.0018304236227262491,0.0011541925392670048,1,3,0.20950845757978373,0.00019830192842100494
0.0018419626053252259,0.0011541810000548294,1,3,0.20950845757978373,0.00019830192842100494
0.0018535014725608423,0.0011541694609580198,1,3,0.20950845757978373,0.00019830192842100494
0.0018650402244343026,0.0011541579219765748,1,3,0.20950845757978373,0.00019830192842100494
0.0018765788609468074,0.001154146383110493,1,3,0.20950845757978373,0.00019830192842100494
0.001888117382099553,0.0011541348443597733,1,3,0.20950845757978373,0.00019830192842100494
0.0018996557878937323,0.0011541233057244147,1,3,0.20950845757978373,0.00019830192842100494
0.0019111940783305365,0.0011541117672044159,1,3,0.20950845757978373,0.00019830192842100494
0.0019227322534111516,0.0011541002287997757,1,3,0.20950845757978373,0.00019830192842100494
0.0019342703131367627,0.0011540886905104927,1,3,0.20950845757978373,0.00019830192842100494
0.0019458082575085525,0.001154077152336566,1,3,0.20950845757978373,0.00019830192842100494
0.001957346086527701,0.001154065614277994,1,3,0.20950845757978373,0.00019830192842100494
0.001968883800195385,0.001154054076334776,1,3,0.20950845757978373,0.00019830192842100494
0.001980421398512782,0.0011540425385069108,1,3,0.20950845757978373,0.00019830192842100494
0.001991958881481066,0.001154031000794397,1,3,0.20950845757978373,0.00019830192842100494
0.0020034962491014088,0.0011540194631972332,1,3,0.20950845757978373,0.00019830192842100494
0.0020150335013749817,0.0011540079257154187,1,3,0.20950845757978373,0.00019830192842100494
0.0020265706383029553,0.0011539963883489522,1,3,0.20950845757978373,0.00019830192842100494
0.0020381076598864974,0.0011539848510978324,1,3,0.20950845757978373,0.00019830192842100494
0.0020496445661267754,0.0011539733139620582,1,3,0.20950845757978373,0.00019830192842100494
0.002061181357024955,0.0011539617769416282,1,3,0.20950845757978373,0.00019830192842100494
0.0020727180325822016,0.0011539502400365418,1,3,0.20950845757978373,0.00019830192842100494
0.0020842545927996802,0.0011539387032467974,1,3,0.20950845757978373,0.00019830192842100494
0.0020957910376785535,0.0011539271665723938,1,3,0.20950845757978373,0.00019830192842100494
0.0021073273672199836,0.0011539156300133298,1,3,0.20950845757978373,0.00019830192842100494
0.002118863581425133,0.0011539040935696046,1,3,0.20950845757978373,0.00019830192842100494
0.002130399680295163,0.0011538925572412168,1,3,0.20950845757978373,0.00019830192842100494
0.0021419356638312337,0.0011538810210281654,1,3,0.20950845757978373,0.00019830192842100494
0.0021534715320345047,0.001153869484930449,1,3,0.20950845757978373,0.00019830192842100494
0.0021650072849061356,0.0011538579489480665,1,3,0.20950845757978373,0.00019830192842100494
0.002176542922447286,0.001153846413081017,1,3,0.20950845757978373,0.00019830192842100494
0.002188078444659114,0.001153834877329299,1,3,0.20950845757978373,0.00019830192842100494
0.002199613851542777,0.0011538233416929114,1,3,0.20950845757978373,0.00019830192842100494
0.002211149143099433,0.001153811806171853,1,3,0.20950845757978373,0.00019830192842100494
0.0022226843193302393,0.001153800270766123,1,3,0.20950845757978373,0.00019830192842100494
0.0022342193802363523,0.0011537887354757198,1,3,0.20950845757978373,0.00019830192842100494
0.00224575432581893,0.0011537772003006425,1,3,0.20950845757978373,0.00019830192842100494
0.0022572891560791266,0.00115376566524089,1,3,0.20950845757978373,0.00019830192842100494
0.0022688238710180998,0.001153754130296461,1,3,0.20950845757978373,0.00019830192842100494
0.002280358470637005,0.0011537425954673542,1,3,0.20950845757978373,0.00019830192842100494
0.0022918929549369978,0.0011537310607535687,1,3,0.20950845757978373,0.00019830192842100494
0.002303427323919233,0.0011537195261551033,1,3,0.20950845757978373,0.00019830192842100494
0.0023149615775848657,0.001153707991671957,1,3,0.20950845757978373,0.00019830192842100494
0.002326495715935052,0.001153696457304128,1,3,0.20950845757978373,0.00019830192842100494
0.0023380297389709458,0.001153684923051616,1,3,0.20950845757978373,0.00019830192842100494
0.002349563646693701,0.0011536733889144191,1,3,0.20950845757978373,0.00019830192842100494
0.0023610974391044736,0.0011536618548925366,1,3,0.20950845757978373,0.00019830192842100494
0.0023726311162044177,0.0011536503209859674,1,3,0.20950845757978373,0.00019830192842100494
0.0023841646779946867,0.00115363878719471,1,3,0.20950845757978373,0.00019830192842100494
0.0023956981244764347,0.0011536272535187634,1,3,0.20950845757978373,0.00019830192842100494
0.0024072314556508167,0.0011536157199581265,1,3,0.20950845757978373,0.00019830192842100494
0.0024187646715189853,0.0011536041865127982,1,3,0.20950845757978373,0.00019830192842100494
0.0024302977720820954,0.0011535926531827771,1,3,0.20950845757978373,0.00019830192842100494
0.0024418307573413007,0.0011535811199680623,1,3,0.20950845757978373,0.00019830192842100494
0.0024533636272977537,0.0011535695868686525,1,3,0.20950845757978373,0.00019830192842100494
0.002464896381952609,0.0011535580538845466,1,3,0.20950845757978373,0.00019830192842100494
0.00247642902130702,0.0011535465210157434,1,3,0.20950845757978373,0.00019830192842100494
0.0024879615453621395,0.001153534988262242,1,3,0.20950845757978373,0.00019830192842100494
0.002499493954119121,0.0011535234556240407,1,3,0.20950845757978373,0.00019830192842100494
0.0025110262475791186,0.001153511923101139,1,3,0.20950845757978373,0.00019830192842100494
