Vout,Iout,Irradiance,Temperature,MaxVoltage,MaxPower
0.0069322533437178495,1.386464,1171,17,21.340146471626422,29.13252258352709
0.020796631847228103,1.386464,1171,17,21.340146471626422,29.13252258352709
0.034660728491400894,1.3864569291002562,1171,17,21.340146471626422,29.13252258352709
0.04852449292215892,1.3864430647217527,1171,17,21.340146471626422,29.13252258352709
0.06238790868291612,1.3864292006258156,1171,17,21.340146471626422,29.13252258352709
0.076250991939271,1.3864153368627712,1171,17,21.340146471626422,29.13252258352709
0.09011375761358276,1.386401473448397,1171,17,21.340146471626422,29.13252258352709
0.10397621948032108,1.386387610366527,1171,17,21.340146471626422,29.13252258352709
0.11783839025423297,1.386373747602239,1171,17,21.340146471626422,29.13252258352709
0.13170028167187933,1.3863598851417585,1171,17,21.340146471626422,29.13252258352709
0.14556190456689821,1.386346022972371,1171,17,21.340146471626422,29.13252258352709
0.15942326893947717,1.3863321610823396,1171,17,21.340146471626422,29.13252258352709
0.17328438402048024,1.3863182994608307,1171,17,21.340146471626422,29.13252258352709
0.18714525833064072,1.3863044380978444,1171,17,21.340146471626422,29.13252258352709
0.20100589973519997,1.3862905769841496,1171,17,21.340146471626422,29.13252258352709
0.2148663154943419,1.3862767161112255,1171,17,21.340146471626422,29.13252258352709
0.22872651230974708,1.386262855471207,1171,17,21.340146471626422,29.13252258352709
0.24258649636756474,1.386248995056834,1171,17,21.340146471626422,29.13252258352709
0.2564462733780787,1.3862351348614046,1171,17,21.340146471626422,29.13252258352709
0.27030584861232115,1.3862212748787328,1171,17,21.340146471626422,29.13252258352709
0.2841652269358693,1.3862074151031083,1171,17,21.340146471626422,29.13252258352709
0.29802441284004183,1.3861935555292602,1171,17,21.340146471626422,29.13252258352709
0.3118834104706949,1.3861796961523225,1171,17,21.340146471626422,29.13252258352709
0.3257422236548023,1.3861658369678043,1171,17,21.340146471626422,29.13252258352709
0.3396008559249915,1.3861519779715596,1171,17,21.340146471626422,29.13252258352709
0.3534593105421902,1.3861381191597615,1171,17,21.340146471626422,29.13252258352709
0.36731759051653196,1.386124260528877,1171,17,21.340146471626422,29.13252258352709
0.38117569862665246,1.3861104020756458,1171,17,21.340146471626422,29.13252258352709
0.39503363743750136,1.3860965437970574,1171,17,21.340146471626422,29.13252258352709
0.4088914093167835,1.386082685690333,1171,17,21.340146471626422,29.13252258352709
0.4227490164501356,1.386068827752908,1171,17,21.340146471626422,29.13252258352709
0.4366064608551343,1.3860549699824145,1171,17,21.340146471626422,29.13252258352709
0.4504637443942277,1.386041112376667,1171,17,21.340146471626422,29.13252258352709
0.4643208687866703,1.3860272549336479,1171,17,21.340146471626422,29.13252258352709
0.47817783561954125,1.3860133976514946,1171,17,21.340146471626422,29.13252258352709
0.492034646357914,1.3859995405284877,1171,17,21.340146471626422,29.13252258352709
0.5058913023542434,1.3859856835630406,1171,17,21.340146471626422,29.13252258352709
0.5197478048570309,1.385971826753688,1171,17,21.340146471626422,29.13252258352709
0.5336041550188224,1.3859579700990774,1171,17,21.340146471626422,29.13252258352709
0.5474603539035925,1.3859441135979602,1171,17,21.340146471626422,29.13252258352709
0.5613164024935576,1.385930257249184,1171,17,21.340146471626422,29.13252258352709
0.5751723016954681,1.385916401051685,1171,17,21.340146471626422,29.13252258352709
0.5890280523464139,1.3859025450044806,1171,17,21.340146471626422,29.13252258352709
0.6028836552191841,1.3858886891066644,1171,17,21.340146471626422,29.13252258352709
0.6167391110272151,1.385874833357399,1171,17,21.340146471626422,29.13252258352709
0.6305944204291567,1.3858609777559119,1171,17,21.340146471626422,29.13252258352709
0.6444495840330879,1.3858471223014894,1171,17,21.340146471626422,29.13252258352709
0.6583046024004077,1.385833266993473,1171,17,21.340146471626422,29.13252258352709
0.6721594760494265,1.3858194118312546,1171,17,21.340146471626422,29.13252258352709
0.6860142054586821,1.3858055568142729,1171,17,21.340146471626422,29.13252258352709
0.6998687910699983,1.3857917019420094,1171,17,21.340146471626422,29.13252258352709
0.7137232332913124,1.3857778472139854,1171,17,21.340146471626422,29.13252258352709
0.7275775324992793,1.3857639926297598,1171,17,21.340146471626422,29.13252258352709
0.7414316890416811,1.385750138188924,1171,17,21.340146471626422,29.13252258352709
0.7552857032396474,1.3857362838911014,1171,17,21.340146471626422,29.13252258352709
0.7691395753897057,1.3857224297359445,1171,17,21.340146471626422,29.13252258352709
0.7829933057656752,1.3857085757231318,1171,17,21.340146471626422,29.13252258352709
0.7968468946204129,1.3856947218523672,1171,17,21.340146471626422,29.13252258352709
0.8107003421874278,1.3856808681233768,1171,17,21.340146471626422,29.13252258352709
0.8245536486823686,1.3856670145359073,1171,17,21.340146471626422,29.13252258352709
0.8384068143043981,1.3856531610897256,1171,17,21.340146471626422,29.13252258352709
0.8522598392374617,1.385639307784616,1171,17,21.340146471626422,29.13252258352709
0.866112723651459,1.3856254546203794,1171,17,21.340146471626422,29.13252258352709
0.8799654677033225,1.3856116015968316,1171,17,21.340146471626422,29.13252258352709
0.8938180715380173,1.385597748713803,1171,17,21.340146471626422,29.13252258352709
0.9076705352894615,1.3855838959711364,1171,17,21.340146471626422,29.13252258352709
0.9215228590813751,1.385570043368687,1171,17,21.340146471626422,29.13252258352709
0.9353750430280662,1.3855561909063208,1171,17,21.340146471626422,29.13252258352709
0.9492270872351539,1.3855423385839143,1171,17,21.340146471626422,29.13252258352709
0.963078991800237,1.3855284864013528,1171,17,21.340146471626422,29.13252258352709
0.9769307568135124,1.385514634358531,1171,17,21.340146471626422,29.13252258352709
0.9907823823583427,1.3855007824553511,1171,17,21.340146471626422,29.13252258352709
1.0046338685117833,1.385486930691723,1171,17,21.340146471626422,29.13252258352709
1.0184852153450674,1.3854730790675633,1171,17,21.340146471626422,29.13252258352709
1.0323364229240537,1.385459227582795,1171,17,21.340146471626422,29.13252258352709
1.0461874913096407,1.3854453762373469,1171,17,21.340146471626422,29.13252258352709
1.060038420558147,1.385431525031153,1171,17,21.340146471626422,29.13252258352709
1.0738892107216649,1.3854176739641526,1171,17,21.340146471626422,29.13252258352709
1.0877398618483851,1.3854038230362893,1171,17,21.340146471626422,29.13252258352709
1.1015903739828974,1.385389972247511,1171,17,21.340146471626422,29.13252258352709
1.115440747166466,1.3853761215977691,1171,17,21.340146471626422,29.13252258352709
1.1292909814372882,1.3853622710870197,1171,17,21.340146471626422,29.13252258352709
1.1431410768307282,1.3853484207152214,1171,17,21.340146471626422,29.13252258352709
1.1569910333795352,1.3853345704823354,1171,17,21.340146471626422,29.13252258352709
1.1708408511140462,1.385320720388327,1171,17,21.340146471626422,29.13252258352709
1.1846905300623694,1.3853068704331633,1171,17,21.340146471626422,29.13252258352709
1.1985400702505573,1.385293020616814,1171,17,21.340146471626422,29.13252258352709
1.2123894717027648,1.3852791709392505,1171,17,21.340146471626422,29.13252258352709
1.226238734441394,1.3852653214004473,1171,17,21.340146471626422,29.13252258352709
1.2400878584872306,1.3852514720003801,1171,17,21.340146471626422,29.13252258352709
1.2539368438595673,1.3852376227390264,1171,17,21.340146471626422,29.13252258352709
1.2677856905763183,1.3852237736163655,1171,17,21.340146471626422,29.13252258352709
1.2816343986541265,1.3852099246323781,1171,17,21.340146471626422,29.13252258352709
1.2954829681084608,1.3851960757870463,1171,17,21.340146471626422,29.13252258352709
1.3093313989537063,1.3851822270803533,1171,17,21.340146471626422,29.13252258352709
1.3231796912032472,1.385168378512284,1171,17,21.340146471626422,29.13252258352709
1.3370278448695456,1.3851545300828234,1171,17,21.340146471626422,29.13252258352709
1.3508758599642106,1.385140681791959,1171,17,21.340146471626422,29.13252258352709
1.3647237364980636,1.3851268336396774,1171,17,21.340146471626422,29.13252258352709
1.3785714744812012,1.3851129856259676,1171,17,21.340146471626422,29.13252258352709
1.3924190739230498,1.3850991377508184,1171,17,21.340146471626422,29.13252258352709
1.4062665348324155,1.38508529001422,1171,17,21.340146471626422,29.13252258352709
1.420113857217535,1.3850714424161632,1171,17,21.340146471626422,29.13252258352709
1.433961041086116,1.3850575949566386,1171,17,21.340146471626422,29.13252258352709
1.447808086445382,1.385043747635638,1171,17,21.340146471626422,29.13252258352709
1.4616549933021048,1.3850299004531543,1171,17,21.340146471626422,29.13252258352709
1.475501761662643,1.3850160534091798,1171,17,21.340146471626422,29.13252258352709
1.489348391532972,1.3850022065037078,1171,17,21.340146471626422,29.13252258352709
1.5031948829187138,1.3849883597367318,1171,17,21.340146471626422,29.13252258352709
1.5170412358251648,1.3849745131082463,1171,17,21.340146471626422,29.13252258352709
1.53088745025732,1.3849606666182452,1171,17,21.340146471626422,29.13252258352709
1.5447335262198965,1.3849468202667234,1171,17,21.340146471626422,29.13252258352709
1.5585794637173551,1.384932974053676,1171,17,21.340146471626422,29.13252258352709
1.5724252627539204,1.384919127979098,1171,17,21.340146471626422,29.13252258352709
1.5862709233335976,1.3849052820429852,1171,17,21.340146471626422,29.13252258352709
1.6001164454601897,1.3848914362453333,1171,17,21.340146471626422,29.13252258352709
1.613961829137315,1.3848775905861381,1171,17,21.340146471626422,29.13252258352709
1.6278070743684185,1.384863745065396,1171,17,21.340146471626422,29.13252258352709
1.6416521811567886,1.3848498996831036,1171,17,21.340146471626422,29.13252258352709
1.6554971495055646,1.384836054439257,1171,17,21.340146471626422,29.13252258352709
1.669341979417752,1.3848222093338531,1171,17,21.340146471626422,29.13252258352709
1.6831866708962318,1.384808364366889,1171,17,21.340146471626422,29.13252258352709
1.6970312239437695,1.3847945195383613,1171,17,21.340146471626422,29.13252258352709
1.710875638563024,1.3847806748482672,1171,17,21.340146471626422,29.13252258352709
1.7247199147565564,1.3847668302966043,1171,17,21.340146471626422,29.13252258352709
1.738564052526837,1.3847529858833694,1171,17,21.340146471626422,29.13252258352709
1.752408051876253,1.3847391416085604,1171,17,21.340146471626422,29.13252258352709
1.7662519128071137,1.3847252974721744,1171,17,21.340146471626422,29.13252258352709
1.780095635321657,1.3847114534742095,1171,17,21.340146471626422,29.13252258352709
1.7939392194220563,1.384697609614663,1171,17,21.340146471626422,29.13252258352709
1.8077826651104227,1.384683765893533,1171,17,21.340146471626422,29.13252258352709
1.821625972388813,1.384669922310817,1171,17,21.340146471626422,29.13252258352709
1.835469141259231,1.384656078866513,1171,17,21.340146471626422,29.13252258352709
1.849312171723632,1.384642235560619,1171,17,21.340146471626422,29.13252258352709
1.8631550637839296,1.3846283923931328,1171,17,21.340146471626422,29.13252258352709
1.8769978174419943,1.3846145493640527,1171,17,21.340146471626422,29.13252258352709
1.8908404326996615,1.3846007064733767,1171,17,21.340146471626422,29.13252258352709
1.904682909558729,1.384586863721103,1171,17,21.340146471626422,29.13252258352709
1.9185252480209656,1.3845730211072296,1171,17,21.340146471626422,29.13252258352709
1.932367448088108,1.3845591786317548,1171,17,21.340146471626422,29.13252258352709
1.9462095097618675,1.384545336294677,1171,17,21.340146471626422,29.13252258352709
1.9600514330439291,1.3845314940959939,1171,17,21.340146471626422,29.13252258352709
1.9738932179359556,1.3845176520357043,1171,17,21.340146471626422,29.13252258352709
1.987734864439587,1.3845038101138065,1171,17,21.340146471626422,29.13252258352709
2.001576372556444,1.3844899683302987,1171,17,21.340146471626422,29.13252258352709
2.0154177422881294,1.3844761266851793,1171,17,21.340146471626422,29.13252258352709
2.029258973636229,1.3844622851784467,1171,17,21.340146471626422,29.13252258352709
2.043100066602314,1.384448443810099,1171,17,21.340146471626422,29.13252258352709
2.0569410211879386,1.384434602580135,1171,17,21.340146471626422,29.13252258352709
2.0707818373946463,1.3844207614885533,1171,17,21.340146471626422,29.13252258352709
2.0846225152239675,1.3844069205353517,1171,17,21.340146471626422,29.13252258352709
2.09846305467742,1.384393079720529,1171,17,21.340146471626422,29.13252258352709
2.1123034557565132,1.3843792390440839,1171,17,21.340146471626422,29.13252258352709
2.1261437184627465,1.3843653985060145,1171,17,21.340146471626422,29.13252258352709
2.1399838427976086,1.3843515581063195,1171,17,21.340146471626422,29.13252258352709
2.1538238287625826,1.3843377178449974,1171,17,21.340146471626422,29.13252258352709
2.1676636763591417,1.3843238777220466,1171,17,21.340146471626422,29.13252258352709
2.1815033855887527,1.3843100377374655,1171,17,21.340146471626422,29.13252258352709
2.1953429564528775,1.384296197891253,1171,17,21.340146471626422,29.13252258352709
2.2091823889529705,1.3842823581834074,1171,17,21.340146471626422,29.13252258352709
2.2230216830904808,1.3842685186139272,1171,17,21.340146471626422,29.13252258352709
2.2368608388668525,1.3842546791828112,1171,17,21.340146471626422,29.13252258352709
2.2506998562835245,1.3842408398900576,1171,17,21.340146471626422,29.13252258352709
2.2645387353419326,1.3842270007356652,1171,17,21.340146471626422,29.13252258352709
2.278377476043508,1.3842131617196325,1171,17,21.340146471626422,29.13252258352709
2.292216078389679,1.384199322841958,1171,17,21.340146471626422,29.13252258352709
2.306054542381867,1.3841854841026402,1171,17,21.340146471626422,29.13252258352709
2.3198928680214954,1.384171645501678,1171,17,21.340146471626422,29.13252258352709
2.3337310553099804,1.3841578070390697,1171,17,21.340146471626422,29.13252258352709
2.347569104248738,1.3841439687148138,1171,17,21.340146471626422,29.13252258352709
2.3614070148391817,1.3841301305289093,1171,17,21.340146471626422,29.13252258352709
2.375244787082721,1.3841162924813544,1171,17,21.340146471626422,29.13252258352709
2.3890824209807646,1.3841024545721476,1171,17,21.340146471626422,29.13252258352709
2.402919916534718,1.384088616801288,1171,17,21.340146471626422,29.13252258352709
2.4167572737459873,1.3840747791687738,1171,17,21.340146471626422,29.13252258352709
2.4305944926159753,1.3840609416746035,1171,17,21.340146471626422,29.13252258352709
2.4444315731460824,1.384047104318776,1171,17,21.340146471626422,29.13252258352709
2.4582685153377084,1.3840332671012898,1171,17,21.340146471626422,29.13252258352709
2.4721053191922535,1.3840194300221433,1171,17,21.340146471626422,29.13252258352709
2.485941984711114,1.3840055930813355,1171,17,21.340146471626422,29.13252258352709
2.499778511895687,1.3839917562788646,1171,17,21.340146471626422,29.13252258352709
2.513614900747366,1.3839779196147295,1171,17,21.340146471626422,29.13252258352709
2.5274511512675475,1.3839640830889286,1171,17,21.340146471626422,29.13252258352709
2.5412872634576242,1.3839502467014606,1171,17,21.340146471626422,29.13252258352709
2.5551232373189885,1.383936410452324,1171,17,21.340146471626422,29.13252258352709
2.5689590728530325,1.3839225743415176,1171,17,21.340146471626422,29.13252258352709
2.582794770061146,1.3839087383690398,1171,17,21.340146471626422,29.13252258352709
2.596630328944722,1.3838949025348894,1171,17,21.340146471626422,29.13252258352709
2.610465749505149,1.3838810668390649,1171,17,21.340146471626422,29.13252258352709
2.624301031743816,1.383867231281565,1171,17,21.340146471626422,29.13252258352709
2.638136175662113,1.383853395862388,1171,17,21.340146471626422,29.13252258352709
2.6519711812614273,1.383839560581533,1171,17,21.340146471626422,29.13252258352709
2.6658060485431476,1.3838257254389983,1171,17,21.340146471626422,29.13252258352709
2.679640777508661,1.3838118904347825,1171,17,21.340146471626422,29.13252258352709
2.6934753681593553,1.3837980555688842,1171,17,21.340146471626422,29.13252258352709
2.707309820496616,1.3837842208413023,1171,17,21.340146471626422,29.13252258352709
2.7211441345218317,1.383770386252035,1171,17,21.340146471626422,29.13252258352709
2.7349783102363867,1.3837565518010813,1171,17,21.340146471626422,29.13252258352709
2.7488123476416675,1.3837427174884394,1171,17,21.340146471626422,29.13252258352709
2.7626462467390605,1.3837288833141084,1171,17,21.340146471626422,29.13252258352709
2.7764800075299503,1.3837150492780865,1171,17,21.340146471626422,29.13252258352709
2.7903136300157225,1.3837012153803725,1171,17,21.340146471626422,29.13252258352709
2.8041471141977623,1.383687381620965,1171,17,21.340146471626422,29.13252258352709
2.8179804600774534,1.3836735479998628,1171,17,21.340146471626422,29.13252258352709
2.831813667656182,1.383659714517064,1171,17,21.340146471626422,29.13252258352709
2.845646736935331,1.3836458811725676,1171,17,21.340146471626422,29.13252258352709
2.8594796679162853,1.3836320479663722,1171,17,21.340146471626422,29.13252258352709
2.8733124606004288,1.3836182148984764,1171,17,21.340146471626422,29.13252258352709
2.887145114989147,1.3836043819688788,1171,17,21.340146471626422,29.13252258352709
2.9009776310838236,1.383590549177578,1171,17,21.340146471626422,29.13252258352709
2.9148100088858406,1.3835767165245725,1171,17,21.340146471626422,29.13252258352709
2.9286422483965833,1.3835628840098613,1171,17,21.340146471626422,29.13252258352709
2.9424743496174344,1.3835490516334423,1171,17,21.340146471626422,29.13252258352709
2.9563063125497786,1.383535219395315,1171,17,21.340146471626422,29.13252258352709
2.970138137194997,1.3835213872954772,1171,17,21.340146471626422,29.13252258352709
2.9839698235544763,1.3835075553339282,1171,17,21.340146471626422,29.13252258352709
2.9978013716295964,1.3834937235106661,1171,17,21.340146471626422,29.13252258352709
3.0116327814217425,1.3834798918256899,1171,17,21.340146471626422,29.13252258352709
3.0254640529322976,1.3834660602789979,1171,17,21.340146471626422,29.13252258352709
3.0392951861626445,1.383452228870589,1171,17,21.340146471626422,29.13252258352709
3.053126181114166,1.3834383976004616,1171,17,21.340146471626422,29.13252258352709
3.0669570377882462,1.3834245664686144,1171,17,21.340146471626422,29.13252258352709
3.0807877561862678,1.383410735475046,1171,17,21.340146471626422,29.13252258352709
3.0946183363096114,1.383396904619755,1171,17,21.340146471626422,29.13252258352709
3.1084487781596617,1.3833830739027402,1171,17,21.340146471626422,29.13252258352709
3.122279081737802,1.383369243324,1171,17,21.340146471626422,29.13252258352709
3.1361092470454137,1.3833554128835328,1171,17,21.340146471626422,29.13252258352709
3.14993927408388,1.3833415825813378,1171,17,21.340146471626422,29.13252258352709
3.1637691628545834,1.3833277524174132,1171,17,21.340146471626422,29.13252258352709
3.1775989133589064,1.3833139223917579,1171,17,21.340146471626422,29.13252258352709
3.191428525598232,1.3833000925043701,1171,17,21.340146471626422,29.13252258352709
3.205257999573943,1.3832862627552487,1171,17,21.340146471626422,29.13252258352709
3.219087335287421,1.3832724331443924,1171,17,21.340146471626422,29.13252258352709
3.23291653274005,1.3832586036717998,1171,17,21.340146471626422,29.13252258352709
3.2467455919332107,1.3832447743374692,1171,17,21.340146471626422,29.13252258352709
3.2605745128682866,1.3832309451413995,1171,17,21.340146471626422,29.13252258352709
3.2744032955466595,1.3832171160835893,1171,17,21.340146471626422,29.13252258352709
3.2882319399697124,1.3832032871640372,1171,17,21.340146471626422,29.13252258352709
