Vout,Iout,Irradiance,Temperature,MaxVoltage,MaxPower
0.0014720258459053276,0.29440799999999995,261,-11,19.26881227491919,5.301710836337974
0.0044160503185648745,0.29440799999999995,261,-11,19.26881227491919,5.301710836337974
0.007360014939945323,0.29440649853335404,261,-11,19.26881227491919,5.301710836337974
0.01030390901763548,0.2944035545088814,261,-11,19.26881227491919,5.301710836337974
0.013247729057169871,0.29440061054441014,261,-11,19.26881227491919,5.301710836337974
0.016191478491224362,0.2943976666506269,261,-11,19.26881227491919,5.301710836337974
0.01913516048847981,0.29439472283088175,261,-11,19.26881227491919,5.301710836337974
0.022078777973869045,0.2943917790817421,261,-11,19.26881227491919,5.301710836337974
0.025022333647298615,0.2943888354000392,261,-11,19.26881227491919,5.301710836337974
0.027965830000962623,0.2943858917828482,261,-11,19.26881227491919,5.301710836337974
0.030909269335324514,0.29438294822746913,261,-11,19.26881227491919,5.301710836337974
0.03385265377386907,0.2943800047314098,261,-11,19.26881227491919,5.301710836337974
0.03679598527671944,0.2943770612923698,261,-11,19.26881227491919,5.301710836337974
0.039739265653206485,0.2943741179082256,261,-11,19.26881227491919,5.301710836337974
0.042682496573470896,0.2943711745770171,261,-11,19.26881227491919,5.301710836337974
0.04562567957917279,0.29436823129693496,261,-11,19.26881227491919,5.301710836337974
0.048568816093377126,0.294365288066309,261,-11,19.26881227491919,5.301710836337974
0.05151190742967868,0.29436234488359764,261,-11,19.26881227491919,5.301710836337974
0.05445495480062476,0.2943594017473778,261,-11,19.26881227491919,5.301710836337974
0.05739795932549007,0.2943564586563358,261,-11,19.26881227491919,5.301710836337974
0.06034092203745314,0.29435351560925915,261,-11,19.26881227491919,5.301710836337974
0.06328384389022078,0.2943505726050286,261,-11,19.26881227491919,5.301710836337974
0.06622672576414271,0.2943476296426109,261,-11,19.26881227491919,5.301710836337974
0.0691695684718558,0.29434468672105246,261,-11,19.26881227491919,5.301710836337974
0.07211237276349401,0.2943417438394728,261,-11,19.26881227491919,5.301710836337974
0.07505513933149738,0.29433880099705945,261,-11,19.26881227491919,5.301710836337974
0.07799786881505123,0.29433585819306207,261,-11,19.26881227491919,5.301710836337974
0.08094056180418355,0.29433291542678836,261,-11,19.26881227491919,5.301710836337974
0.08388321884354727,0.2943299726975991,261,-11,19.26881227491919,5.301710836337974
0.08682584043591153,0.29432703000490423,261,-11,19.26881227491919,5.301710836337974
0.08976842704538418,0.2943240873481591,261,-11,19.26881227491919,5.301710836337974
0.0927109791003866,0.29432114472686105,261,-11,19.26881227491919,5.301710836337974
0.09565349699639931,0.2943182021405458,261,-11,19.26881227491919,5.301710836337974
0.09859598109849664,0.29431525958878507,261,-11,19.26881227491919,5.301710836337974
0.10153843174368603,0.2943123170711833,261,-11,19.26881227491919,5.301710836337974
0.1044808492430678,0.2943093745873755,261,-11,19.26881227491919,5.301710836337974
0.10742323388382832,0.29430643213702457,261,-11,19.26881227491919,5.301710836337974
0.1103655859310799,0.2943034897198194,261,-11,19.26881227491919,5.301710836337974
0.11330790562955945,0.2943005473354729,261,-11,19.26881227491919,5.301710836337974
0.11625019320519603,0.2942976049837199,261,-11,19.26881227491919,5.301710836337974
0.11919244886655796,0.29429466266431564,261,-11,19.26881227491919,5.301710836337974
0.1221346728061886,0.29429172037703427,261,-11,19.26881227491919,5.301710836337974
0.12507686520183944,0.29428877812166715,261,-11,19.26881227491919,5.301710836337974
0.12801902621760797,0.2942858358980217,261,-11,19.26881227491919,5.301710836337974
0.13096115600498848,0.2942828937059203,261,-11,19.26881227491919,5.301710836337974
0.1339032547038417,0.29427995154519876,261,-11,19.26881227491919,5.301710836337974
0.13684532244328984,0.2942770094157056,261,-11,19.26881227491919,5.301710836337974
0.1397873593425428,0.29427406731730094,261,-11,19.26881227491919,5.301710836337974
0.14272936551166102,0.2942711252498557,261,-11,19.26881227491919,5.301710836337974
0.14567134105225932,0.29426818321325066,261,-11,19.26881227491919,5.301710836337974
0.14861328605815666,0.29426524120737574,261,-11,19.26881227491919,5.301710836337974
0.15155520061597608,0.2942622992321294,261,-11,19.26881227491919,5.301710836337974
0.1544970848056984,0.29425935728741764,261,-11,19.26881227491919,5.301710836337974
0.15743893870117312,0.29425641537315406,261,-11,19.26881227491919,5.301710836337974
0.16038076237059032,0.2942534734892585,261,-11,19.26881227491919,5.301710836337974
0.16332255587691608,0.29425053163565723,261,-11,19.26881227491919,5.301710836337974
0.16626431927829421,0.294247589812282,261,-11,19.26881227491919,5.301710836337974
0.1692060526284177,0.29424464801906985,261,-11,19.26881227491919,5.301710836337974
0.1721477559768709,0.2942417062559627,261,-11,19.26881227491919,5.301710836337974
0.1750894293694455,0.2942387645229067,261,-11,19.26881227491919,5.301710836337974
0.17803107284843261,0.29423582281985244,261,-11,19.26881227491919,5.301710836337974
0.18097268645289222,0.29423288114675406,261,-11,19.26881227491919,5.301710836337974
0.1839142702189013,0.29422993950356924,261,-11,19.26881227491919,5.301710836337974
0.18685582417978383,0.29422699789025897,261,-11,19.26881227491919,5.301710836337974
0.18979734836632228,0.2942240563067871,261,-11,19.26881227491919,5.301710836337974
0.1927388428069534,0.29422111475312035,261,-11,19.26881227491919,5.301710836337974
0.1956803075279485,0.294218173229228,261,-11,19.26881227491919,5.301710836337974
0.1986217425535802,0.2942152317350815,261,-11,19.26881227491919,5.301710836337974
0.20156314790627616,0.29421229027065465,261,-11,19.26881227491919,5.301710836337974
0.204504523606761,0.2942093488359232,261,-11,19.26881227491919,5.301710836337974
0.20744586967418743,0.2942064074308646,261,-11,19.26881227491919,5.301710836337974
0.2103871861262572,0.29420346605545833,261,-11,19.26881227491919,5.301710836337974
0.21332847297933244,0.294200524709685,261,-11,19.26881227491919,5.301710836337974
0.21626973024853924,0.2941975833935271,261,-11,19.26881227491919,5.301710836337974
0.2192109579478623,0.29419464210696816,261,-11,19.26881227491919,5.301710836337974
0.222152156090233,0.2941917008499931,261,-11,19.26881227491919,5.301710836337974
0.22509332468761037,0.2941887596225879,261,-11,19.26881227491919,5.301710836337974
0.22803446375105596,0.2941858184247396,261,-11,19.26881227491919,5.301710836337974
0.2309755732908027,0.2941828772564364,261,-11,19.26881227491919,5.301710836337974
0.23391665331631903,0.2941799361176671,261,-11,19.26881227491919,5.301710836337974
0.23685770383636726,0.2941769950084214,261,-11,19.26881227491919,5.301710836337974
0.23979872485905823,0.29417405392869,261,-11,19.26881227491919,5.301710836337974
0.2427397163919014,0.2941711128784641,261,-11,19.26881227491919,5.301710836337974
0.2456806784418509,0.29416817185773547,261,-11,19.26881227491919,5.301710836337974
0.24862161101534855,0.29416523086649676,261,-11,19.26881227491919,5.301710836337974
0.25156251411836306,0.2941622899047409,261,-11,19.26881227491919,5.301710836337974
0.25450338775642645,0.2941593489724615,261,-11,19.26881227491919,5.301710836337974
0.25744423193466803,0.2941564080696526,261,-11,19.26881227491919,5.301710836337974
0.2603850466578447,0.29415346719630864,261,-11,19.26881227491919,5.301710836337974
0.26332583193037007,0.29415052635242445,261,-11,19.26881227491919,5.301710836337974
0.26626658775634093,0.29414758553799536,261,-11,19.26881227491919,5.301710836337974
0.2692073141395613,0.29414464475301694,261,-11,19.26881227491919,5.301710836337974
0.2721480110835652,0.29414170399748507,261,-11,19.26881227491919,5.301710836337974
0.2750886785916372,0.29413876327139593,261,-11,19.26881227491919,5.301710836337974
0.27802931666683206,0.29413582257474596,261,-11,19.26881227491919,5.301710836337974
0.280969925311992,0.294132881907532,261,-11,19.26881227491919,5.301710836337974
0.2839105045297629,0.29412994126975084,261,-11,19.26881227491919,5.301710836337974
0.28685105432261,0.29412700066139974,261,-11,19.26881227491919,5.301710836337974
0.2897915746928314,0.29412406008247605,261,-11,19.26881227491919,5.301710836337974
0.29273206564257087,0.29412111953297726,261,-11,19.26881227491919,5.301710836337974
0.2956725271738301,0.2941181790129011,261,-11,19.26881227491919,5.301710836337974
0.2986129592884789,0.2941152385222454,261,-11,19.26881227491919,5.301710836337974
0.3015533619882665,0.2941122980610082,261,-11,19.26881227491919,5.301710836337974
0.3044937352748295,0.2941093576291876,261,-11,19.26881227491919,5.301710836337974
0.30743407914970167,0.2941064172267819,261,-11,19.26881227491919,5.301710836337974
0.310374393614321,0.29410347685378935,261,-11,19.26881227491919,5.301710836337974
0.31331467867003776,0.2941005365102085,261,-11,19.26881227491919,5.301710836337974
0.3162549343181208,0.2940975961960379,261,-11,19.26881227491919,5.301710836337974
0.31919516055976394,0.29409465591127626,261,-11,19.26881227491919,5.301710836337974
0.3221353573960918,0.2940917156559222,261,-11,19.26881227491919,5.301710836337974
0.3250755248281651,0.2940887754299746,261,-11,19.26881227491919,5.301710836337974
0.3280156628569853,0.2940858352334323,261,-11,19.26881227491919,5.301710836337974
0.33095577148349986,0.29408289506629426,261,-11,19.26881227491919,5.301710836337974
0.3338958507086057,0.29407995492855943,261,-11,19.26881227491919,5.301710836337974
0.33683590053315327,0.29407701482022697,261,-11,19.26881227491919,5.301710836337974
0.3397759209579503,0.2940740747412959,261,-11,19.26881227491919,5.301710836337974
0.34271591198376494,0.2940711346917653,261,-11,19.26881227491919,5.301710836337974
0.3456558736113289,0.29406819467163453,261,-11,19.26881227491919,5.301710836337974
0.3485958058413401,0.2940652546809027,261,-11,19.26881227491919,5.301710836337974
0.3515357086744656,0.2940623147195692,261,-11,19.26881227491919,5.301710836337974
0.35447558211134345,0.29405937478763317,261,-11,19.26881227491919,5.301710836337974
0.35741542615258526,0.29405643488509403,261,-11,19.26881227491919,5.301710836337974
0.3603552407987783,0.2940534950119511,261,-11,19.26881227491919,5.301710836337974
0.3632950260504873,0.2940505551682039,261,-11,19.26881227491919,5.301710836337974
0.3662347819082561,0.29404761535385165,261,-11,19.26881227491919,5.301710836337974
0.36917450837260923,0.29404467556889397,261,-11,19.26881227491919,5.301710836337974
0.37211420544405344,0.29404173581333015,261,-11,19.26881227491919,5.301710836337974
0.3750538731230792,0.29403879608715977,261,-11,19.26881227491919,5.301710836337974
0.3779935114101619,0.2940358563903823,261,-11,19.26881227491919,5.301710836337974
0.3809331203057627,0.29403291672299725,261,-11,19.26881227491919,5.301710836337974
0.3838726998103303,0.29402997708500417,261,-11,19.26881227491919,5.301710836337974
0.386812249924301,0.2940270374764025,261,-11,19.26881227491919,5.301710836337974
0.3897517706481004,0.2940240978971919,261,-11,19.26881227491919,5.301710836337974
0.3926912619821441,0.2940211583473719,261,-11,19.26881227491919,5.301710836337974
0.39563072392683785,0.29401821882694207,261,-11,19.26881227491919,5.301710836337974
0.39857015648257943,0.294015279335902,261,-11,19.26881227491919,5.301710836337974
0.40150955964975815,0.29401233987425124,261,-11,19.26881227491919,5.301710836337974
0.404448933428756,0.2940094004419894,261,-11,19.26881227491919,5.301710836337974
0.4073882778199483,0.2940064610391162,261,-11,19.26881227491919,5.301710836337974
0.4103275928237042,0.29400352166563115,261,-11,19.26881227491919,5.301710836337974
0.4132668784403867,0.2940005823215339,261,-11,19.26881227491919,5.301710836337974
0.41620613467035383,0.29399764300682407,261,-11,19.26881227491919,5.301710836337974
0.4191453615139586,0.2939947037215013,261,-11,19.26881227491919,5.301710836337974
0.4220845589715493,0.2939917644655653,261,-11,19.26881227491919,5.301710836337974
0.4250237270434702,0.2939888252390156,261,-11,19.26881227491919,5.301710836337974
0.4279628657300615,0.29398588604185194,261,-11,19.26881227491919,5.301710836337974
0.4309019750316599,0.29398294687407395,261,-11,19.26881227491919,5.301710836337974
0.433841054948599,0.2939800077356813,261,-11,19.26881227491919,5.301710836337974
0.43678010548120905,0.2939770686266736,261,-11,19.26881227491919,5.301710836337974
0.43971912662981755,0.2939741295470506,261,-11,19.26881227491919,5.301710836337974
0.4426581183947495,0.29397119049681186,261,-11,19.26881227491919,5.301710836337974
0.4455970807763276,0.2939682514759572,261,-11,19.26881227491919,5.301710836337974
0.44853601377487184,0.29396531248448615,261,-11,19.26881227491919,5.301710836337974
0.45147491739070084,0.29396237352239846,261,-11,19.26881227491919,5.301710836337974
0.45441379162413065,0.2939594345896938,261,-11,19.26881227491919,5.301710836337974
0.4573526364754762,0.2939564956863719,261,-11,19.26881227491919,5.301710836337974
0.46029145194505044,0.29395355681243235,261,-11,19.26881227491919,5.301710836337974
0.4632302380331649,0.2939506179678749,261,-11,19.26881227491919,5.301710836337974
0.4661689947401297,0.2939476791526992,261,-11,19.26881227491919,5.301710836337974
0.46910772206625384,0.293944740366905,261,-11,19.26881227491919,5.301710836337974
0.47204642001184494,0.2939418016104919,261,-11,19.26881227491919,5.301710836337974
0.47498508857720984,0.29393886288345966,261,-11,19.26881227491919,5.301710836337974
0.4779237277626541,0.29393592418580794,261,-11,19.26881227491919,5.301710836337974
0.4808623375684824,0.29393298551753644,261,-11,19.26881227491919,5.301710836337974
0.48380091799499864,0.2939300468786449,261,-11,19.26881227491919,5.301710836337974
0.486739469042506,0.29392710826913293,261,-11,19.26881227491919,5.301710836337974
0.4896779907113069,0.29392416968900026,261,-11,19.26881227491919,5.301710836337974
0.4926164830017029,0.29392123113824664,261,-11,19.26881227491919,5.301710836337974
0.4955549459139952,0.2939182926168717,261,-11,19.26881227491919,5.301710836337974
0.49849337944848415,0.29391535412487513,261,-11,19.26881227491919,5.301710836337974
0.5014317836054701,0.2939124156622567,261,-11,19.26881227491919,5.301710836337974
0.5043701583852523,0.29390947722901606,261,-11,19.26881227491919,5.301710836337974
0.5073085037881296,0.2939065388251529,261,-11,19.26881227491919,5.301710836337974
0.5102468198144012,0.293903600450667,261,-11,19.26881227491919,5.301710836337974
0.5131851064643651,0.29390066210555793,261,-11,19.26881227491919,5.301710836337974
0.5161233637383189,0.2938977237898255,261,-11,19.26881227491919,5.301710836337974
0.5190615916365606,0.29389478550346937,261,-11,19.26881227491919,5.301710836337974
0.5219997901593874,0.29389184724648926,261,-11,19.26881227491919,5.301710836337974
0.5249379593070962,0.2938889090188848,261,-11,19.26881227491919,5.301710836337974
0.5278760990799837,0.2938859708206558,261,-11,19.26881227491919,5.301710836337974
0.5308142094783465,0.29388303265180193,261,-11,19.26881227491919,5.301710836337974
0.5337522905024807,0.2938800945123229,261,-11,19.26881227491919,5.301710836337974
0.5366903421526826,0.29387715640221834,261,-11,19.26881227491919,5.301710836337974
0.539628364429248,0.293874218321488,261,-11,19.26881227491919,5.301710836337974
0.5425663573324728,0.29387128027013165,261,-11,19.26881227491919,5.301710836337974
0.5455043208626522,0.2938683422481489,261,-11,19.26881227491919,5.301710836337974
0.5484422550200817,0.2938654042555395,261,-11,19.26881227491919,5.301710836337974
0.5513801598050568,0.29386246629230306,261,-11,19.26881227491919,5.301710836337974
0.5543180352178726,0.2938595283584394,261,-11,19.26881227491919,5.301710836337974
0.557255881258824,0.29385659045394824,261,-11,19.26881227491919,5.301710836337974
0.5601936979282058,0.2938536525788292,261,-11,19.26881227491919,5.301710836337974
0.5631314852263131,0.29385071473308205,261,-11,19.26881227491919,5.301710836337974
0.5660692431534403,0.2938477769167065,261,-11,19.26881227491919,5.301710836337974
0.5690069717098825,0.29384483912970216,261,-11,19.26881227491919,5.301710836337974
0.5719446708959338,0.29384190137206884,261,-11,19.26881227491919,5.301710836337974
0.5748823407118889,0.29383896364380613,261,-11,19.26881227491919,5.301710836337974
0.5778199811580422,0.29383602594491387,261,-11,19.26881227491919,5.301710836337974
0.580757592234688,0.2938330882753917,261,-11,19.26881227491919,5.301710836337974
0.5836951739421208,0.2938301506352393,261,-11,19.26881227491919,5.301710836337974
0.5866327262806346,0.2938272130244564,261,-11,19.26881227491919,5.301710836337974
0.5895702492505237,0.29382427544304274,261,-11,19.26881227491919,5.301710836337974
0.5925077428520822,0.293821337890998,261,-11,19.26881227491919,5.301710836337974
0.5954452070856041,0.29381840036832185,261,-11,19.26881227491919,5.301710836337974
0.5983826419513836,0.2938154628750141,261,-11,19.26881227491919,5.301710836337974
0.6013200474497147,0.29381252541107433,261,-11,19.26881227491919,5.301710836337974
0.6042574235808912,0.29380958797650225,261,-11,19.26881227491919,5.301710836337974
0.6071947703452074,0.2938066505712977,261,-11,19.26881227491919,5.301710836337974
0.610132087742957,0.2938037131954603,261,-11,19.26881227491919,5.301710836337974
0.613069375774434,0.29380077584898967,261,-11,19.26881227491919,5.301710836337974
0.6160066344399321,0.2937978385318857,261,-11,19.26881227491919,5.301710836337974
0.6189438637397455,0.2937949012441479,261,-11,19.26881227491919,5.301710836337974
0.6218810636741676,0.29379196398577617,261,-11,19.26881227491919,5.301710836337974
0.6248182342434925,0.2937890267567701,261,-11,19.26881227491919,5.301710836337974
0.6277553754480136,0.29378608955712937,261,-11,19.26881227491919,5.301710836337974
0.6306924872880252,0.29378315238685376,261,-11,19.26881227491919,5.301710836337974
0.6336295697638207,0.293780215245943,261,-11,19.26881227491919,5.301710836337974
0.6365666228756939,0.2937772781343967,261,-11,19.26881227491919,5.301710836337974
0.6395036466239385,0.2937743410522146,261,-11,19.26881227491919,5.301710836337974
0.6424406410088482,0.29377140399939644,261,-11,19.26881227491919,5.301710836337974
0.6453776060307168,0.2937684669759419,261,-11,19.26881227491919,5.301710836337974
0.648314541689838,0.2937655299818507,261,-11,19.26881227491919,5.301710836337974
0.6512514479865051,0.29376259301712254,261,-11,19.26881227491919,5.301710836337974
0.6541883249210124,0.29375965608175714,261,-11,19.26881227491919,5.301710836337974
0.657125172493653,0.29375671917575413,261,-11,19.26881227491919,5.301710836337974
0.6600619907047206,0.2937537822991133,261,-11,19.26881227491919,5.301710836337974
0.6629987795545089,0.2937508454518344,261,-11,19.26881227491919,5.301710836337974
0.6659355390433117,0.293747908633917,261,-11,19.26881227491919,5.301710836337974
0.6688722691714222,0.2937449718453609,261,-11,19.26881227491919,5.301710836337974
0.6718089699391345,0.29374203508616575,261,-11,19.26881227491919,5.301710836337974
0.674745641346742,0.29373909835633133,261,-11,19.26881227491919,5.301710836337974
0.677682283394538,0.2937361616558573,261,-11,19.26881227491919,5.301710836337974
0.6806188960828161,0.29373322498474336,261,-11,19.26881227491919,5.301710836337974
0.6835554794118703,0.29373028834298925,261,-11,19.26881227491919,5.301710836337974
0.6864920333819939,0.2937273517305946,261,-11,19.26881227491919,5.301710836337974
0.6894285579934805,0.29372441514755926,261,-11,19.26881227491919,5.301710836337974
0.6923650532466236,0.29372147859388276,261,-11,19.26881227491919,5.301710836337974
0.6953015191417167,0.29371854206956494,261,-11,19.26881227491919,5.301710836337974
0.6982379556790533,0.29371560557460547,261,-11,19.26881227491919,5.301710836337974
