Vout,Iout,Irradiance,Temperature,MaxVoltage,MaxPower
0.009787375890616437,1.9574939999999998,1561,52,22.928424291127907,44.2869461707611
0.029361946694005707,1.9574939999999998,1561,52,22.928424291127907,44.2869461707611
0.0489361195512803,1.9574840168747092,1561,52,22.928424291127907,44.2869461707611
0.06850982336949862,1.9574644423039058,1561,52,22.928424291127907,44.2869461707611
0.08808303491425395,1.9574448681320469,1561,52,22.928424291127907,44.2869461707611
0.10765577700911913,1.9574252944301862,1561,52,22.928424291127907,44.2869461707611
0.12722807072238626,1.9574057212205989,1561,52,22.928424291127907,44.2869461707611
0.14679993550168755,1.9573861484804613,1561,52,22.928424291127907,44.2869461707611
0.16637138929847406,1.9573665761887054,1561,52,22.928424291127907,44.2869461707611
0.18594244868313475,1.9573470043258834,1561,52,22.928424291127907,44.2869461707611
0.20551312895125726,1.9573274328740438,1561,52,22.928424291127907,44.2869461707611
0.22508344422171292,1.9573078618166162,1561,52,22.928424291127907,44.2869461707611
0.24465340752719575,1.9572882911383054,1561,52,22.928424291127907,44.2869461707611
0.2642230308977941,1.957268720824992,1561,52,22.928424291127907,44.2869461707611
0.283792325438133,1.9572491508636436,1561,52,22.928424291127907,44.2869461707611
0.30336130139858036,1.95722958124223,1561,52,22.928424291127907,44.2869461707611
0.32292996824097564,1.9572100119496467,1561,52,22.928424291127907,44.2869461707611
0.3424983346992997,1.957190442975643,1561,52,22.928424291127907,44.2869461707611
0.3620664088356776,1.9571708743107576,1561,52,22.928424291127907,44.2869461707611
0.3816341980920724,1.9571513059462562,1561,52,22.928424291127907,44.2869461707611
0.40120170933800126,1.9571317378740767,1561,52,22.928424291127907,44.2869461707611
0.42076894891458044,1.957112170086777,1561,52,22.928424291127907,44.2869461707611
0.4403359226751811,1.957092602577488,1561,52,22.928424291127907,44.2869461707611
0.4599026360229574,1.9570730353398682,1561,52,22.928424291127907,44.2869461707611
0.4794690939454868,1.9570534683680645,1561,52,22.928424291127907,44.2869461707611
0.4990353010467449,1.9570339016566733,1561,52,22.928424291127907,44.2869461707611
0.5186012615766211,1.9570143352007074,1561,52,22.928424291127907,44.2869461707611
0.5381669794581616,1.956994768995563,1561,52,22.928424291127907,44.2869461707611
0.5577324583127181,1.9569752030369898,1561,52,22.928424291127907,44.2869461707611
0.5772977014831598,1.9569556373210648,1561,52,22.928424291127907,44.2869461707611
0.5968627120553015,1.9569360718441668,1561,52,22.928424291127907,44.2869461707611
0.6164274928776803,1.956916506602953,1561,52,22.928424291127907,44.2869461707611
0.6359920465798131,1.9568969415943374,1561,52,22.928424291127907,44.2869461707611
0.6555563755890483,1.9568773768154715,1561,52,22.928424291127907,44.2869461707611
0.67512048214612,1.956857812263726,1561,52,22.928424291127907,44.2869461707611
0.694684368319508,1.956838247936673,1561,52,22.928424291127907,44.2869461707611
0.7142480360186902,1.9568186838320725,1561,52,22.928424291127907,44.2869461707611
0.7338114870063762,1.9567991199478556,1561,52,22.928424291127907,44.2869461707611
0.7533747229098013,1.9567795562821129,1561,52,22.928424291127907,44.2869461707611
0.7729377452311483,1.9567599928330814,1561,52,22.928424291127907,44.2869461707611
0.7925005553571708,1.9567404295991344,1561,52,22.928424291127907,44.2869461707611
0.8120631545680731,1.9567208665787694,1561,52,22.928424291127907,44.2869461707611
0.8316255440457099,1.9567013037705998,1561,52,22.928424291127907,44.2869461707611
0.851187724881152,1.956681741173345,1561,52,22.928424291127907,44.2869461707611
0.8707496980816719,1.9566621787858238,1561,52,22.928424291127907,44.2869461707611
0.8903114645771917,1.9566426166069446,1561,52,22.928424291127907,44.2869461707611
0.9098730252262339,1.9566230546357002,1561,52,22.928424291127907,44.2869461707611
0.9294343808214158,1.956603492871161,1561,52,22.928424291127907,44.2869461707611
0.9489955320945196,1.9565839313124682,1561,52,22.928424291127907,44.2869461707611
0.9685564797211734,1.956564369958829,1561,52,22.928424291127907,44.2869461707611
0.9881172243251719,1.956544808809512,1561,52,22.928424291127907,44.2869461707611
1.0076777664824645,1.9565252478638417,1561,52,22.928424291127907,44.2869461707611
1.0272381067248366,1.9565056871211939,1561,52,22.928424291127907,44.2869461707611
1.0467982455433078,1.9564861265809925,1561,52,22.928424291127907,44.2869461707611
1.0663581833912676,1.9564665662427063,1561,52,22.928424291127907,44.2869461707611
1.085917920687372,1.9564470061058439,1561,52,22.928424291127907,44.2869461707611
1.1054774578182154,1.956427446169952,1561,52,22.928424291127907,44.2869461707611
1.1250367951407974,1.956407886434612,1561,52,22.928424291127907,44.2869461707611
1.1445959329847994,1.956388326899437,1561,52,22.928424291127907,44.2869461707611
1.1641548716546872,1.9563687675640704,1561,52,22.928424291127907,44.2869461707611
1.1837136114316515,1.9563492084281824,1561,52,22.928424291127907,44.2869461707611
1.2032721525753975,1.9563296494914684,1561,52,22.928424291127907,44.2869461707611
1.2228304953257991,1.9563100907536473,1561,52,22.928424291127907,44.2869461707611
1.242388639904424,1.9562905322144595,1561,52,22.928424291127907,44.2869461707611
1.2619465865159423,1.956270973873665,1561,52,22.928424291127907,44.2869461707611
1.2815043353494278,1.9562514157310422,1561,52,22.928424291127907,44.2869461707611
1.301061886579556,1.9562318577863864,1561,52,22.928424291127907,44.2869461707611
1.3206192403677137,1.9562123000395089,1561,52,22.928424291127907,44.2869461707611
1.34017639686302,1.9561927424902346,1561,52,22.928424291127907,44.2869461707611
1.3597333562032718,1.956173185138402,1561,52,22.928424291127907,44.2869461707611
1.3792901185158137,1.9561536279838625,1561,52,22.928424291127907,44.2869461707611
1.3988466839183427,1.956134071026478,1561,52,22.928424291127907,44.2869461707611
1.4184030525196498,1.9561145142661212,1561,52,22.928424291127907,44.2869461707611
1.437959224420307,1.9560949577026745,1561,52,22.928424291127907,44.2869461707611
1.4575151997132973,1.9560754013360289,1561,52,22.928424291127907,44.2869461707611
1.4770709784846001,1.9560558451660837,1561,52,22.928424291127907,44.2869461707611
1.4966265608137306,1.9560362891927465,1561,52,22.928424291127907,44.2869461707611
1.5161819467742352,1.9560167334159306,1561,52,22.928424291127907,44.2869461707611
1.5357371364341534,1.9559971778355572,1561,52,22.928424291127907,44.2869461707611
1.555292129856438,1.9559776224515524,1561,52,22.928424291127907,44.2869461707611
1.5748469270993504,1.955958067263848,1561,52,22.928424291127907,44.2869461707611
1.5944015282168182,1.9559385122723811,1561,52,22.928424291127907,44.2869461707611
1.6139559332587712,1.9559189574770939,1561,52,22.928424291127907,44.2869461707611
1.6335101422714469,1.9558994028779317,1561,52,22.928424291127907,44.2869461707611
1.6530641552976764,1.9558798484748454,1561,52,22.928424291127907,44.2869461707611
1.6726179723771448,1.955860294267788,1561,52,22.928424291127907,44.2869461707611
1.6921715935466357,1.9558407402567173,1561,52,22.928424291127907,44.2869461707611
1.711725018840251,1.9558211864415933,1561,52,22.928424291127907,44.2869461707611
1.7312782482896207,1.9558016328223793,1561,52,22.928424291127907,44.2869461707611
1.7508312819240899,1.955782079399041,1561,52,22.928424291127907,44.2869461707611
1.7703841197708978,1.955762526171547,1561,52,22.928424291127907,44.2869461707611
1.789936761855337,1.955742973139868,1561,52,22.928424291127907,44.2869461707611
1.8094892082009046,1.9557234203039764,1561,52,22.928424291127907,44.2869461707611
1.8290414588294404,1.9557038676638472,1561,52,22.928424291127907,44.2869461707611
1.8485935137612546,1.955684315219457,1561,52,22.928424291127907,44.2869461707611
1.868145373015244,1.9556647629707837,1561,52,22.928424291127907,44.2869461707611
1.8876970366090027,1.955645210917807,1561,52,22.928424291127907,44.2869461707611
1.9072485045589214,1.9556256590605083,1561,52,22.928424291127907,44.2869461707611
1.9267997768802785,1.9556061073988698,1561,52,22.928424291127907,44.2869461707611
1.946350853587329,1.9555865559328751,1561,52,22.928424291127907,44.2869461707611
1.9659017346933816,1.9555670046625089,1561,52,22.928424291127907,44.2869461707611
1.9854524202108692,1.9555474535877568,1561,52,22.928424291127907,44.2869461707611
2.00500291015142,1.955527902708606,1561,52,22.928424291127907,44.2869461707611
2.0245532045259194,1.9555083520250436,1561,52,22.928424291127907,44.2869461707611
2.0441033033445613,1.9554888015370582,1561,52,22.928424291127907,44.2869461707611
2.06365320661691,1.9554692512446388,1561,52,22.928424291127907,44.2869461707611
2.083202914351942,1.9554497011477752,1561,52,22.928424291127907,44.2869461707611
2.1027524265580935,1.9554301512464578,1561,52,22.928424291127907,44.2869461707611
2.1223017432433027,1.9554106015406778,1561,52,22.928424291127907,44.2869461707611
2.1418508644150465,1.9553910520304267,1561,52,22.928424291127907,44.2869461707611
2.1613997900803774,1.9553715027156964,1561,52,22.928424291127907,44.2869461707611
2.180948520245956,1.9553519535964796,1561,52,22.928424291127907,44.2869461707611
2.200497054918079,1.9553324046727691,1561,52,22.928424291127907,44.2869461707611
2.220045394102712,1.9553128559445585,1561,52,22.928424291127907,44.2869461707611
2.239593537805508,1.9552933074118413,1561,52,22.928424291127907,44.2869461707611
2.259141486031839,1.9552737590746114,1561,52,22.928424291127907,44.2869461707611
2.2786892387868116,1.9552542109328637,1561,52,22.928424291127907,44.2869461707611
2.298236796075291,1.9552346629865922,1561,52,22.928424291127907,44.2869461707611
2.3177841579019183,1.955215115235792,1561,52,22.928424291127907,44.2869461707611
2.337331324271127,1.9551955676804582,1561,52,22.928424291127907,44.2869461707611
2.356878295187161,1.9551760203205863,1561,52,22.928424291127907,44.2869461707611
2.376425070654087,1.955156473156172,1561,52,22.928424291127907,44.2869461707611
2.3959716506758086,1.9551369261872107,1561,52,22.928424291127907,44.2869461707611
2.415518035256081,1.9551173794136985,1561,52,22.928424291127907,44.2869461707611
2.4350642243985203,1.9550978328356314,1561,52,22.928424291127907,44.2869461707611
2.454610218106614,1.9550782864530059,1561,52,22.928424291127907,44.2869461707611
2.4741560163837315,1.955058740265818,1561,52,22.928424291127907,44.2869461707611
2.4937016192331343,1.9550391942740646,1561,52,22.928424291127907,44.2869461707611
2.513247026657982,1.955019648477742,1561,52,22.928424291127907,44.2869461707611
2.5327922386613424,1.9550001028768473,1561,52,22.928424291127907,44.2869461707611
2.5523372552461967,1.954980557471377,1561,52,22.928424291127907,44.2869461707611
2.571882076415448,1.9549610122613281,1561,52,22.928424291127907,44.2869461707611
2.591426702171926,1.9549414672466978,1561,52,22.928424291127907,44.2869461707611
2.610971132518392,1.9549219224274832,1561,52,22.928424291127907,44.2869461707611
2.630515367457547,1.9549023778036811,1561,52,22.928424291127907,44.2869461707611
2.6500594069920322,1.9548828333752892,1561,52,22.928424291127907,44.2869461707611
2.6696032511244367,1.9548632891423046,1561,52,22.928424291127907,44.2869461707611
2.6891468998573034,1.9548437451047245,1561,52,22.928424291127907,44.2869461707611
2.708690353193125,1.9548242012625465,1561,52,22.928424291127907,44.2869461707611
2.728233611134356,1.954804657615768,1561,52,22.928424291127907,44.2869461707611
2.7477766736834117,1.9547851141643866,1561,52,22.928424291127907,44.2869461707611
2.7673195408426716,1.9547655709083998,1561,52,22.928424291127907,44.2869461707611
2.7868622126144813,1.954746027847805,1561,52,22.928424291127907,44.2869461707611
2.8064046890011594,1.9547264849826,1561,52,22.928424291127907,44.2869461707611
2.8259469700049924,1.9547069423127825,1561,52,22.928424291127907,44.2869461707611
2.8454890556282444,1.9546873998383503,1561,52,22.928424291127907,44.2869461707611
2.865030945873154,1.9546678575593006,1561,52,22.928424291127907,44.2869461707611
2.8845726407419368,1.9546483154756316,1561,52,22.928424291127907,44.2869461707611
2.904114140236791,1.9546287735873409,1561,52,22.928424291127907,44.2869461707611
2.9236554443598926,1.9546092318944264,1561,52,22.928424291127907,44.2869461707611
2.9431965531134043,1.9545896903968858,1561,52,22.928424291127907,44.2869461707611
2.962737466499469,1.9545701490947167,1561,52,22.928424291127907,44.2869461707611
2.982278184520217,1.9545506079879174,1561,52,22.928424291127907,44.2869461707611
3.0018187071777653,1.9545310670764855,1561,52,22.928424291127907,44.2869461707611
3.021359034474217,1.954511526360419,1561,52,22.928424291127907,44.2869461707611
3.040899166411664,1.9544919858397154,1561,52,22.928424291127907,44.2869461707611
3.0604391029921874,1.954472445514373,1561,52,22.928424291127907,44.2869461707611
3.079978844217859,1.9544529053843895,1561,52,22.928424291127907,44.2869461707611
3.099518390090741,1.9544333654497632,1561,52,22.928424291127907,44.2869461707611
3.1190577406128877,1.9544138257104915,1561,52,22.928424291127907,44.2869461707611
3.1385968957863444,1.9543942861665726,1561,52,22.928424291127907,44.2869461707611
3.15813585561315,1.9543747468180044,1561,52,22.928424291127907,44.2869461707611
3.1776746200953374,1.954355207664785,1561,52,22.928424291127907,44.2869461707611
3.1972131892349323,1.954335668706912,1561,52,22.928424291127907,44.2869461707611
3.2167515630339563,1.9543161299443836,1561,52,22.928424291127907,44.2869461707611
3.2362897414944247,1.9542965913771981,1561,52,22.928424291127907,44.2869461707611
3.2558277246183467,1.9542770530053528,1561,52,22.928424291127907,44.2869461707611
3.2753655124077294,1.9542575148288464,1561,52,22.928424291127907,44.2869461707611
3.294903104864573,1.9542379768476763,1561,52,22.928424291127907,44.2869461707611
3.3144405019908785,1.9542184390618407,1561,52,22.928424291127907,44.2869461707611
3.333977703788639,1.9541989014713377,1561,52,22.928424291127907,44.2869461707611
3.3535147102598453,1.954179364076165,1561,52,22.928424291127907,44.2869461707611
3.3730515214064862,1.954159826876321,1561,52,22.928424291127907,44.2869461707611
3.392588137230548,1.9541402898718037,1561,52,22.928424291127907,44.2869461707611
3.412124557734013,1.9541207530626106,1561,52,22.928424291127907,44.2869461707611
3.4316607829188626,1.9541012164487404,1561,52,22.928424291127907,44.2869461707611
3.451196812787075,1.9540816800301906,1561,52,22.928424291127907,44.2869461707611
3.470732647340627,1.9540621438069594,1561,52,22.928424291127907,44.2869461707611
3.4902682865814936,1.9540426077790447,1561,52,22.928424291127907,44.2869461707611
3.5098037305116465,1.9540230719464449,1561,52,22.928424291127907,44.2869461707611
3.529338979133059,1.9540035363091577,1561,52,22.928424291127907,44.2869461707611
3.5488740324476997,1.953984000867181,1561,52,22.928424291127907,44.2869461707611
3.5684088904575373,1.953964465620513,1561,52,22.928424291127907,44.2869461707611
3.5879435531645396,1.953944930569152,1561,52,22.928424291127907,44.2869461707611
3.6074780205706727,1.9539253957130958,1561,52,22.928424291127907,44.2869461707611
3.6270122926779016,1.9539058610523423,1561,52,22.928424291127907,44.2869461707611
3.6465463694881914,1.9538863265868895,1561,52,22.928424291127907,44.2869461707611
3.6660802510035038,1.9538667923167359,1561,52,22.928424291127907,44.2869461707611
3.685613937225801,1.953847258241879,1561,52,22.928424291127907,44.2869461707611
3.7051474281570465,1.9538277243623172,1561,52,22.928424291127907,44.2869461707611
3.7246807237991995,1.9538081906780482,1561,52,22.928424291127907,44.2869461707611
3.744213824154221,1.9537886571890704,1561,52,22.928424291127907,44.2869461707611
3.76374672922407,1.9537691238953816,1561,52,22.928424291127907,44.2869461707611
3.7832794390107063,1.95374959079698,1561,52,22.928424291127907,44.2869461707611
3.802811953516089,1.9537300578938634,1561,52,22.928424291127907,44.2869461707611
3.822344272742174,1.95371052518603,1561,52,22.928424291127907,44.2869461707611
3.8418763966909197,1.953690992673478,1561,52,22.928424291127907,44.2869461707611
3.861408325364284,1.953671460356205,1561,52,22.928424291127907,44.2869461707611
3.8809400587642227,1.9536519282342097,1561,52,22.928424291127907,44.2869461707611
3.900471596892693,1.9536323963074895,1561,52,22.928424291127907,44.2869461707611
3.92000293975165,1.9536128645760429,1561,52,22.928424291127907,44.2869461707611
3.9395340873430507,1.9535933330398676,1561,52,22.928424291127907,44.2869461707611
3.95906503966885,1.9535738016989617,1561,52,22.928424291127907,44.2869461707611
3.978595796731002,1.9535542705533235,1561,52,22.928424291127907,44.2869461707611
3.998126358531463,1.9535347396029508,1561,52,22.928424291127907,44.2869461707611
4.017656725072188,1.9535152088478418,1561,52,22.928424291127907,44.2869461707611
4.037186896355129,1.9534956782879944,1561,52,22.928424291127907,44.2869461707611
4.0567168723822435,1.9534761479234068,1561,52,22.928424291127907,44.2869461707611
4.076246653155483,1.9534566177540769,1561,52,22.928424291127907,44.2869461707611
4.095776238676802,1.953437087780003,1561,52,22.928424291127907,44.2869461707611
4.115305628948155,1.9534175580011826,1561,52,22.928424291127907,44.2869461707611
4.134834823971496,1.9533980284176142,1561,52,22.928424291127907,44.2869461707611
4.154363823748777,1.953378499029296,1561,52,22.928424291127907,44.2869461707611
4.173892628281953,1.9533589698362255,1561,52,22.928424291127907,44.2869461707611
4.193421237572977,1.9533394408384013,1561,52,22.928424291127907,44.2869461707611
4.2129496516238,1.953319912035821,1561,52,22.928424291127907,44.2869461707611
4.232477870436377,1.9533003834284828,1561,52,22.928424291127907,44.2869461707611
4.252005894012661,1.953280855016385,1561,52,22.928424291127907,44.2869461707611
4.271533722354605,1.9532613267995251,1561,52,22.928424291127907,44.2869461707611
4.291061355464158,1.9532417987779016,1561,52,22.928424291127907,44.2869461707611
4.310588793343277,1.9532222709515126,1561,52,22.928424291127907,44.2869461707611
4.330116035993912,1.9532027433203558,1561,52,22.928424291127907,44.2869461707611
4.349643083418019,1.9531832158844296,1561,52,22.928424291127907,44.2869461707611
4.369169935617545,1.9531636886437316,1561,52,22.928424291127907,44.2869461707611
4.388696592594447,1.9531441615982603,1561,52,22.928424291127907,44.2869461707611
4.408223054350676,1.9531246347480133,1561,52,22.928424291127907,44.2869461707611
4.427749320888182,1.9531051080929893,1561,52,22.928424291127907,44.2869461707611
4.447275392208921,1.9530855816331858,1561,52,22.928424291127907,44.2869461707611
4.466801268314841,1.9530660553686008,1561,52,22.928424291127907,44.2869461707611
4.486326949207898,1.9530465292992327,1561,52,22.928424291127907,44.2869461707611
4.50585243489004,1.9530270034250794,1561,52,22.928424291127907,44.2869461707611
4.5253777253632235,1.953007477746139,1561,52,22.928424291127907,44.2869461707611
4.544902820629397,1.9529879522624094,1561,52,22.928424291127907,44.2869461707611
4.564427720690512,1.952968426973889,1561,52,22.928424291127907,44.2869461707611
4.583952425548524,1.9529489018805752,1561,52,22.928424291127907,44.2869461707611
4.60347693520538,1.9529293769824667,1561,52,22.928424291127907,44.2869461707611
4.623001249663036,1.9529098522795612,1561,52,22.928424291127907,44.2869461707611
4.642525368923442,1.9528903277718568,1561,52,22.928424291127907,44.2869461707611
4.6620492929885495,1.9528708034593516,1561,52,22.928424291127907,44.2869461707611
4.68157302186031,1.9528512793420436,1561,52,22.928424291127907,44.2869461707611
4.701096555540676,1.952831755419931,1561,52,22.928424291127907,44.2869461707611
4.720619894031597,1.9528122316930117,1561,52,22.928424291127907,44.2869461707611
