Vout,Iout,Irradiance,Temperature,MaxVoltage,MaxPower
0.007610776819453659,1.5221699999999998,1301,10,20.834434535795044,31.280099878721966
0.02283218972789427,1.5221699999999998,1301,10,20.834434535795044,31.280099878721966
0.03805329318882833,1.5221622370061803,1301,10,20.834434535795044,31.280099878721966
0.05327403191956129,1.522147015593272,1301,10,20.834434535795044,31.280099878721966
0.06849438785274946,1.5221317944905872,1301,10,20.834434535795044,31.280099878721966
0.08371437873626732,1.5221165737533786,1301,10,20.834434535795044,31.280099878721966
0.0989340209530628,1.5221013533989676,1301,10,20.834434535795044,31.280099878721966
0.11415332962583982,1.522086133409606,1301,10,20.834434535795044,31.280099878721966
0.12937231871385468,1.5220709137689115,1301,10,20.834434535795044,31.280099878721966
0.14459100110243364,1.5220556944617607,1301,10,20.834434535795044,31.280099878721966
0.15980938868560274,1.5220404754741945,1301,10,20.834434535795044,31.280099878721966
0.17502749244235988,1.522025256793328,1301,10,20.834434535795044,31.280099878721966
0.19024532250707876,1.5220100384072666,1301,10,20.834434535795044,31.280099878721966
0.2054628882344954,1.5219948203050317,1301,10,20.834434535795044,31.280099878721966
0.2206801982596948,1.521979602476489,1301,10,20.834434535795044,31.280099878721966
0.23589726055348184,1.5219643849122833,1301,10,20.834434535795044,31.280099878721966
0.2511140824734922,1.52194916760378,1301,10,20.834434535795044,31.280099878721966
0.2663306708113707,1.5219339505430078,1301,10,20.834434535795044,31.280099878721966
0.2815470318363191,1.5219187337226094,1301,10,20.834434535795044,31.280099878721966
0.296763171335294,1.5219035171357933,1301,10,20.834434535795044,31.280099878721966
0.3119790946501116,1.52188830077629,1301,10,20.834434535795044,31.280099878721966
0.32719480671169726,1.5218730846383128,1301,10,20.834434535795044,31.280099878721966
0.3424103120717002,1.5218578687165196,1301,10,20.834434535795044,31.280099878721966
0.3576256149316755,1.5218426530059797,1301,10,20.834434535795044,31.280099878721966
0.37284071917002126,1.5218274375021412,1301,10,20.834434535795044,31.280099878721966
0.3880556283668423,1.5218122222008028,1301,10,20.834434535795044,31.280099878721966
0.40327034582690174,1.521797007098086,1301,10,20.834434535795044,31.280099878721966
0.4184848746008058,1.5217817921904107,1301,10,20.834434535795044,31.280099878721966
0.4336992175045594,1.5217665774744722,1301,10,20.834434535795044,31.280099878721966
0.4489133771376165,1.5217513629472197,1301,10,20.834434535795044,31.280099878721966
0.46412735589954207,1.5217361486058374,1301,10,20.834434535795044,31.280099878721966
0.47934115600539196,1.5217209344477258,1301,10,20.834434535795044,31.280099878721966
0.4945547794999088,1.5217057204704854,1301,10,20.834434535795044,31.280099878721966
0.5097682282706265,1.5216905066719009,1301,10,20.834434535795044,31.280099878721966
0.5249815040599664,1.5216752930499278,1301,10,20.834434535795044,31.280099878721966
0.5401946084764019,1.5216600796026785,1301,10,20.834434535795044,31.280099878721966
0.5554075430047651,1.5216448663284106,1301,10,20.834434535795044,31.280099878721966
0.5706203090157599,1.5216296532255154,1301,10,20.834434535795044,31.280099878721966
0.5858329077747427,1.5216144402925085,1301,10,20.834434535795044,31.280099878721966
0.6010453404498287,1.5215992275280188,1301,10,20.834434535795044,31.280099878721966
0.6162576081193734,1.521584014930781,1301,10,20.834434535795044,31.280099878721966
0.6314697117788785,1.5215688024996272,1301,10,20.834434535795044,31.280099878721966
0.6466816523473676,1.521553590233479,1301,10,20.834434535795044,31.280099878721966
0.6618934306732706,1.5215383781313407,1301,10,20.834434535795044,31.280099878721966
0.6771050475398537,1.5215231661922934,1301,10,20.834434535795044,31.280099878721966
0.6923165036702355,1.5215079544154888,1301,10,20.834434535795044,31.280099878721966
0.707527799732013,1.5214927428001432,1301,10,20.834434535795044,31.280099878721966
0.722738936341534,1.5214775313455342,1301,10,20.834434535795044,31.280099878721966
0.7379499140678415,1.5214623200509936,1301,10,20.834434535795044,31.280099878721966
0.7531607334363114,1.5214471089159052,1301,10,20.834434535795044,31.280099878721966
0.7683713949320139,1.5214318979397,1301,10,20.834434535795044,31.280099878721966
0.7835818990028136,1.5214166871218526,1301,10,20.834434535795044,31.280099878721966
0.7987922460622332,1.521401476461878,1301,10,20.834434535795044,31.280099878721966
0.8140024364920951,1.5213862659593282,1301,10,20.834434535795044,31.280099878721966
0.8292124706449605,1.5213710556137898,1301,10,20.834434535795044,31.280099878721966
0.844422348846381,1.521355845424881,1301,10,20.834434535795044,31.280099878721966
0.8596320713969767,1.5213406353922492,1301,10,20.834434535795044,31.280099878721966
0.8748416385743546,1.5213254255155688,1301,10,20.834434535795044,31.280099878721966
0.8900510506348792,1.5213102157945393,1301,10,20.834434535795044,31.280099878721966
0.9052603078153066,1.5212950062288828,1301,10,20.834434535795044,31.280099878721966
0.9204694103342935,1.5212797968183434,1301,10,20.834434535795044,31.280099878721966
0.9356783583937898,1.5212645875626838,1301,10,20.834434535795044,31.280099878721966
0.9508871521803242,1.5212493784616858,1301,10,20.834434535795044,31.280099878721966
0.9660957918661905,1.5212341695151472,1301,10,20.834434535795044,31.280099878721966
0.9813042776105427,1.5212189607228817,1301,10,20.834434535795044,31.280099878721966
0.9965126095604064,1.5212037520847166,1301,10,20.834434535795044,31.280099878721966
1.0117207878516117,1.5211885436004933,1301,10,20.834434535795044,31.280099878721966
1.0269288126096543,1.5211733352700643,1301,10,20.834434535795044,31.280099878721966
1.0421366839504913,1.521158127093294,1301,10,20.834434535795044,31.280099878721966
1.0573444019812752,1.5211429190700567,1301,10,20.834434535795044,31.280099878721966
1.0725519668010306,1.5211277112002366,1301,10,20.834434535795044,31.280099878721966
1.0877593785012798,1.5211125034837265,1301,10,20.834434535795044,31.280099878721966
1.1029666371666205,1.5210972959204276,1301,10,20.834434535795044,31.280099878721966
1.1181737428752578,1.521082088510248,1301,10,20.834434535795044,31.280099878721966
1.1333806956994965,1.5210668812531036,1301,10,20.834434535795044,31.280099878721966
1.148587495706196,1.5210516741489157,1301,10,20.834434535795044,31.280099878721966
1.1637941429571876,1.5210364671976122,1301,10,20.834434535795044,31.280099878721966
1.179000637509662,1.5210212603991262,1301,10,20.834434535795044,31.280099878721966
1.194206979416527,1.5210060537533958,1301,10,20.834434535795044,31.280099878721966
1.2094131687267369,1.5209908472603642,1301,10,20.834434535795044,31.280099878721966
1.2246192054855949,1.520975640919978,1301,10,20.834434535795044,31.280099878721966
1.2398250897350365,1.5209604347321883,1301,10,20.834434535795044,31.280099878721966
1.2550308215138868,1.52094522869695,1301,10,20.834434535795044,31.280099878721966
1.270236400858102,1.5209300228142213,1301,10,20.834434535795044,31.280099878721966
1.285441827800987,1.520914817083963,1301,10,20.834434535795044,31.280099878721966
1.3006471023734023,1.5208996115061395,1301,10,20.834434535795044,31.280099878721966
1.3158522246039497,1.5208844060807172,1301,10,20.834434535795044,31.280099878721966
1.3310571945191487,1.5208692008076652,1301,10,20.834434535795044,31.280099878721966
1.3462620121435946,1.5208539956869553,1301,10,20.834434535795044,31.280099878721966
1.3614666775001067,1.5208387907185605,1301,10,20.834434535795044,31.280099878721966
1.3766711906098659,1.5208235859024566,1301,10,20.834434535795044,31.280099878721966
1.3918755514925407,1.5208083812386206,1301,10,20.834434535795044,31.280099878721966
1.4070797601664031,1.5207931767270313,1301,10,20.834434535795044,31.280099878721966
1.422283816648435,1.520777972367669,1301,10,20.834434535795044,31.280099878721966
1.4374877209544301,1.5207627681605158,1301,10,20.834434535795044,31.280099878721966
1.4526914730990828,1.5207475641055541,1301,10,20.834434535795044,31.280099878721966
1.4678950730960747,1.5207323602027685,1301,10,20.834434535795044,31.280099878721966
1.4830985209581506,1.5207171564521442,1301,10,20.834434535795044,31.280099878721966
1.4983018166971926,1.5207019528536676,1301,10,20.834434535795044,31.280099878721966
1.5135049603242843,1.520686749407326,1301,10,20.834434535795044,31.280099878721966
1.5287079518497755,1.5206715461131073,1301,10,20.834434535795044,31.280099878721966
1.543910791283334,1.5206563429710005,1301,10,20.834434535795044,31.280099878721966
1.5591134786340024,1.5206411399809954,1301,10,20.834434535795044,31.280099878721966
1.5743160139102437,1.5206259371430821,1301,10,20.834434535795044,31.280099878721966
1.5895183971199869,1.5206107344572517,1301,10,20.834434535795044,31.280099878721966
1.6047206282706676,1.5205955319234958,1301,10,20.834434535795044,31.280099878721966
1.6199227073692668,1.5205803295418063,1301,10,20.834434535795044,31.280099878721966
1.6351246344223451,1.5205651273121759,1301,10,20.834434535795044,31.280099878721966
1.6503264094360741,1.5205499252345975,1301,10,20.834434535795044,31.280099878721966
1.6655280324162687,1.5205347233090647,1301,10,20.834434535795044,31.280099878721966
1.6807295033684133,1.5205195215355711,1301,10,20.834434535795044,31.280099878721966
1.695930822297686,1.5205043199141113,1301,10,20.834434535795044,31.280099878721966
1.7111319892089851,1.5204891184446792,1301,10,20.834434535795044,31.280099878721966
1.7263330041069476,1.52047391712727,1301,10,20.834434535795044,31.280099878721966
1.7415338669959708,1.520458715961879,1301,10,20.834434535795044,31.280099878721966
1.756734577880231,1.5204435149485012,1301,10,20.834434535795044,31.280099878721966
1.7719351367637,1.5204283140871322,1301,10,20.834434535795044,31.280099878721966
1.7871355436501601,1.520413113377768,1301,10,20.834434535795044,31.280099878721966
1.8023357985432211,1.5203979128204046,1301,10,20.834434535795044,31.280099878721966
1.8175359014463301,1.5203827124150382,1301,10,20.834434535795044,31.280099878721966
1.832735852362787,1.5203675121616653,1301,10,20.834434535795044,31.280099878721966
1.8479356512957545,1.5203523120602822,1301,10,20.834434535795044,31.280099878721966
1.8631352982482687,1.5203371121108857,1301,10,20.834434535795044,31.280099878721966
1.8783347932232486,1.5203219123134728,1301,10,20.834434535795044,31.280099878721966
1.893534136223506,1.5203067126680403,1301,10,20.834434535795044,31.280099878721966
1.9087333272517537,1.5202915131745853,1301,10,20.834434535795044,31.280099878721966
1.9239323663106118,1.520276313833105,1301,10,20.834434535795044,31.280099878721966
1.939131253402616,1.5202611146435967,1301,10,20.834434535795044,31.280099878721966
1.954329988530223,1.5202459156060577,1301,10,20.834434535795044,31.280099878721966
1.969528571695819,1.5202307167204858,1301,10,20.834434535795044,31.280099878721966
1.9847270029017219,1.520215517986878,1301,10,20.834434535795044,31.280099878721966
1.9999252821501894,1.5202003194052323,1301,10,20.834434535795044,31.280099878721966
2.015123409443422,1.5201851209755464,1301,10,20.834434535795044,31.280099878721966
2.0303213847835657,1.5201699226978176,1301,10,20.834434535795044,31.280099878721966
2.0455192081727223,1.5201547245720444,1301,10,20.834434535795044,31.280099878721966
2.060716879612945,1.520139526598224,1301,10,20.834434535795044,31.280099878721966
2.0759143991062476,1.5201243287763546,1301,10,20.834434535795044,31.280099878721966
2.0911117666546066,1.520109131106434,1301,10,20.834434535795044,31.280099878721966
2.1063089822599608,1.5200939335884607,1301,10,20.834434535795044,31.280099878721966
2.1215060459242197,1.5200787362224322,1301,10,20.834434535795044,31.280099878721966
2.1367029576492595,1.5200635390083466,1301,10,20.834434535795044,31.280099878721966
2.1518997174369323,1.5200483419462019,1301,10,20.834434535795044,31.280099878721966
2.1670963252890627,1.5200331450359967,1301,10,20.834434535795044,31.280099878721966
2.1822927812074506,1.5200179482777287,1301,10,20.834434535795044,31.280099878721966
2.197489085193877,1.5200027516713963,1301,10,20.834434535795044,31.280099878721966
2.2126852372501,1.5199875552169975,1301,10,20.834434535795044,31.280099878721966
2.2278812373778623,1.5199723589145309,1301,10,20.834434535795044,31.280099878721966
2.243077085578887,1.5199571627639943,1301,10,20.834434535795044,31.280099878721966
2.258272781854881,1.519941966765386,1301,10,20.834434535795044,31.280099878721966
2.273468326207539,1.5199267709187045,1301,10,20.834434535795044,31.280099878721966
2.2886637186385417,1.5199115752239483,1301,10,20.834434535795044,31.280099878721966
2.3038589591495553,1.5198963796811151,1301,10,20.834434535795044,31.280099878721966
2.319054047742237,1.5198811842902038,1301,10,20.834434535795044,31.280099878721966
2.3342489844182324,1.5198659890512123,1301,10,20.834434535795044,31.280099878721966
2.3494437691791763,1.5198507939641392,1301,10,20.834434535795044,31.280099878721966
2.364638402026696,1.5198355990289827,1301,10,20.834434535795044,31.280099878721966
2.37983288296241,1.5198204042457413,1301,10,20.834434535795044,31.280099878721966
2.3950272119879292,1.5198052096144132,1301,10,20.834434535795044,31.280099878721966
2.410221389104858,1.519790015134997,1301,10,20.834434535795044,31.280099878721966
2.4254154143147924,1.5197748208074908,1301,10,20.834434535795044,31.280099878721966
2.4406092876193237,1.5197596266318933,1301,10,20.834434535795044,31.280099878721966
2.455803009020038,1.519744432608203,1301,10,20.834434535795044,31.280099878721966
2.470996578518515,1.5197292387364179,1301,10,20.834434535795044,31.280099878721966
2.4861899961163303,1.5197140450165365,1301,10,20.834434535795044,31.280099878721966
2.5013832618150555,1.5196988514485574,1301,10,20.834434535795044,31.280099878721966
2.516576375616258,1.519683658032479,1301,10,20.834434535795044,31.280099878721966
2.5317693375215,1.5196684647682996,1301,10,20.834434535795044,31.280099878721966
2.5469621475323425,1.5196532716560178,1301,10,20.834434535795044,31.280099878721966
2.562154805650341,1.5196380786956318,1301,10,20.834434535795044,31.280099878721966
2.5773473118770514,1.5196228858871403,1301,10,20.834434535795044,31.280099878721966
2.592539666214023,1.5196076932305416,1301,10,20.834434535795044,31.280099878721966
2.6077318686628046,1.5195925007258342,1301,10,20.834434535795044,31.280099878721966
2.622923919224944,1.5195773083730164,1301,10,20.834434535795044,31.280099878721966
2.6381158179019817,1.519562116172087,1301,10,20.834434535795044,31.280099878721966
2.6533075646954636,1.519546924123044,1301,10,20.834434535795044,31.280099878721966
2.6684991596069283,1.5195317322258861,1301,10,20.834434535795044,31.280099878721966
2.6836906026379146,1.519516540480612,1301,10,20.834434535795044,31.280099878721966
2.6988818937899586,1.5195013488872195,1301,10,20.834434535795044,31.280099878721966
2.7140730330645972,1.519486157445708,1301,10,20.834434535795044,31.280099878721966
2.729264020463364,1.519470966156075,1301,10,20.834434535795044,31.280099878721966
2.744454855987792,1.5194557750183195,1301,10,20.834434535795044,31.280099878721966
2.759645539639413,1.5194405840324399,1301,10,20.834434535795044,31.280099878721966
2.774836071419758,1.5194253931984345,1301,10,20.834434535795044,31.280099878721966
2.7900264513303563,1.5194102025163019,1301,10,20.834434535795044,31.280099878721966
2.805216679372738,1.5193950119860407,1301,10,20.834434535795044,31.280099878721966
2.8204067555484302,1.5193798216076493,1301,10,20.834434535795044,31.280099878721966
2.8355966798589605,1.5193646313811258,1301,10,20.834434535795044,31.280099878721966
2.8507864523058557,1.5193494413064692,1301,10,20.834434535795044,31.280099878721966
2.865976072890642,1.5193342513836776,1301,10,20.834434535795044,31.280099878721966
2.881165541614844,1.5193190616127499,1301,10,20.834434535795044,31.280099878721966
2.896354858479987,1.519303871993684,1301,10,20.834434535795044,31.280099878721966
2.911544023487595,1.5192886825264789,1301,10,20.834434535795044,31.280099878721966
2.926733036639192,1.5192734932111327,1301,10,20.834434535795044,31.280099878721966
2.9419218979363024,1.519258304047644,1301,10,20.834434535795044,31.280099878721966
2.957110607380447,1.5192431150360113,1301,10,20.834434535795044,31.280099878721966
2.9722991649731494,1.5192279261762331,1301,10,20.834434535795044,31.280099878721966
2.987487570715932,1.5192127374683078,1301,10,20.834434535795044,31.280099878721966
3.002675824610317,1.519197548912234,1301,10,20.834434535795044,31.280099878721966
3.0178639266578253,1.5191823605080101,1301,10,20.834434535795044,31.280099878721966
3.033051876859978,1.5191671722556346,1301,10,20.834434535795044,31.280099878721966
3.0482396752182974,1.519151984155106,1301,10,20.834434535795044,31.280099878721966
3.063427321734303,1.5191367962064226,1301,10,20.834434535795044,31.280099878721966
3.078614816409516,1.519121608409583,1301,10,20.834434535795044,31.280099878721966
3.093802159245457,1.519106420764586,1301,10,20.834434535795044,31.280099878721966
3.108989350243644,1.5190912332714295,1301,10,20.834434535795044,31.280099878721966
3.1241763894056005,1.5190760459301123,1301,10,20.834434535795044,31.280099878721966
3.1393632767328437,1.519060858740633,1301,10,20.834434535795044,31.280099878721966
3.154550012226895,1.5190456717029897,1301,10,20.834434535795044,31.280099878721966
3.1697365958892725,1.5190304848171812,1301,10,20.834434535795044,31.280099878721966
3.1849230277214966,1.5190152980832057,1301,10,20.834434535795044,31.280099878721966
3.200109307725086,1.519000111501062,1301,10,20.834434535795044,31.280099878721966
3.2152954359015595,1.5189849250707486,1301,10,20.834434535795044,31.280099878721966
3.2304814122524377,1.5189697387922636,1301,10,20.834434535795044,31.280099878721966
3.2456672367792385,1.5189545526656056,1301,10,20.834434535795044,31.280099878721966
3.2608529094834795,1.5189393666907736,1301,10,20.834434535795044,31.280099878721966
3.276038430366681,1.5189241808677654,1301,10,20.834434535795044,31.280099878721966
3.2912237994303624,1.5189089951965797,1301,10,20.834434535795044,31.280099878721966
3.3064090166760396,1.518893809677215,1301,10,20.834434535795044,31.280099878721966
3.3215940821052334,1.51887862430967,1301,10,20.834434535795044,31.280099878721966
3.336778995719462,1.5188634390939428,1301,10,20.834434535795044,31.280099878721966
3.3519637575202434,1.518848254030032,1301,10,20.834434535795044,31.280099878721966
3.3671483675090963,1.5188330691179364,1301,10,20.834434535795044,31.280099878721966
3.382332825687538,1.518817884357654,1301,10,20.834434535795044,31.280099878721966
3.3975171320570876,1.5188026997491837,1301,10,20.834434535795044,31.280099878721966
3.4127012866192623,1.5187875152925239,1301,10,20.834434535795044,31.280099878721966
3.4278852893755816,1.5187723309876728,1301,10,20.834434535795044,31.280099878721966
3.4430691403275624,1.518757146834629,1301,10,20.834434535795044,31.280099878721966
3.458252839476724,1.5187419628333911,1301,10,20.834434535795044,31.280099878721966
3.4734363868245826,1.5187267789839576,1301,10,20.834434535795044,31.280099878721966
3.488619782372657,1.5187115952863268,1301,10,20.834434535795044,31.280099878721966
3.503803026122465,1.5186964117404973,1301,10,20.834434535795044,31.280099878721966
3.5189861180755257,1.5186812283464677,1301,10,20.834434535795044,31.280099878721966
3.5341690582333554,1.5186660451042362,1301,10,20.834434535795044,31.280099878721966
3.5493518465974723,1.5186508620138015,1301,10,20.834434535795044,31.280099878721966
3.564534483169395,1.5186356790751618,1301,10,20.834434535795044,31.280099878721966
