Vout,Iout,Irradiance,Temperature,MaxVoltage,MaxPower
0.007975053316795032,1.595026,1301,38,22.885083088643388,35.979291325716325
0.023925012484101178,1.595026,1301,38,22.885083088643388,35.979291325716325
0.03987464739273808,1.5950178654440832,1301,38,22.885083088643388,35.979291325716325
0.05582390011400184,1.595001915484916,1301,38,22.885083088643388,35.979291325716325
0.07177275171578704,1.5949859658508208,1301,38,22.885083088643388,35.979291325716325
0.08772122079543912,1.5949700165996945,1301,38,22.885083088643388,35.979291325716325
0.10366932452004703,1.5949540677496876,1301,38,22.885083088643388,35.979291325716325
0.11961707873613643,1.594938119282203,1301,38,22.885083088643388,35.979291325716325
0.13556449807109905,1.5949221711800732,1301,38,22.885083088643388,35.979291325716325
0.1515115960269946,1.594906223427452,1301,38,22.885083088643388,35.979291325716325
0.16745838506713587,1.594890276009712,1301,38,22.885083088643388,35.979291325716325
0.1834048766960113,1.5948743289133507,1301,38,22.885083088643388,35.979291325716325
0.19935108153305858,1.5948583821259052,1301,38,22.885083088643388,35.979291325716325
0.21529700938076185,1.5948424356358712,1301,38,22.885083088643388,35.979291325716325
0.23124266928750917,1.5948264894326287,1301,38,22.885083088643388,35.979291325716325
0.24718806960561424,1.5948105435063757,1301,38,22.885083088643388,35.979291325716325
0.26313321804487294,1.5947945978480635,1301,38,22.885083088643388,35.979291325716325
0.2790781217220003,1.5947786524493401,1301,38,22.885083088643388,35.979291325716325
0.2950227872062625,1.5947627073024955,1301,38,22.885083088643388,35.979291325716325
0.31096722056159865,1.5947467624004128,1301,38,22.885083088643388,35.979291325716325
0.32691142738550155,1.5947308177365231,1301,38,22.885083088643388,35.979291325716325
0.34285541284490667,1.5947148733047622,1301,38,22.885083088643388,35.979291325716325
0.35879918170931996,1.5946989290995328,1301,38,22.885083088643388,35.979291325716325
0.3747427383813967,1.5946829851156679,1301,38,22.885083088643388,35.979291325716325
0.39068608692516765,1.5946670413483979,1301,38,22.885083088643388,35.979291325716325
0.40662923109209304,1.5946510977933201,1301,38,22.885083088643388,35.979291325716325
0.42257217434511246,1.5946351544463708,1301,38,22.885083088643388,35.979291325716325
0.4385149198808444,1.5946192113037982,1301,38,22.885083088643388,35.979291325716325
0.4544574706500768,1.5946032683621394,1301,38,22.885083088643388,35.979291325716325
0.47039982937668195,1.5945873256181982,1301,38,22.885083088643388,35.979291325716325
0.48634199857507593,1.5945713830690231,1301,38,22.885083088643388,35.979291325716325
0.5022839805663339,1.5945554407118907,1301,38,22.885083088643388,35.979291325716325
0.518225777493067,1.5945394985442867,1301,38,22.885083088643388,35.979291325716325
0.5341673913331524,1.5945235565638896,1301,38,22.885083088643388,35.979291325716325
0.5501088239124093,1.594507614768557,1301,38,22.885083088643388,35.979291325716325
0.5660500769162983,1.5944916731563112,1301,38,22.885083088643388,35.979291325716325
0.58199115190072,1.5944757317253262,1301,38,22.885083088643388,35.979291325716325
0.5979320503019845,1.5944597904739164,1301,38,22.885083088643388,35.979291325716325
0.6138727734460127,1.5944438494005262,1301,38,22.885083088643388,35.979291325716325
0.6298133225568293,1.594427908503719,1301,38,22.885083088643388,35.979291325716325
0.6457536987644035,1.594411967782169,1301,38,22.885083088643388,35.979291325716325
0.6616939031118849,1.5943960272346525,1301,38,22.885083088643388,35.979291325716325
0.6776339365622848,1.5943800868600388,1301,38,22.885083088643388,35.979291325716325
0.693573800004641,1.5943641466572855,1301,38,22.885083088643388,35.979291325716325
0.7095134942597102,1.594348206625429,1301,38,22.885083088643388,35.979291325716325
0.7254530200852215,1.5943322667635806,1301,38,22.885083088643388,35.979291325716325
0.741392378180725,1.5943163270709197,1301,38,22.885083088643388,35.979291325716325
0.7573315691920693,1.5943003875466881,1301,38,22.885083088643388,35.979291325716325
0.7732705937155335,1.5942844481901866,1301,38,22.885083088643388,35.979291325716325
0.7892094523016394,1.5942685090007693,1301,38,22.885083088643388,35.979291325716325
0.8051481454586745,1.5942525699778396,1301,38,22.885083088643388,35.979291325716325
0.8210866736559399,1.5942366311208476,1301,38,22.885083088643388,35.979291325716325
0.8370250373267506,1.5942206924292843,1301,38,22.885083088643388,35.979291325716325
0.8529632368712041,1.594204753902681,1301,38,22.885083088643388,35.979291325716325
0.8689012726587366,1.594188815540604,1301,38,22.885083088643388,35.979291325716325
0.8848391450304814,1.5941728773426536,1301,38,22.885083088643388,35.979291325716325
0.9007768543014475,1.5941569393084598,1301,38,22.885083088643388,35.979291325716325
0.9167144007625291,1.5941410014376818,1301,38,22.885083088643388,35.979291325716325
0.9326517846823609,1.5941250637300046,1301,38,22.885083088643388,35.979291325716325
0.9485890063090308,1.5941091261851374,1301,38,22.885083088643388,35.979291325716325
0.9645260658716613,1.5940931888028114,1301,38,22.885083088643388,35.979291325716325
0.9804629635818688,1.5940772515827784,1301,38,22.885083088643388,35.979291325716325
0.9963996996351094,1.5940613145248095,1301,38,22.885083088643388,35.979291325716325
1.0123362742119233,1.5940453776286931,1301,38,22.885083088643388,35.979291325716325
1.028272687479082,1.5940294408942335,1301,38,22.885083088643388,35.979291325716325
1.0442089395906484,1.5940135043212504,1301,38,22.885083088643388,35.979291325716325
1.0601450306889537,1.5939975679095768,1301,38,22.885083088643388,35.979291325716325
1.076080960905501,1.593981631659059,1301,38,22.885083088643388,35.979291325716325
1.0920167303617971,1.5939656955695543,1301,38,22.885083088643388,35.979291325716325
1.107952339170123,1.5939497596409313,1301,38,22.885083088643388,35.979291325716325
1.1238877874342426,1.5939338238730687,1301,38,22.885083088643388,35.979291325716325
1.1398230752500593,1.593917888265854,1301,38,22.885083088643388,35.979291325716325
1.1557582027062194,1.5939019528191833,1301,38,22.885083088643388,35.979291325716325
1.1716931698846718,1.5938860175329612,1301,38,22.885083088643388,35.979291325716325
1.187627976861182,1.5938700824070986,1301,38,22.885083088643388,35.979291325716325
1.2035626237058088,1.5938541474415135,1301,38,22.885083088643388,35.979291325716325
1.219497110483344,1.5938382126361306,1301,38,22.885083088643388,35.979291325716325
1.2354314372537145,1.5938222779908795,1301,38,22.885083088643388,35.979291325716325
1.2513656040723615,1.5938063435056955,1301,38,22.885083088643388,35.979291325716325
1.267299610990581,1.5937904091805186,1301,38,22.885083088643388,35.979291325716325
1.2832334580558458,1.5937744750152933,1301,38,22.885083088643388,35.979291325716325
1.2991671453120979,1.5937585410099686,1301,38,22.885083088643388,35.979291325716325
1.3151006728000216,1.5937426071644967,1301,38,22.885083088643388,35.979291325716325
1.3310340405572931,1.5937266734788338,1301,38,22.885083088643388,35.979291325716325
1.346967248618812,1.5937107399529393,1301,38,22.885083088643388,35.979291325716325
1.3629002970169155,1.5936948065867753,1301,38,22.885083088643388,35.979291325716325
1.3788331857815748,1.5936788733803073,1301,38,22.885083088643388,35.979291325716325
1.3947659149405782,1.5936629403335025,1301,38,22.885083088643388,35.979291325716325
1.4106984845196981,1.5936470074463311,1301,38,22.885083088643388,35.979291325716325
1.4266308945428468,1.5936310747187654,1301,38,22.885083088643388,35.979291325716325
1.4425631450322185,1.5936151421507796,1301,38,22.885083088643388,35.979291325716325
1.4584952360084231,1.5935992097423497,1301,38,22.885083088643388,35.979291325716325
1.474427167490607,1.5935832774934535,1301,38,22.885083088643388,35.979291325716325
1.4903589394965653,1.5935673454040706,1301,38,22.885083088643388,35.979291325716325
1.5062905520428473,1.5935514134741817,1301,38,22.885083088643388,35.979291325716325
1.522222005144851,1.593535481703769,1301,38,22.885083088643388,35.979291325716325
1.5381532988169124,1.5935195500928159,1301,38,22.885083088643388,35.979291325716325
1.5540844330723869,1.593503618641307,1301,38,22.885083088643388,35.979291325716325
1.5700154079237252,1.593487687349228,1301,38,22.885083088643388,35.979291325716325
1.5859462233825414,1.593471756216566,1301,38,22.885083088643388,35.979291325716325
1.6018768794596794,1.5934558252433075,1301,38,22.885083088643388,35.979291325716325
1.6178073761652716,1.593439894429442,1301,38,22.885083088643388,35.979291325716325
1.6337377135087925,1.5934239637749579,1301,38,22.885083088643388,35.979291325716325
1.6496678914991103,1.5934080332798453,1301,38,22.885083088643388,35.979291325716325
1.6655979101445335,1.593392102944095,1301,38,22.885083088643388,35.979291325716325
1.6815277694528543,1.5933761727676976,1301,38,22.885083088643388,35.979291325716325
1.6974574694313864,1.5933602427506453,1301,38,22.885083088643388,35.979291325716325
1.7133870100870046,1.5933443128929299,1301,38,22.885083088643388,35.979291325716325
1.729316391426177,1.5933283831945444,1301,38,22.885083088643388,35.979291325716325
1.7452456134549965,1.5933124536554817,1301,38,22.885083088643388,35.979291325716325
1.761174676179209,1.5932965242757355,1301,38,22.885083088643388,35.979291325716325
1.777103579604242,1.5932805950552997,1301,38,22.885083088643388,35.979291325716325
1.7930323237352268,1.5932646659941685,1301,38,22.885083088643388,35.979291325716325
1.8089609085770235,1.5932487370923363,1301,38,22.885083088643388,35.979291325716325
1.8248893341342387,1.5932328083497982,1301,38,22.885083088643388,35.979291325716325
1.84081760041125,1.5932168797665494,1301,38,22.885083088643388,35.979291325716325
1.8567457074122182,1.5932009513425849,1301,38,22.885083088643388,35.979291325716325
1.8726736551411074,1.5931850230779008,1301,38,22.885083088643388,35.979291325716325
1.8886014436016993,1.5931690949724926,1301,38,22.885083088643388,35.979291325716325
1.9045290727976065,1.5931531670263566,1301,38,22.885083088643388,35.979291325716325
1.9204565427322873,1.593137239239489,1301,38,22.885083088643388,35.979291325716325
1.936383853409055,1.5931213116118856,1301,38,22.885083088643388,35.979291325716325
1.952311004831091,1.5931053841435439,1301,38,22.885083088643388,35.979291325716325
1.9682379970014543,1.5930894568344598,1301,38,22.885083088643388,35.979291325716325
1.9841648299230916,1.5930735296846306,1301,38,22.885083088643388,35.979291325716325
2.000091503598845,1.5930576026940528,1301,38,22.885083088643388,35.979291325716325
2.0160180180314606,1.593041675862724,1301,38,22.885083088643388,35.979291325716325
2.0319443732235944,1.593025749190641,1301,38,22.885083088643388,35.979291325716325
2.0478705691778223,1.5930098226778011,1301,38,22.885083088643388,35.979291325716325
2.0637966058966435,1.5929938963242016,1301,38,22.885083088643388,35.979291325716325
2.079722483382487,1.5929779701298399,1301,38,22.885083088643388,35.979291325716325
2.0956482016377187,1.5929620440947139,1301,38,22.885083088643388,35.979291325716325
2.1115737606646436,1.5929461182188205,1301,38,22.885083088643388,35.979291325716325
2.1274991604655127,1.592930192502158,1301,38,22.885083088643388,35.979291325716325
2.1434244010425263,1.5929142669447236,1301,38,22.885083088643388,35.979291325716325
2.159349482397837,1.5928983415465152,1301,38,22.885083088643388,35.979291325716325
2.1752744045335546,1.5928824163075308,1301,38,22.885083088643388,35.979291325716325
2.1911991674517486,1.5928664912277681,1301,38,22.885083088643388,35.979291325716325
2.207123771154454,1.5928505663072248,1301,38,22.885083088643388,35.979291325716325
2.223048215643668,1.5928346415458992,1301,38,22.885083088643388,35.979291325716325
2.23897250092136,1.592818716943789,1301,38,22.885083088643388,35.979291325716325
2.254896626989468,1.5928027925008923,1301,38,22.885083088643388,35.979291325716325
2.2708205938499053,1.592786868217207,1301,38,22.885083088643388,35.979291325716325
2.2867444015045577,1.5927709440927313,1301,38,22.885083088643388,35.979291325716325
2.302668049955292,1.5927550201274634,1301,38,22.885083088643388,35.979291325716325
2.31859153920395,1.592739096321401,1301,38,22.885083088643388,35.979291325716325
2.3345148692523567,1.5927231726745428,1301,38,22.885083088643388,35.979291325716325
2.3504380401023193,1.5927072491868866,1301,38,22.885083088643388,35.979291325716325
2.366361051755626,1.5926913258584305,1301,38,22.885083088643388,35.979291325716325
2.3822839042140527,1.5926754026891727,1301,38,22.885083088643388,35.979291325716325
2.39820659747936,1.5926594796791118,1301,38,22.885083088643388,35.979291325716325
2.414129131553294,1.5926435568282458,1301,38,22.885083088643388,35.979291325716325
2.430051506437591,1.5926276341365728,1301,38,22.885083088643388,35.979291325716325
2.445973722133975,1.592611711604091,1301,38,22.885083088643388,35.979291325716325
2.461895778644161,1.5925957892307991,1301,38,22.885083088643388,35.979291325716325
2.4778176759698525,1.5925798670166949,1301,38,22.885083088643388,35.979291325716325
2.493739414112746,1.592563944961777,1301,38,22.885083088643388,35.979291325716325
2.5096609930745295,1.5925480230660436,1301,38,22.885083088643388,35.979291325716325
2.5255824128568833,1.5925321013294929,1301,38,22.885083088643388,35.979291325716325
2.5415036734614813,1.5925161797521232,1301,38,22.885083088643388,35.979291325716325
2.55742477488999,1.592500258333933,1301,38,22.885083088643388,35.979291325716325
2.5733457171440715,1.5924843370749207,1301,38,22.885083088643388,35.979291325716325
2.5892665002253814,1.5924684159750842,1301,38,22.885083088643388,35.979291325716325
2.605187124135571,1.5924524950344223,1301,38,22.885083088643388,35.979291325716325
2.6211075888762863,1.5924365742529332,1301,38,22.885083088643388,35.979291325716325
2.637027894449169,1.592420653630615,1301,38,22.885083088643388,35.979291325716325
2.6529480408558586,1.5924047331674664,1301,38,22.885083088643388,35.979291325716325
2.6688680280979895,1.5923888128634855,1301,38,22.885083088643388,35.979291325716325
2.684787856177192,1.5923728927186709,1301,38,22.885083088643388,35.979291325716325
2.700707525095095,1.5923569727330207,1301,38,22.885083088643388,35.979291325716325
2.7166270348533232,1.5923410529065336,1301,38,22.885083088643388,35.979291325716325
2.7325463854535,1.5923251332392077,1301,38,22.885083088643388,35.979291325716325
2.7484655768972455,1.5923092137310415,1301,38,22.885083088643388,35.979291325716325
2.7643846091861772,1.5922932943820332,1301,38,22.885083088643388,35.979291325716325
2.780303482321911,1.5922773751921815,1301,38,22.885083088643388,35.979291325716325
2.7962221963060614,1.5922614561614845,1301,38,22.885083088643388,35.979291325716325
2.8121407511402396,1.5922455372899407,1301,38,22.885083088643388,35.979291325716325
2.828059146826057,1.5922296185775484,1301,38,22.885083088643388,35.979291325716325
2.8439773833651225,1.5922137000243062,1301,38,22.885083088643388,35.979291325716325
2.859895460759044,1.5921977816302122,1301,38,22.885083088643388,35.979291325716325
2.875813379009428,1.592181863395265,1301,38,22.885083088643388,35.979291325716325
2.891731138117878,1.5921659453194628,1301,38,22.885083088643388,35.979291325716325
2.9076487380860008,1.5921500274028042,1301,38,22.885083088643388,35.979291325716325
2.9235661789153977,1.5921341096452877,1301,38,22.885083088643388,35.979291325716325
2.939483460607671,1.5921181920469114,1301,38,22.885083088643388,35.979291325716325
2.955400583164423,1.5921022746076736,1301,38,22.885083088643388,35.979291325716325
2.971317546587252,1.5920863573275732,1301,38,22.885083088643388,35.979291325716325
2.987234350877759,1.5920704402066082,1301,38,22.885083088643388,35.979291325716325
3.0031509960375433,1.5920545232447771,1301,38,22.885083088643388,35.979291325716325
3.0190674820682033,1.5920386064420782,1301,38,22.885083088643388,35.979291325716325
3.034983808971337,1.5920226897985101,1301,38,22.885083088643388,35.979291325716325
3.05089997674854,1.5920067733140713,1301,38,22.885083088643388,35.979291325716325
3.06681598540141,1.5919908569887598,1301,38,22.885083088643388,35.979291325716325
3.0827318349315447,1.5919749408225743,1301,38,22.885083088643388,35.979291325716325
3.098647525340538,1.5919590248155129,1301,38,22.885083088643388,35.979291325716325
3.114563056629985,1.5919431089675744,1301,38,22.885083088643388,35.979291325716325
3.130478428801482,1.591927193278757,1301,38,22.885083088643388,35.979291325716325
3.1463936418566236,1.5919112777490592,1301,38,22.885083088643388,35.979291325716325
3.1623086957970035,1.5918953623784793,1301,38,22.885083088643388,35.979291325716325
3.178223590624217,1.5918794471670157,1301,38,22.885083088643388,35.979291325716325
3.1941383263398575,1.5918635321146668,1301,38,22.885083088643388,35.979291325716325
3.210052902945518,1.591847617221431,1301,38,22.885083088643388,35.979291325716325
3.2259673204427926,1.591831702487307,1301,38,22.885083088643388,35.979291325716325
3.2418815788332735,1.5918157879122927,1301,38,22.885083088643388,35.979291325716325
3.2577956781185544,1.591799873496387,1301,38,22.885083088643388,35.979291325716325
3.2737096183002286,1.591783959239588,1301,38,22.885083088643388,35.979291325716325
3.289623399379887,1.591768045141894,1301,38,22.885083088643388,35.979291325716325
3.3055370213591235,1.5917521312033038,1301,38,22.885083088643388,35.979291325716325
3.32145048423953,1.5917362174238157,1301,38,22.885083088643388,35.979291325716325
3.3373637880226976,1.5917203038034278,1301,38,22.885083088643388,35.979291325716325
3.35327693271022,1.5917043903421388,1301,38,22.885083088643388,35.979291325716325
3.3691899183036873,1.5916884770399469,1301,38,22.885083088643388,35.979291325716325
3.3851027448046924,1.5916725638968507,1301,38,22.885083088643388,35.979291325716325
3.401015412214826,1.5916566509128487,1301,38,22.885083088643388,35.979291325716325
3.4169279205356804,1.591640738087939,1301,38,22.885083088643388,35.979291325716325
3.4328402697688474,1.5916248254221201,1301,38,22.885083088643388,35.979291325716325
3.448752459915918,1.5916089129153905,1301,38,22.885083088643388,35.979291325716325
3.4646644909784836,1.5915930005677488,1301,38,22.885083088643388,35.979291325716325
3.4805763629581348,1.5915770883791929,1301,38,22.885083088643388,35.979291325716325
3.496488075856463,1.5915611763497215,1301,38,22.885083088643388,35.979291325716325
3.5123996296750595,1.591545264479333,1301,38,22.885083088643388,35.979291325716325
3.528311024415515,1.5915293527680259,1301,38,22.885083088643388,35.979291325716325
3.5442222600794198,1.5915134412157985,1301,38,22.885083088643388,35.979291325716325
3.560133336668366,1.5914975298226492,1301,38,22.885083088643388,35.979291325716325
3.5760442541839446,1.5914816185885765,1301,38,22.885083088643388,35.979291325716325
3.5919550126277455,1.5914657075135787,1301,38,22.885083088643388,35.979291325716325
3.6078656120013597,1.5914497965976542,1301,38,22.885083088643388,35.979291325716325
3.623776052306378,1.5914338858408015,1301,38,22.885083088643388,35.979291325716325
3.6396863335443905,1.591417975243019,1301,38,22.885083088643388,35.979291325716325
3.6555964557169887,1.591402064804305,1301,38,22.885083088643388,35.979291325716325
3.671506418825762,1.5913861545246581,1301,38,22.885083088643388,35.979291325716325
3.6874162228723018,1.5913702444040765,1301,38,22.885083088643388,35.979291325716325
3.703325867858198,1.591354334442559,1301,38,22.885083088643388,35.979291325716325
3.7192353537850424,1.5913384246401032,1301,38,22.885083088643388,35.979291325716325
3.735144680654424,1.5913225149967085,1301,38,22.885083088643388,35.979291325716325
3.7510538484679334,1.5913066055123726,1301,38,22.885083088643388,35.979291325716325
