Vout,Iout,Irradiance,Temperature,MaxVoltage,MaxPower
0.0032666385900135576,0.653334,521,52,22.860122183270917,14.39304209291218
0.009799855366801391,0.653334,521,52,22.860122183270917,14.39304209291218
0.016332939324930837,0.65333066802801,521,52,22.860122183270917,14.39304209291218
0.022865866736392557,0.6533241348112332,521,52,22.860122183270917,14.39304209291218
0.02939862984646145,0.6533176017276082,521,52,22.860122183270917,14.39304209291218
0.035931236272742514,0.6533110688008501,521,52,22.860122183270917,14.39304209291218
0.042463693046997604,0.6533045360383933,521,52,22.860122183270917,14.39304209291218
0.048996006660076356,0.6532980034326203,521,52,22.860122183270917,14.39304209291218
0.05552818310346252,0.6532914709764994,521,52,22.860122183270917,14.39304209291218
0.062060227907695845,0.6532849386635395,521,52,22.860122183270917,14.39304209291218
0.06859214617783795,0.6532784064877494,521,52,22.860122183270917,14.39304209291218
0.07512394262620914,0.6532718744435984,521,52,22.860122183270917,14.39304209291218
0.08165562160260667,0.6532653425259815,521,52,22.860122183270917,14.39304209291218
0.0881871871221978,0.6532588107301863,521,52,22.860122183270917,14.39304209291218
0.09471864289126669,0.6532522790518631,521,52,22.860122183270917,14.39304209291218
0.10124999233098043,0.6532457474869967,521,52,22.860122183270917,14.39304209291218
0.10778123859932634,0.6532392160318808,521,52,22.860122183270917,14.39304209291218
0.11431238461136145,0.6532326846830943,521,52,22.860122183270917,14.39304209291218
0.120843433057904,0.653226153437479,521,52,22.860122183270917,14.39304209291218
0.12737438642278653,0.6532196222921202,521,52,22.860122183270917,14.39304209291218
0.133905246998782,0.6532130912443267,521,52,22.860122183270917,14.39304209291218
0.14043601690230395,0.653206560291615,521,52,22.860122183270917,14.39304209291218
0.14696669808697596,0.6532000294316921,521,52,22.860122183270917,14.39304209291218
0.15349729235615692,0.6531934986624416,521,52,22.860122183270917,14.39304209291218
0.1600278013745027,0.65318696798191,521,52,22.860122183270917,14.39304209291218
0.1665582266786382,0.6531804373882939,521,52,22.860122183270917,14.39304209291218
0.1730885696870081,0.6531739068799287,521,52,22.860122183270917,14.39304209291218
0.17961883170897006,0.6531673764552776,521,52,22.860122183270917,14.39304209291218
0.18614901395318784,0.6531608461129222,521,52,22.860122183270917,14.39304209291218
0.19267911753537886,0.6531543158515534,521,52,22.860122183270917,14.39304209291218
0.19920914348546587,0.6531477856699621,521,52,22.860122183270917,14.39304209291218
0.20573909275417782,0.653141255567033,521,52,22.860122183270917,14.39304209291218
0.21226896621914337,0.6531347255417359,521,52,22.860122183270917,14.39304209291218
0.2187987646905152,0.6531281955931202,521,52,22.860122183270917,14.39304209291218
0.2253284889161619,0.6531216657203083,521,52,22.860122183270917,14.39304209291218
0.2318581395864599,0.6531151359224899,521,52,22.860122183270917,14.39304209291218
0.2383877173387174,0.6531086061989172,521,52,22.860122183270917,14.39304209291218
0.24491722276125705,0.6531020765489,521,52,22.860122183270917,14.39304209291218
0.25144665639718555,0.6530955469718006,521,52,22.860122183270917,14.39304209291218
0.2579760187478721,0.6530890174670311,521,52,22.860122183270917,14.39304209291218
0.2645053102761602,0.6530824880340481,521,52,22.860122183270917,14.39304209291218
0.27103453140933137,0.6530759586723504,521,52,22.860122183270917,14.39304209291218
0.27756368254184177,0.653069429381475,521,52,22.860122183270917,14.39304209291218
0.2840927640378477,0.6530629001609948,521,52,22.860122183270917,14.39304209291218
0.2906217762335369,0.6530563710105152,521,52,22.860122183270917,14.39304209291218
0.29715071943928056,0.6530498419296721,521,52,22.860122183270917,14.39304209291218
0.3036795939416195,0.6530433129181293,521,52,22.860122183270917,14.39304209291218
0.31020840000509786,0.6530367839755765,521,52,22.860122183270917,14.39304209291218
0.31673713787395574,0.6530302551017271,521,52,22.860122183270917,14.39304209291218
0.32326580777369085,0.6530237262963164,521,52,22.860122183270917,14.39304209291218
0.32979440991250136,0.6530171975591005,521,52,22.860122183270917,14.39304209291218
0.33632294448261635,0.6530106688898536,521,52,22.860122183270917,14.39304209291218
0.3428514116615246,0.6530041402883677,521,52,22.860122183270917,14.39304209291218
0.34937981161310916,0.6529976117544505,521,52,22.860122183270917,14.39304209291218
0.3559081444886934,0.6529910832879244,521,52,22.860122183270917,14.39304209291218
0.3624364104280083,0.6529845548886257,521,52,22.860122183270917,14.39304209291218
0.3689646095600835,0.6529780265564029,521,52,22.860122183270917,14.39304209291218
0.37549274200407134,0.6529714982911164,521,52,22.860122183270917,14.39304209291218
0.38202080787000664,0.6529649700926372,521,52,22.860122183270917,14.39304209291218
0.38854880725950813,0.6529584419608461,521,52,22.860122183270917,14.39304209291218
0.39507674026642575,0.652951913895633,521,52,22.860122183270917,14.39304209291218
0.401604606977439,0.6529453858968962,521,52,22.860122183270917,14.39304209291218
0.40813240747260826,0.6529388579645422,521,52,22.860122183270917,14.39304209291218
0.41466014182588407,0.652932330098484,521,52,22.860122183270917,14.39304209291218
0.42118781010557726,0.6529258022986416,521,52,22.860122183270917,14.39304209291218
0.42771541237479305,0.652919274564941,521,52,22.860122183270917,14.39304209291218
0.4342429486918314,0.6529127468973142,521,52,22.860122183270917,14.39304209291218
0.4407704191105566,0.6529062192956977,521,52,22.860122183270917,14.39304209291218
0.447297823680739,0.6528996917600335,521,52,22.860122183270917,14.39304209291218
0.4538251624483695,0.6528931642902674,521,52,22.860122183270917,14.39304209291218
0.4603524354559508,0.6528866368863501,521,52,22.860122183270917,14.39304209291218
0.4668796427427654,0.6528801095482352,521,52,22.860122183270917,14.39304209291218
0.4734067843451235,0.6528735822758803,521,52,22.860122183270917,14.39304209291218
0.47993386029659213,0.6528670550692462,521,52,22.860122183270917,14.39304209291218
0.48646087062820514,0.6528605279282966,521,52,22.860122183270917,14.39304209291218
0.4929878153686592,0.6528540008529978,521,52,22.860122183270917,14.39304209291218
0.4995146945444934,0.652847473843319,521,52,22.860122183270917,14.39304209291218
0.5060415081802545,0.6528409468992312,521,52,22.860122183270917,14.39304209291218
0.5125682562986512,0.6528344200207081,521,52,22.860122183270917,14.39304209291218
0.519094938920695,0.652827893207725,521,52,22.860122183270917,14.39304209291218
0.525621556065831,0.6528213664602593,521,52,22.860122183270917,14.39304209291218
0.5321481077520582,0.6528148397782899,521,52,22.860122183270917,14.39304209291218
0.5386745939960412,0.6528083131617974,521,52,22.860122183270917,14.39304209291218
0.5452010148132123,0.6528017866107639,521,52,22.860122183270917,14.39304209291218
0.5517273702178668,0.6527952601251726,521,52,22.860122183270917,14.39304209291218
0.5582536602232501,0.6527887337050081,521,52,22.860122183270917,14.39304209291218
0.5647798848416388,0.652782207350256,521,52,22.860122183270917,14.39304209291218
0.5713060440844151,0.6527756810609033,521,52,22.860122183270917,14.39304209291218
0.5778321379621355,0.6527691548369376,521,52,22.860122183270917,14.39304209291218
0.5843581664845945,0.6527626286783474,521,52,22.860122183270917,14.39304209291218
0.5908841296608833,0.6527561025851224,521,52,22.860122183270917,14.39304209291218
0.5974100274994436,0.6527495765572525,521,52,22.860122183270917,14.39304209291218
0.6039358600081182,0.6527430505947288,521,52,22.860122183270917,14.39304209291218
0.6104616271941957,0.6527365246975428,521,52,22.860122183270917,14.39304209291218
0.6169873290644553,0.6527299988656868,521,52,22.860122183270917,14.39304209291218
0.623512965625204,0.6527234730991534,521,52,22.860122183270917,14.39304209291218
0.6300385368823136,0.6527169473979356,521,52,22.860122183270917,14.39304209291218
0.6365640428412549,0.6527104217620274,521,52,22.860122183270917,14.39304209291218
0.6430894835071276,0.6527038961914229,521,52,22.860122183270917,14.39304209291218
0.6496148588846888,0.6526973706861166,521,52,22.860122183270917,14.39304209291218
0.6561401689783808,0.6526908452461032,521,52,22.860122183270917,14.39304209291218
0.6626654137923533,0.6526843198713782,521,52,22.860122183270917,14.39304209291218
0.6691905933304872,0.6526777945619371,521,52,22.860122183270917,14.39304209291218
0.6757157075964154,0.6526712693177756,521,52,22.860122183270917,14.39304209291218
0.6822407565935409,0.65266474413889,521,52,22.860122183270917,14.39304209291218
0.6887657403250549,0.6526582190252767,521,52,22.860122183270917,14.39304209291218
0.6952906587939541,0.652651693976932,521,52,22.860122183270917,14.39304209291218
0.7018155120030539,0.652645168993853,521,52,22.860122183270917,14.39304209291218
0.7083402999550039,0.6526386440760367,521,52,22.860122183270917,14.39304209291218
0.7148650226522996,0.65263211922348,521,52,22.860122183270917,14.39304209291218
0.7213896800972948,0.6526255944361805,521,52,22.860122183270917,14.39304209291218
0.7279142722922122,0.6526190697141357,521,52,22.860122183270917,14.39304209291218
0.7344387992391541,0.6526125450573432,521,52,22.860122183270917,14.39304209291218
0.7409632609401108,0.6526060204658007,521,52,22.860122183270917,14.39304209291218
0.7474876573969699,0.6525994959395063,521,52,22.860122183270917,14.39304209291218
0.7540119886115235,0.6525929714784579,521,52,22.860122183270917,14.39304209291218
0.7605362545854766,0.6525864470826535,521,52,22.860122183270917,14.39304209291218
0.7670604553204527,0.6525799227520913,521,52,22.860122183270917,14.39304209291218
0.773584590818001,0.6525733984867698,521,52,22.860122183270917,14.39304209291218
0.7801086610796013,0.6525668742866872,521,52,22.860122183270917,14.39304209291218
0.7866326661066696,0.6525603501518421,521,52,22.860122183270917,14.39304209291218
0.7931566059005635,0.6525538260822329,521,52,22.860122183270917,14.39304209291218
0.7996804804625858,0.6525473020778583,521,52,22.860122183270917,14.39304209291218
0.80620428979399,0.6525407781387168,521,52,22.860122183270917,14.39304209291218
0.8127280338959828,0.6525342542648072,521,52,22.860122183270917,14.39304209291218
0.8192517127697282,0.6525277304561282,521,52,22.860122183270917,14.39304209291218
0.825775326416351,0.6525212067126785,521,52,22.860122183270917,14.39304209291218
0.8322988748369395,0.6525146830344571,521,52,22.860122183270917,14.39304209291218
0.8388223580325488,0.6525081594214629,521,52,22.860122183270917,14.39304209291218
0.845345776004202,0.6525016358736947,521,52,22.860122183270917,14.39304209291218
0.8518691287528948,0.6524951123911514,521,52,22.860122183270917,14.39304209291218
0.8583924162795955,0.6524885889738322,521,52,22.860122183270917,14.39304209291218
0.8649156385852489,0.6524820656217358,521,52,22.860122183270917,14.39304209291218
0.8714387956707766,0.6524755423348615,521,52,22.860122183270917,14.39304209291218
0.8779618875370802,0.6524690191132082,521,52,22.860122183270917,14.39304209291218
0.8844849141850408,0.652462495956775,521,52,22.860122183270917,14.39304209291218
0.8910078756155234,0.652455972865561,521,52,22.860122183270917,14.39304209291218
0.8975307718293757,0.6524494498395653,521,52,22.860122183270917,14.39304209291218
0.9040536028274302,0.6524429268787871,521,52,22.860122183270917,14.39304209291218
0.9105763686105062,0.6524364039832257,521,52,22.860122183270917,14.39304209291218
0.9170990691794095,0.6524298811528798,521,52,22.860122183270917,14.39304209291218
0.9236217045349344,0.6524233583877491,521,52,22.860122183270917,14.39304209291218
0.9301442746778641,0.6524168356878325,521,52,22.860122183270917,14.39304209291218
0.9366667796089718,0.6524103130531292,521,52,22.860122183270917,14.39304209291218
0.9431892193290213,0.6524037904836385,521,52,22.860122183270917,14.39304209291218
0.9497115938387677,0.6523972679793597,521,52,22.860122183270917,14.39304209291218
0.9562339031389584,0.6523907455402919,521,52,22.860122183270917,14.39304209291218
0.9627561472303332,0.6523842231664344,521,52,22.860122183270917,14.39304209291218
0.9692783261136253,0.6523777008577865,521,52,22.860122183270917,14.39304209291218
0.9758004397895613,0.6523711786143473,521,52,22.860122183270917,14.39304209291218
0.9823224882588627,0.6523646564361163,521,52,22.860122183270917,14.39304209291218
0.9888444715222452,0.6523581343230925,521,52,22.860122183270917,14.39304209291218
0.9953663895804195,0.6523516122752755,521,52,22.860122183270917,14.39304209291218
1.0018882424340918,0.6523450902926643,521,52,22.860122183270917,14.39304209291218
1.0084100300839647,0.6523385683752583,521,52,22.860122183270917,14.39304209291218
1.0149317525307358,0.6523320465230569,521,52,22.860122183270917,14.39304209291218
1.0214534097751,0.6523255247360592,521,52,22.860122183270917,14.39304209291218
1.0279750018177487,0.6523190030142646,521,52,22.860122183270917,14.39304209291218
1.0344965286593706,0.6523124813576724,521,52,22.860122183270917,14.39304209291218
1.0410179903006502,0.6523059597662819,521,52,22.860122183270917,14.39304209291218
1.0475393867422715,0.6522994382400925,521,52,22.860122183270917,14.39304209291218
1.0540607179849146,0.6522929167791034,521,52,22.860122183270917,14.39304209291218
1.0605819840292583,0.6522863953833139,521,52,22.860122183270917,14.39304209291218
1.0671031848759778,0.6522798740527234,521,52,22.860122183270917,14.39304209291218
1.0736243205257483,0.6522733527873312,521,52,22.860122183270917,14.39304209291218
1.0801453909792418,0.6522668315871366,521,52,22.860122183270917,14.39304209291218
1.08666639623713,0.652260310452139,521,52,22.860122183270917,14.39304209291218
1.093187336300082,0.6522537893823376,521,52,22.860122183270917,14.39304209291218
1.0997082111687662,0.6522472683777318,521,52,22.860122183270917,14.39304209291218
1.1062290208438492,0.652240747438321,521,52,22.860122183270917,14.39304209291218
1.1127497653259972,0.6522342265641043,521,52,22.860122183270917,14.39304209291218
1.1192704446158745,0.6522277057550814,521,52,22.860122183270917,14.39304209291218
1.1257910587141449,0.6522211850112514,521,52,22.860122183270917,14.39304209291218
1.132311607621471,0.6522146643326135,521,52,22.860122183270917,14.39304209291218
1.1388320913385146,0.6522081437191674,521,52,22.860122183270917,14.39304209291218
1.1453525098659376,0.652201623170912,521,52,22.860122183270917,14.39304209291218
1.151872863204399,0.6521951026878471,521,52,22.860122183270917,14.39304209291218
1.1583931513545596,0.6521885822699717,521,52,22.860122183270917,14.39304209291218
1.1649133743170779,0.6521820619172853,521,52,22.860122183270917,14.39304209291218
1.1714335320926128,0.6521755416297872,521,52,22.860122183270917,14.39304209291218
1.1779536246818223,0.6521690214074767,521,52,22.860122183270917,14.39304209291218
1.1844736520853634,0.6521625012503532,521,52,22.860122183270917,14.39304209291218
1.1909936143038937,0.652155981158416,521,52,22.860122183270917,14.39304209291218
1.1975135113380695,0.6521494611316645,521,52,22.860122183270917,14.39304209291218
1.2040333431885468,0.652142941170098,521,52,22.860122183270917,14.39304209291218
1.2105531098559823,0.6521364212737157,521,52,22.860122183270917,14.39304209291218
1.2170728113410307,0.6521299014425173,521,52,22.860122183270917,14.39304209291218
1.2235924476443476,0.6521233816765019,521,52,22.860122183270917,14.39304209291218
1.230112018766588,0.6521168619756688,521,52,22.860122183270917,14.39304209291218
1.2366315247084065,0.6521103423400174,521,52,22.860122183270917,14.39304209291218
1.2431509654704576,0.6521038227695471,521,52,22.860122183270917,14.39304209291218
1.2496703410533958,0.6520973032642573,521,52,22.860122183270917,14.39304209291218
1.2561896514578745,0.6520907838241472,521,52,22.860122183270917,14.39304209291218
1.2627088966845483,0.6520842644492163,521,52,22.860122183270917,14.39304209291218
1.2692280767340705,0.6520777451394637,521,52,22.860122183270917,14.39304209291218
1.2757471916070944,0.652071225894889,521,52,22.860122183270917,14.39304209291218
1.2822662413042734,0.6520647067154914,521,52,22.860122183270917,14.39304209291218
1.288785225826261,0.6520581876012703,521,52,22.860122183270917,14.39304209291218
1.2953041451737104,0.6520516685522251,521,52,22.860122183270917,14.39304209291218
1.301822999347274,0.6520451495683549,521,52,22.860122183270917,14.39304209291218
1.3083417883476052,0.6520386306496594,521,52,22.860122183270917,14.39304209291218
1.3148605121753565,0.6520321117961377,521,52,22.860122183270917,14.39304209291218
1.3213791708311806,0.6520255930077893,521,52,22.860122183270917,14.39304209291218
1.3278977643157301,0.6520190742846135,521,52,22.860122183270917,14.39304209291218
1.3344162926296572,0.6520125556266095,521,52,22.860122183270917,14.39304209291218
1.3409347557736142,0.6520060370337768,521,52,22.860122183270917,14.39304209291218
1.3474531537482537,0.6519995185061147,521,52,22.860122183270917,14.39304209291218
1.3539714865542285,0.6519930000436227,521,52,22.860122183270917,14.39304209291218
1.3604897541921899,0.6519864816462999,521,52,22.860122183270917,14.39304209291218
1.3670079566627904,0.6519799633141458,521,52,22.860122183270917,14.39304209291218
1.373526093966682,0.6519734450471596,521,52,22.860122183270917,14.39304209291218
1.3800441661045169,0.6519669268453409,521,52,22.860122183270917,14.39304209291218
1.3865621730769477,0.6519604087086888,521,52,22.860122183270917,14.39304209291218
1.393080114884625,0.6519538906372028,521,52,22.860122183270917,14.39304209291218
1.3995979915282013,0.6519473726308822,521,52,22.860122183270917,14.39304209291218
1.406115803008329,0.6519408546897263,521,52,22.860122183270917,14.39304209291218
1.4126335493256592,0.6519343368137345,521,52,22.860122183270917,14.39304209291218
1.4191512304808438,0.6519278190029062,521,52,22.860122183270917,14.39304209291218
1.425668846474535,0.6519213012572407,521,52,22.860122183270917,14.39304209291218
1.4321863973073847,0.6519147835767373,521,52,22.860122183270917,14.39304209291218
1.438703882980044,0.6519082659613953,521,52,22.860122183270917,14.39304209291218
1.4452213034931642,0.6519017484112142,521,52,22.860122183270917,14.39304209291218
1.4517386588473984,0.6518952309261933,521,52,22.860122183270917,14.39304209291218
1.458255949043397,0.6518887135063319,521,52,22.860122183270917,14.39304209291218
1.4647731740818122,0.6518821961516295,521,52,22.860122183270917,14.39304209291218
1.4712903339632948,0.6518756788620852,521,52,22.860122183270917,14.39304209291218
1.4778074286884975,0.6518691616376986,521,52,22.860122183270917,14.39304209291218
1.484324458258071,0.6518626444784688,521,52,22.860122183270917,14.39304209291218
1.4908414226726672,0.6518561273843954,521,52,22.860122183270917,14.39304209291218
1.4973583219329374,0.6518496103554775,521,52,22.860122183270917,14.39304209291218
1.5038751560395338,0.6518430933917145,521,52,22.860122183270917,14.39304209291218
1.510391924993107,0.651836576493106,521,52,22.860122183270917,14.39304209291218
1.5169086287943092,0.6518300596596511,521,52,22.860122183270917,14.39304209291218
1.5234252674437916,0.6518235428913493,521,52,22.860122183270917,14.39304209291218
1.529941840942205,0.6518170261881997,521,52,22.860122183270917,14.39304209291218
1.5364583492902015,0.6518105095502019,521,52,22.860122183270917,14.39304209291218
1.5429747924884325,0.6518039929773551,521,52,22.860122183270917,14.39304209291218
1.5494911705375491,0.6517974764696588,521,52,22.860122183270917,14.39304209291218
1.5560074834382032,0.6517909600271122,521,52,22.860122183270917,14.39304209291218
1.562523731191046,0.6517844436497148,521,52,22.860122183270917,14.39304209291218
