Vout,Iout,Irradiance,Temperature,MaxVoltage,MaxPower
0.0007480028076653109,0.14960199999999998,131,-4,19.781069767829926,2.5680479700713392
0.0022439945917160625,0.14960199999999998,131,-4,19.781069767829926,2.5680479700713392
0.0037399559626290733,0.14960123703699232,131,-4,19.781069767829926,2.5680479700713392
0.005235881487107359,0.14959974104520826,131,-4,19.781069767829926,2.5680479700713392
0.006731769389455203,0.14959824508391364,131,-4,19.781069767829926,2.5680479700713392
0.00822762141397023,0.14959674915853877,131,-4,19.781069767829926,2.5680479700713392
0.009723439170802277,0.14959525327078602,131,-4,19.781069767829926,2.5680479700713392
0.011219224146241807,0.1495937574189111,131,-4,19.781069767829926,2.5680479700713392
0.012714977712233254,0.14959226160130384,131,-4,19.781069767829926,2.5680479700713392
0.014210701135172994,0.149590765816478,131,-4,19.781069767829926,2.5680479700713392
0.015706395584030388,0.14958927006306158,131,-4,19.781069767829926,2.5680479700713392
0.01720206213784394,0.14958777433978823,131,-4,19.781069767829926,2.5680479700713392
0.018697701792640763,0.14958627864548896,131,-4,19.781069767829926,2.5680479700713392
0.020193315467823554,0.1495847829790847,131,-4,19.781069767829926,2.5680479700713392
0.02168890401206623,0.14958328733957948,131,-4,19.781069767829926,2.5680479700713392
0.023184468208755908,0.14958179172605388,131,-4,19.781069767829926,2.5680479700713392
0.024680008781016165,0.1495802961376592,131,-4,19.781069767829926,2.5680479700713392
0.026175526396343816,0.14957880057361206,131,-4,19.781069767829926,2.5680479700713392
0.02767102167088892,0.14957730503318936,131,-4,19.781069767829926,2.5680479700713392
0.0291664951734055,0.14957580951572358,131,-4,19.781069767829926,2.5680479700713392
0.03066194742889821,0.1495743140205986,131,-4,19.781069767829926,2.5680479700713392
0.03215737892198857,0.14957281854724563,131,-4,19.781069767829926,2.5680479700713392
0.033652790100022,0.14957132309513968,131,-4,19.781069767829926,2.5680479700713392
0.03514818137593602,0.14956982766379615,131,-4,19.781069767829926,2.5680479700713392
0.036643553130907544,0.14956833225276767,131,-4,19.781069767829926,2.5680479700713392
0.03813890571679666,0.1495668368616413,131,-4,19.781069767829926,2.5680479700713392
0.03963423945840227,0.14956534149003586,131,-4,19.781069767829926,2.5680479700713392
0.041129554655544236,0.14956384613759952,131,-4,19.781069767829926,2.5680479700713392
0.042624851584985315,0.14956235080400743,131,-4,19.781069767829926,2.5680479700713392
0.044120130502205215,0.14956085548895984,131,-4,19.781069767829926,2.5680479700713392
0.04561539164303811,0.1495593601921799,131,-4,19.781069767829926,2.5680479700713392
0.04711063522518421,0.14955786491341222,131,-4,19.781069767829926,2.5680479700713392
0.04860586144960506,0.14955636965242092,131,-4,19.781069767829926,2.5680479700713392
0.05010107050181139,0.14955487440898832,131,-4,19.781069767829926,2.5680479700713392
0.05159626255305193,0.14955337918291342,131,-4,19.781069767829926,2.5680479700713392
0.05309143776141079,0.14955188397401073,131,-4,19.781069767829926,2.5680479700713392
0.054586596272820295,0.14955038878210902,131,-4,19.781069767829926,2.5680479700713392
0.056081738221996046,0.14954889360705018,131,-4,19.781069767829926,2.5680479700713392
0.05757686373329987,0.14954739844868828,131,-4,19.781069767829926,2.5680479700713392
0.05907197292153654,0.14954590330688863,131,-4,19.781069767829926,2.5680479700713392
0.06056706589268905,0.14954440818152684,131,-4,19.781069767829926,2.5680479700713392
0.06206214274459737,0.14954291307248813,131,-4,19.781069767829926,2.5680479700713392
0.06355720356758503,0.14954141797966647,131,-4,19.781069767829926,2.5680479700713392
0.06505224844503742,0.14953992290296408,131,-4,19.781069767829926,2.5680479700713392
0.06654727745393563,0.1495384278422906,131,-4,19.781069767829926,2.5680479700713392
0.06804229066534918,0.14953693279756267,131,-4,19.781069767829926,2.5680479700713392
0.0695372881448909,0.14953543776870326,131,-4,19.781069767829926,2.5680479700713392
0.07103226995313675,0.14953394275564136,131,-4,19.781069767829926,2.5680479700713392
0.07252723614601338,0.14953244775831132,131,-4,19.781069767829926,2.5680479700713392
0.07402218677515587,0.14953095277665257,131,-4,19.781069767829926,2.5680479700713392
0.0755171218882379,0.1495294578106092,131,-4,19.781069767829926,2.5680479700713392
0.07701204152927653,0.14952796286012957,131,-4,19.781069767829926,2.5680479700713392
0.07850694573891363,0.14952646792516597,131,-4,19.781069767829926,2.5680479700713392
0.08000183455467545,0.1495249730056744,131,-4,19.781069767829926,2.5680479700713392
0.08149670801121248,0.1495234781016143,131,-4,19.781069767829926,2.5680479700713392
0.08299156614052057,0.14952198321294802,131,-4,19.781069767829926,2.5680479700713392
0.08448640897214534,0.14952048833964096,131,-4,19.781069767829926,2.5680479700713392
0.08598123653337049,0.14951899348166114,131,-4,19.781069767829926,2.5680479700713392
0.0874760488493921,0.149517498638979,131,-4,19.781069767829926,2.5680479700713392
0.08897084594347902,0.14951600381156727,131,-4,19.781069767829926,2.5680479700713392
0.09046562783712131,0.14951450899940072,131,-4,19.781069767829926,2.5680479700713392
0.09196039455016702,0.14951301420245613,131,-4,19.781069767829926,2.5680479700713392
0.09345514610094859,0.14951151942071197,131,-4,19.781069767829926,2.5680479700713392
0.09494988250639934,0.1495100246541484,131,-4,19.781069767829926,2.5680479700713392
0.09644460378216131,0.1495085299027471,131,-4,19.781069767829926,2.5680479700713392
0.09793930994268445,0.1495070351664911,131,-4,19.781069767829926,2.5680479700713392
0.09943400100131843,0.14950554044536482,131,-4,19.781069767829926,2.5680479700713392
0.10092867697039722,0.14950404573935377,131,-4,19.781069767829926,2.5680479700713392
0.10242333786131737,0.14950255104844462,131,-4,19.781069767829926,2.5680479700713392
0.10391798368460999,0.149501056372625,131,-4,19.781069767829926,2.5680479700713392
0.10541261445000742,0.14949956171188356,131,-4,19.781069767829926,2.5680479700713392
0.10690723016650472,0.14949806706620974,131,-4,19.781069767829926,2.5680479700713392
0.10840183084241627,0.1494965724355938,131,-4,19.781069767829926,2.5680479700713392
0.10989641648542824,0.14949507782002677,131,-4,19.781069767829926,2.5680479700713392
0.11139098710264697,0.14949358321950032,131,-4,19.781069767829926,2.5680479700713392
0.11288554270064344,0.1494920886340068,131,-4,19.781069767829926,2.5680479700713392
0.11438008328549455,0.149490594063539,131,-4,19.781069767829926,2.5680479700713392
0.11587460886282122,0.14948909950809047,131,-4,19.781069767829926,2.5680479700713392
0.11736911943782324,0.1494876049676551,131,-4,19.781069767829926,2.5680479700713392
0.11886361501531194,0.1494861104422272,131,-4,19.781069767829926,2.5680479700713392
0.12035809559973985,0.14948461593180168,131,-4,19.781069767829926,2.5680479700713392
0.1218525611952285,0.14948312143637363,131,-4,19.781069767829926,2.5680479700713392
0.1233470118055937,0.14948162695593864,131,-4,19.781069767829926,2.5680479700713392
0.12484144743436923,0.1494801324904926,131,-4,19.781069767829926,2.5680479700713392
0.12633586808482844,0.1494786380400317,131,-4,19.781069767829926,2.5680479700713392
0.1278302737600043,0.14947714360455236,131,-4,19.781069767829926,2.5680479700713392
0.12932466446270796,0.14947564918405135,131,-4,19.781069767829926,2.5680479700713392
0.13081904019554566,0.14947415477852563,131,-4,19.781069767829926,2.5680479700713392
0.13231340096093475,0.14947266038797236,131,-4,19.781069767829926,2.5680479700713392
0.133807746761118,0.14947116601238897,131,-4,19.781069767829926,2.5680479700713392
0.13530207759817708,0.14946967165177302,131,-4,19.781069767829926,2.5680479700713392
0.136796393474045,0.14946817730612227,131,-4,19.781069767829926,2.5680479700713392
0.1382906943905176,0.14946668297543464,131,-4,19.781069767829926,2.5680479700713392
0.13978498034926395,0.1494651886597082,131,-4,19.781069767829926,2.5680479700713392
0.1412792513518363,0.14946369435894116,131,-4,19.781069767829926,2.5680479700713392
0.14277350739967876,0.14946220007313185,131,-4,19.781069767829926,2.5680479700713392
0.14426774849413598,0.14946070580227871,131,-4,19.781069767829926,2.5680479700713392
0.14576197463646062,0.1494592115463803,131,-4,19.781069767829926,2.5680479700713392
0.14725618582782046,0.14945771730543528,131,-4,19.781069767829926,2.5680479700713392
0.1487503820693048,0.14945622307944237,131,-4,19.781069767829926,2.5680479700713392
0.1502445633619308,0.14945472886840044,131,-4,19.781069767829926,2.5680479700713392
0.15173872970664865,0.14945323467230837,131,-4,19.781069767829926,2.5680479700713392
0.15323288110434716,0.14945174049116516,131,-4,19.781069767829926,2.5680479700713392
0.15472701755585797,0.14945024632496987,131,-4,19.781069767829926,2.5680479700713392
0.15622113906196045,0.14944875217372158,131,-4,19.781069767829926,2.5680479700713392
0.15771524562338538,0.14944725803741948,131,-4,19.781069767829926,2.5680479700713392
0.15920933724081882,0.14944576391606282,131,-4,19.781069767829926,2.5680479700713392
0.16070341391490553,0.1494442698096508,131,-4,19.781069767829926,2.5680479700713392
0.16219747564625214,0.14944277571818276,131,-4,19.781069767829926,2.5680479700713392
0.16369152243543014,0.1494412816416581,131,-4,19.781069767829926,2.5680479700713392
0.16518555428297854,0.14943978758007617,131,-4,19.781069767829926,2.5680479700713392
0.16667957118940624,0.14943829353343638,131,-4,19.781069767829926,2.5680479700713392
0.16817357315519463,0.14943679950173824,131,-4,19.781069767829926,2.5680479700713392
0.16966756018079948,0.1494353054849812,131,-4,19.781069767829926,2.5680479700713392
0.17116153226665304,0.14943381148316484,131,-4,19.781069767829926,2.5680479700713392
0.17265548941316566,0.14943231749628863,131,-4,19.781069767829926,2.5680479700713392
0.17414943162072766,0.1494308235243522,131,-4,19.781069767829926,2.5680479700713392
0.17564335888971094,0.14942932956735508,131,-4,19.781069767829926,2.5680479700713392
0.1771372712204701,0.1494278356252969,131,-4,19.781069767829926,2.5680479700713392
0.1786311686133441,0.1494263416981773,131,-4,19.781069767829926,2.5680479700713392
0.18012505106865706,0.14942484778599596,131,-4,19.781069767829926,2.5680479700713392
0.18161891858672,0.14942335388875247,131,-4,19.781069767829926,2.5680479700713392
0.18311277116783117,0.14942186000644656,131,-4,19.781069767829926,2.5680479700713392
0.18460660881227758,0.1494203661390779,131,-4,19.781069767829926,2.5680479700713392
0.1861004315203355,0.14941887228664616,131,-4,19.781069767829926,2.5680479700713392
0.18759423929227156,0.1494173784491511,131,-4,19.781069767829926,2.5680479700713392
0.18908803212834333,0.14941588462659242,131,-4,19.781069767829926,2.5680479700713392
0.1905818100287999,0.14941439081896987,131,-4,19.781069767829926,2.5680479700713392
0.19207557299388284,0.1494128970262832,131,-4,19.781069767829926,2.5680479700713392
0.19356932102382657,0.1494114032485321,131,-4,19.781069767829926,2.5680479700713392
0.19506305411885902,0.1494099094857164,131,-4,19.781069767829926,2.5680479700713392
0.19655677227920196,0.14940841573783584,131,-4,19.781069767829926,2.5680479700713392
0.19805047550507168,0.14940692200489017,131,-4,19.781069767829926,2.5680479700713392
0.19954416379667925,0.14940542828687922,131,-4,19.781069767829926,2.5680479700713392
0.201037837154231,0.14940393458380272,131,-4,19.781069767829926,2.5680479700713392
0.2025314955779289,0.1494024408956605,131,-4,19.781069767829926,2.5680479700713392
0.20402513906797082,0.14940094722245228,131,-4,19.781069767829926,2.5680479700713392
0.20551876762455087,0.14939945356417797,131,-4,19.781069767829926,2.5680479700713392
0.20701238124785987,0.1493979599208373,131,-4,19.781069767829926,2.5680479700713392
0.20850597993808528,0.14939646629243009,131,-4,19.781069767829926,2.5680479700713392
0.20999956369541165,0.14939497267895613,131,-4,19.781069767829926,2.5680479700713392
0.21149313252002086,0.14939347908041528,131,-4,19.781069767829926,2.5680479700713392
0.21298668641209226,0.1493919854968073,131,-4,19.781069767829926,2.5680479700713392
0.21448022537180292,0.14939049192813206,131,-4,19.781069767829926,2.5680479700713392
0.21597374939932765,0.14938899837438935,131,-4,19.781069767829926,2.5680479700713392
0.21746725849483947,0.149387504835579,131,-4,19.781069767829926,2.5680479700713392
0.2189607526585094,0.14938601131170082,131,-4,19.781069767829926,2.5680479700713392
0.22045423189050692,0.14938451780275466,131,-4,19.781069767829926,2.5680479700713392
0.22194769619099983,0.14938302430874034,131,-4,19.781069767829926,2.5680479700713392
0.22344114556015468,0.1493815308296577,131,-4,19.781069767829926,2.5680479700713392
0.22493457999813657,0.14938003736550656,131,-4,19.781069767829926,2.5680479700713392
0.22642799950510928,0.14937854391628674,131,-4,19.781069767829926,2.5680479700713392
0.2279214040812357,0.14937705048199812,131,-4,19.781069767829926,2.5680479700713392
0.2294147937266775,0.1493755570626405,131,-4,19.781069767829926,2.5680479700713392
0.23090816844159548,0.1493740636582137,131,-4,19.781069767829926,2.5680479700713392
0.23240152822614957,0.1493725702687176,131,-4,19.781069767829926,2.5680479700713392
0.23389487308049878,0.14937107689415202,131,-4,19.781069767829926,2.5680479700713392
0.23538820300480146,0.14936958353451682,131,-4,19.781069767829926,2.5680479700713392
0.2368815179992151,0.1493680901898118,131,-4,19.781069767829926,2.5680479700713392
0.23837481806389688,0.14936659686003684,131,-4,19.781069767829926,2.5680479700713392
0.239868103199003,0.14936510354519175,131,-4,19.781069767829926,2.5680479700713392
0.24136137340468936,0.1493636102452764,131,-4,19.781069767829926,2.5680479700713392
0.24285462868111124,0.14936211696029061,131,-4,19.781069767829926,2.5680479700713392
0.24434786902842356,0.14936062369023428,131,-4,19.781069767829926,2.5680479700713392
0.24584109444678065,0.14935913043510718,131,-4,19.781069767829926,2.5680479700713392
0.24733430493633665,0.1493576371949092,131,-4,19.781069767829926,2.5680479700713392
0.24882750049724509,0.14935614396964017,131,-4,19.781069767829926,2.5680479700713392
0.2503206811296594,0.14935465075929993,131,-4,19.781069767829926,2.5680479700713392
0.2518138468337325,0.14935315756388834,131,-4,19.781069767829926,2.5680479700713392
0.25330699760961706,0.14935166438340525,131,-4,19.781069767829926,2.5680479700713392
0.2548001334574656,0.1493501712178505,131,-4,19.781069767829926,2.5680479700713392
0.2562932543774303,0.14934867806722393,131,-4,19.781069767829926,2.5680479700713392
0.2577863603696632,0.1493471849315254,131,-4,19.781069767829926,2.5680479700713392
0.2592794514343159,0.14934569181075474,131,-4,19.781069767829926,2.5680479700713392
0.26077252757154,0.14934419870491183,131,-4,19.781069767829926,2.5680479700713392
0.2622655887814869,0.14934270561399648,131,-4,19.781069767829926,2.5680479700713392
0.2637586350643079,0.14934121253800858,131,-4,19.781069767829926,2.5680479700713392
0.26525166642015396,0.14933971947694794,131,-4,19.781069767829926,2.5680479700713392
0.26674468284917596,0.14933822643081443,131,-4,19.781069767829926,2.5680479700713392
0.26823768435152484,0.14933673339960787,131,-4,19.781069767829926,2.5680479700713392
0.26973067092735115,0.14933524038332815,131,-4,19.781069767829926,2.5680479700713392
0.27122364257680537,0.1493337473819751,131,-4,19.781069767829926,2.5680479700713392
0.27271659930003816,0.1493322543955486,131,-4,19.781069767829926,2.5680479700713392
0.27420954109719975,0.14933076142404844,131,-4,19.781069767829926,2.5680479700713392
0.27570246796844033,0.14932926846747452,131,-4,19.781069767829926,2.5680479700713392
0.2771953799139103,0.14932777552582666,131,-4,19.781069767829926,2.5680479700713392
0.27868827693375964,0.1493262825991047,131,-4,19.781069767829926,2.5680479700713392
0.28018115902813834,0.14932478968730853,131,-4,19.781069767829926,2.5680479700713392
0.28167402619719645,0.14932329679043796,131,-4,19.781069767829926,2.5680479700713392
0.28316687844108385,0.14932180390849287,131,-4,19.781069767829926,2.5680479700713392
0.2846597157599504,0.1493203110414731,131,-4,19.781069767829926,2.5680479700713392
0.28615253815394603,0.1493188181893785,131,-4,19.781069767829926,2.5680479700713392
0.2876453456232203,0.14931732535220893,131,-4,19.781069767829926,2.5680479700713392
0.28913813816792305,0.14931583252996422,131,-4,19.781069767829926,2.5680479700713392
0.29063091578820394,0.14931433972264424,131,-4,19.781069767829926,2.5680479700713392
0.2921236784842126,0.14931284693024882,131,-4,19.781069767829926,2.5680479700713392
0.29361642625609863,0.1493113541527778,131,-4,19.781069767829926,2.5680479700713392
0.2951091591040116,0.14930986139023109,131,-4,19.781069767829926,2.5680479700713392
0.2966018770281012,0.14930836864260846,131,-4,19.781069767829926,2.5680479700713392
0.2980945800285167,0.14930687590990985,131,-4,19.781069767829926,2.5680479700713392
0.29958726810540776,0.14930538319213502,131,-4,19.781069767829926,2.5680479700713392
0.3010799412589238,0.14930389048928389,131,-4,19.781069767829926,2.5680479700713392
0.30257259948921417,0.14930239780135626,131,-4,19.781069767829926,2.5680479700713392
0.3040652427964285,0.149300905128352,131,-4,19.781069767829926,2.5680479700713392
0.30555787118071603,0.14929941247027098,131,-4,19.781069767829926,2.5680479700713392
0.3070504846422261,0.14929791982711305,131,-4,19.781069767829926,2.5680479700713392
0.3085430831811084,0.14929642719887803,131,-4,19.781069767829926,2.5680479700713392
0.3100356667975119,0.14929493458556578,131,-4,19.781069767829926,2.5680479700713392
0.31152823549158615,0.14929344198717615,131,-4,19.781069767829926,2.5680479700713392
0.3130207892634805,0.14929194940370902,131,-4,19.781069767829926,2.5680479700713392
0.31451332811334415,0.1492904568351642,131,-4,19.781069767829926,2.5680479700713392
0.3160058520413265,0.14928896428154156,131,-4,19.781069767829926,2.5680479700713392
0.3174983610475767,0.14928747174284096,131,-4,19.781069767829926,2.5680479700713392
0.31899085513224423,0.14928597921906223,131,-4,19.781069767829926,2.5680479700713392
0.32048333429547815,0.14928448671020522,131,-4,19.781069767829926,2.5680479700713392
0.32197579853742797,0.1492829942162698,131,-4,19.781069767829926,2.5680479700713392
0.32346824785824285,0.14928150173725582,131,-4,19.781069767829926,2.5680479700713392
0.32496068225807206,0.14928000927316312,131,-4,19.781069767829926,2.5680479700713392
0.3264531017370647,0.14927851682399157,131,-4,19.781069767829926,2.5680479700713392
0.32794550629537017,0.149277024389741,131,-4,19.781069767829926,2.5680479700713392
0.32943789593313766,0.14927553197041124,131,-4,19.781069767829926,2.5680479700713392
0.3309302706505163,0.1492740395660022,131,-4,19.781069767829926,2.5680479700713392
0.3324226304476554,0.14927254717651364,131,-4,19.781069767829926,2.5680479700713392
0.33391497532470416,0.14927105480194552,131,-4,19.781069767829926,2.5680479700713392
0.3354073052818118,0.1492695624422976,131,-4,19.781069767829926,2.5680479700713392
0.33689962031912746,0.1492680700975698,131,-4,19.781069767829926,2.5680479700713392
0.3383919204368005,0.14926657776776192,131,-4,19.781069767829926,2.5680479700713392
0.33988420563497984,0.14926508545287384,131,-4,19.781069767829926,2.5680479700713392
0.3413764759138149,0.1492635931529054,131,-4,19.781069767829926,2.5680479700713392
0.34286873127345485,0.14926210086785646,131,-4,19.781069767829926,2.5680479700713392
0.3443609717140488,0.14926060859772686,131,-4,19.781069767829926,2.5680479700713392
0.345853197235746,0.14925911634251646,131,-4,19.781069767829926,2.5680479700713392
0.34734540783869555,0.14925762410222507,131,-4,19.781069767829926,2.5680479700713392
