Vout,Iout,Irradiance,Temperature,MaxVoltage,MaxPower
0.007246500322112287,1.4493139999999998,1301,-18,18.764967967313325,26.844740843213035
0.021739366971687362,1.4493139999999998,1301,-18,18.764967967313325,26.844740843213035
0.036231938984918596,1.4493066085682778,1301,-18,18.764967967313325,26.844740843213035
0.05072416372512075,1.449292115701628,1301,-18,18.764967967313325,26.844740843213035
0.0652160239897119,1.449277623130354,1301,-18,18.764967967313325,26.844740843213035
0.07970753667709556,1.4492631309070632,1301,-18,18.764967967313325,26.844740843213035
0.09419871738607863,1.4492486390482477,1301,-18,18.764967967313325,26.844740843213035
0.10868958051554324,1.4492341475370096,1301,-18,18.764967967313325,26.844740843213035
0.1231801393566104,1.4492196563577497,1301,-18,18.764967967313325,26.844740843213035
0.13767040617787277,1.4492051654960694,1301,-18,18.764967967313325,26.844740843213035
0.15216039230406964,1.4491906749386776,1301,-18,18.764967967313325,26.844740843213035
0.16665010818870848,1.4491761846733053,1301,-18,18.764967967313325,26.844740843213035
0.18113956348109894,1.449161694688628,1301,-18,18.764967967313325,26.844740843213035
0.19562876708822902,1.4491472049741927,1301,-18,18.764967967313325,26.844740843213035
0.21011772723188032,1.4491327155203493,1301,-18,18.764967967313325,26.844740843213035
0.22460645150134934,1.449118226318191,1301,-18,18.764967967313325,26.844740843213035
0.2390949469021114,1.4491037373594964,1301,-18,18.764967967313325,26.844740843213035
0.253583219900741,1.4490892486366758,1301,-18,18.764967967313325,26.844740843213035
0.2680712764663756,1.4490747601427239,1301,-18,18.764967967313325,26.844740843213035
0.2825591221089893,1.4490602718711743,1301,-18,18.764967967313325,26.844740843213035
0.2970467619147217,1.4490457838160573,1301,-18,18.764967967313325,26.844740843213035
0.3115342005784878,1.4490312959718636,1301,-18,18.764967967313325,26.844740843213035
0.3260214424340803,1.4490168083335067,1301,-18,18.764967967313325,26.844740843213035
0.34050849148195433,1.4490023208962917,1301,-18,18.764967967313325,26.844740843213035
0.3549953514148751,1.4489878336558848,1301,-18,18.764967967313325,26.844740843213035
0.369482025641592,1.4489733466082857,1301,-18,18.764967967313325,26.844740843213035
0.3839685173086913,1.4489588597498015,1301,-18,18.764967967313325,26.844740843213035
0.3984548293207675,1.4489443730770235,1301,-18,18.764967967313325,26.844740843213035
0.41294096435904226,1.448929886586805,1301,-18,18.764967967313325,26.844740843213035
0.42742692489855133,1.4489154002762417,1301,-18,18.764967967313325,26.844740843213035
0.4419127132240088,1.448900914142652,1301,-18,18.764967967313325,26.844740843213035
0.45639833144445036,1.4488864281835612,1301,-18,18.764967967313325,26.844740843213035
0.4708837815067509,1.4488719423966843,1301,-18,18.764967967313325,26.844740843213035
0.4853690652081009,1.4488574567799124,1301,-18,18.764967967313325,26.844740843213035
0.4998541842075237,1.4488429713312987,1301,-18,18.764967967313325,26.844740843213035
0.5143391400365058,1.448828486049046,1301,-18,18.764967967313325,26.844740843213035
0.5288239341088108,1.4488140009314951,1301,-18,18.764967967313325,26.844740843213035
0.5433085677295357,1.4487995159771148,1301,-18,18.764967967313325,26.844740843213035
0.5577930421034734,1.4487850311844908,1301,-18,18.764967967313325,26.844740843213035
0.5722773583428284,1.4487705465523186,1301,-18,18.764967967313325,26.844740843213035
0.5867615174743437,1.4487560620793931,1301,-18,18.764967967313325,26.844740843213035
0.6012455204458724,1.4487415777646022,1301,-18,18.764967967313325,26.844740843213035
0.6157293681324512,1.4487270936069192,1301,-18,18.764967967313325,26.844740843213035
0.6302130613419005,1.4487126096053962,1301,-18,18.764967967313325,26.844740843213035
0.6446966008199977,1.448698125759158,1301,-18,18.764967967313325,26.844740843213035
0.6591799872552501,1.448683642067397,1301,-18,18.764967967313325,26.844740843213035
0.6736632212833013,1.4486691585293672,1301,-18,18.764967967313325,26.844740843213035
0.6881463034909991,1.4486546751443803,1301,-18,18.764967967313325,26.844740843213035
0.70262923442015,1.4486401919118006,1301,-18,18.764967967313325,26.844740843213035
0.7171120145709837,1.4486257088310412,1301,-18,18.764967967313325,26.844740843213035
0.7315946444053534,1.4486112259015604,1301,-18,18.764967967313325,26.844740843213035
0.7460771243496873,1.448596743122858,1301,-18,18.764967967313325,26.844740843213035
0.7605594547977159,1.4485822604944718,1301,-18,18.764967967313325,26.844740843213035
0.7750416361129859,1.4485677780159758,1301,-18,18.764967967313325,26.844740843213035
0.7895236686311841,1.448553295686976,1301,-18,18.764967967313325,26.844740843213035
0.8040055526622801,1.448538813507109,1301,-18,18.764967967313325,26.844740843213035
0.8184872884925057,1.448524331476039,1301,-18,18.764967967313325,26.844740843213035
0.8329688763861801,1.448509849593456,1301,-18,18.764967967313325,26.844740843213035
0.8474503165873976,1.4484953678590742,1301,-18,18.764967967313325,26.844740843213035
0.861931609321582,1.4484808862726286,1301,-18,18.764967967313325,26.844740843213035
0.8764127547969252,1.4484664048338756,1301,-18,18.764967967313325,26.844740843213035
0.8908937532057106,1.4484519235425897,1301,-18,18.764967967313325,26.844740843213035
0.9053746047255393,1.4484374423985624,1301,-18,18.764967967313325,26.844740843213035
0.9198553095204582,1.4484229614016018,1301,-18,18.764967967313325,26.844740843213035
0.934335867742004,1.44840848055153,1301,-18,18.764967967313325,26.844740843213035
0.9488162795301647,1.4483939998481832,1301,-18,18.764967967313325,26.844740843213035
0.9632965450142694,1.4483795192914097,1301,-18,18.764967967313325,26.844740843213035
0.9777766643138075,1.4483650388810696,1301,-18,18.764967967313325,26.844740843213035
0.9922566375391858,1.4483505586170335,1301,-18,18.764967967313325,26.844740843213035
1.006736464792428,1.4483360784991821,1301,-18,18.764967967313325,26.844740843213035
1.021216146167819,1.4483215985274047,1301,-18,18.764967967313325,26.844740843213035
1.035695681752501,1.4483071187015994,1301,-18,18.764967967313325,26.844740843213035
1.0501750716270217,1.4482926390216722,1301,-18,18.764967967313325,26.844740843213035
1.064654315865844,1.4482781594875354,1301,-18,18.764967967313325,26.844740843213035
1.0791334145378115,1.4482636800991089,1301,-18,18.764967967313325,26.844740843213035
1.0936123677065837,1.448249200856318,1301,-18,18.764967967313325,26.844740843213035
1.108091175431032,1.4482347217590938,1301,-18,18.764967967313325,26.844740843213035
1.1225698377656106,1.4482202428073732,1301,-18,18.764967967313325,26.844740843213035
1.1370483547606942,1.4482057640010966,1301,-18,18.764967967313325,26.844740843213035
1.1515267264628937,1.44819128534021,1301,-18,18.764967967313325,26.844740843213035
1.1660049529153445,1.4481768068246628,1301,-18,18.764967967313325,26.844740843213035
1.1804830341579753,1.4481623284544083,1301,-18,18.764967967313325,26.844740843213035
1.1949609702277526,1.4481478502294038,1301,-18,18.764967967313325,26.844740843213035
1.2094387611589112,1.448133372149609,1301,-18,18.764967967313325,26.844740843213035
1.2239164069831625,1.448118894214987,1301,-18,18.764967967313325,26.844740843213035
1.2383939077298893,1.4481044164255037,1301,-18,18.764967967313325,26.844740843213035
1.2528712634263255,1.4480899387811272,1301,-18,18.764967967313325,26.844740843213035
1.2673484740977203,1.4480754612818283,1301,-18,18.764967967313325,26.844740843213035
1.2818255397674914,1.4480609839275795,1301,-18,18.764967967313325,26.844740843213035
1.2963024604573672,1.4480465067183559,1301,-18,18.764967967313325,26.844740843213035
1.3107792361875141,1.4480320296541338,1301,-18,18.764967967313325,26.844740843213035
1.3252558669766592,1.4480175527348917,1301,-18,18.764967967313325,26.844740843213035
1.3397323528421996,1.4480030759606093,1301,-18,18.764967967313325,26.844740843213035
1.3542086938003053,1.4479885993312678,1301,-18,18.764967967313325,26.844740843213035
1.3686848898660133,1.44797412284685,1301,-18,18.764967967313325,26.844740843213035
1.3831609410533152,1.4479596465073394,1301,-18,18.764967967313325,26.844740843213035
1.3976368473752374,1.4479451703127215,1301,-18,18.764967967313325,26.844740843213035
1.4121126088439149,1.4479306942629817,1301,-18,18.764967967313325,26.844740843213035
1.4265882254706608,1.4479162183581076,1301,-18,18.764967967313325,26.844740843213035
1.441063697266029,1.4479017425980865,1301,-18,18.764967967313325,26.844740843213035
1.4555390242398725,1.4478872669829073,1301,-18,18.764967967313325,26.844740843213035
1.470014206401397,1.4478727915125595,1301,-18,18.764967967313325,26.844740843213035
1.484489243759213,1.447858316187033,1301,-18,18.764967967313325,26.844740843213035
1.4989641363213777,1.4478438410063192,1301,-18,18.764967967313325,26.844740843213035
1.513438884095441,1.447829365970409,1301,-18,18.764967967313325,26.844740843213035
1.527913487088482,1.4478148910792943,1301,-18,18.764967967313325,26.844740843213035
1.5423879453071487,1.4478004163329676,1301,-18,18.764967967313325,26.844740843213035
1.5568622587576861,1.4477859417314223,1301,-18,18.764967967313325,26.844740843213035
1.5713364274459718,1.447771467274651,1301,-18,18.764967967313325,26.844740843213035
1.5858104513775417,1.447756992962648,1301,-18,18.764967967313325,26.844740843213035
1.6002843305576178,1.4477425187954072,1301,-18,18.764967967313325,26.844740843213035
1.6147580649911304,1.4477280447729228,1301,-18,18.764967967313325,26.844740843213035
1.6292316546827432,1.4477135708951903,1301,-18,18.764967967313325,26.844740843213035
1.6437050996368714,1.4476990971622041,1301,-18,18.764967967313325,26.844740843213035
1.658178399857702,1.44768462357396,1301,-18,18.764967967313325,26.844740843213035
1.672651555349211,1.4476701501304532,1301,-18,18.764967967313325,26.844740843213035
1.6871245661151806,1.4476556768316797,1301,-18,18.764967967313325,26.844740843213035
1.7015974321592124,1.4476412036776356,1301,-18,18.764967967313325,26.844740843213035
1.7160701534847416,1.4476267306683168,1301,-18,18.764967967313325,26.844740843213035
1.7305427300950518,1.4476122578037203,1301,-18,18.764967967313325,26.844740843213035
1.7450151619932852,1.447597785083842,1301,-18,18.764967967313325,26.844740843213035
1.7594874491824524,1.447583312508679,1301,-18,18.764967967313325,26.844740843213035
1.7739595916654443,1.447568840078228,1301,-18,18.764967967313325,26.844740843213035
1.7884315894450407,1.447554367792486,1301,-18,18.764967967313325,26.844740843213035
1.8029034425239183,1.4475398956514502,1301,-18,18.764967967313325,26.844740843213035
1.81737515090466,1.447525423655118,1301,-18,18.764967967313325,26.844740843213035
1.8318467145897606,1.4475109518034863,1301,-18,18.764967967313325,26.844740843213035
1.8463181335816343,1.4474964800965529,1301,-18,18.764967967313325,26.844740843213035
1.8607894078826213,1.4474820085343147,1301,-18,18.764967967313325,26.844740843213035
1.875260537494992,1.4474675371167702,1301,-18,18.764967967313325,26.844740843213035
1.8897315224209548,1.4474530658439162,1301,-18,18.764967967313325,26.844740843213035
1.9042023626626579,1.447438594715751,1301,-18,18.764967967313325,26.844740843213035
1.9186730582221967,1.4474241237322722,1301,-18,18.764967967313325,26.844740843213035
1.9331436091016159,1.4474096528934777,1301,-18,18.764967967313325,26.844740843213035
1.947614015302915,1.4473951821993651,1301,-18,18.764967967313325,26.844740843213035
1.96208427682805,1.4473807116499329,1301,-18,18.764967967313325,26.844740843213035
1.9765543936789385,1.4473662412451787,1301,-18,18.764967967313325,26.844740843213035
1.991024365857461,1.4473517709851005,1301,-18,18.764967967313325,26.844740843213035
2.005494193365465,1.4473373008696968,1301,-18,18.764967967313325,26.844740843213035
2.019963876204767,1.4473228308989652,1301,-18,18.764967967313325,26.844740843213035
2.034433414377156,1.4473083610729043,1301,-18,18.764967967313325,26.844740843213035
2.0489028078843936,1.4472938913915119,1301,-18,18.764967967313325,26.844740843213035
2.0633720567282157,1.4472794218547864,1301,-18,18.764967967313325,26.844740843213035
2.077841160910339,1.4472649524627261,1301,-18,18.764967967313325,26.844740843213035
2.092310120432458,1.4472504832153295,1301,-18,18.764967967313325,26.844740843213035
2.106778935296247,1.4472360141125942,1301,-18,18.764967967313325,26.844740843213035
2.1212476055033638,1.447221545154519,1301,-18,18.764967967313325,26.844740843213035
2.13571613105545,1.447207076341102,1301,-18,18.764967967313325,26.844740843213035
2.150184511954132,1.4471926076723418,1301,-18,18.764967967313325,26.844740843213035
2.1646527482010214,1.4471781391482368,1301,-18,18.764967967313325,26.844740843213035
2.17912083979772,1.447163670768785,1301,-18,18.764967967313325,26.844740843213035
2.193588786745813,1.447149202533985,1301,-18,18.764967967313325,26.844740843213035
2.2080565890468793,1.447134734443835,1301,-18,18.764967967313325,26.844740843213035
2.2225242467024846,1.4471202664983338,1301,-18,18.764967967313325,26.844740843213035
2.2369917597141864,1.4471057986974794,1301,-18,18.764967967313325,26.844740843213035
2.2514591280835345,1.4470913310412707,1301,-18,18.764967967313325,26.844740843213035
2.2659263518120696,1.4470768635297058,1301,-18,18.764967967313325,26.844740843213035
2.2803934309013245,1.447062396162783,1301,-18,18.764967967313325,26.844740843213035
2.2948603653528266,1.4470479289405014,1301,-18,18.764967967313325,26.844740843213035
2.3093271551680976,1.4470334618628589,1301,-18,18.764967967313325,26.844740843213035
2.323793800348652,1.447018994929854,1301,-18,18.764967967313325,26.844740843213035
2.3382603008959983,1.4470045281414854,1301,-18,18.764967967313325,26.844740843213035
2.352726656811642,1.4469900614977516,1301,-18,18.764967967313325,26.844740843213035
2.3671928680970833,1.446975594998651,1301,-18,18.764967967313325,26.844740843213035
2.3816589347538186,1.446961128644182,1301,-18,18.764967967313325,26.844740843213035
2.3961248567833393,1.4469466624343432,1301,-18,18.764967967313325,26.844740843213035
2.4105906341871335,1.446932196369133,1301,-18,18.764967967313325,26.844740843213035
2.425056266966688,1.44691773044855,1301,-18,18.764967967313325,26.844740843213035
2.439521755123484,1.446903264672593,1301,-18,18.764967967313325,26.844740843213035
2.4539870986590007,1.44688879904126,1301,-18,18.764967967313325,26.844740843213035
2.4684522975747156,1.4468743335545498,1301,-18,18.764967967313325,26.844740843213035
2.482917351872103,1.446859868212461,1301,-18,18.764967967313325,26.844740843213035
2.4973822615526347,1.4468454030149918,1301,-18,18.764967967313325,26.844740843213035
2.511847026617781,1.446830937962141,1301,-18,18.764967967313325,26.844740843213035
2.526311647069011,1.4468164730539068,1301,-18,18.764967967313325,26.844740843213035
2.54077612290779,1.4468020082902882,1301,-18,18.764967967313325,26.844740843213035
2.5552404541355833,1.4467875436712834,1301,-18,18.764967967313325,26.844740843213035
2.569704640753854,1.4467730791968911,1301,-18,18.764967967313325,26.844740843213035
2.5841686827640657,1.4467586148671099,1301,-18,18.764967967313325,26.844740843213035
2.598632580167678,1.446744150681938,1301,-18,18.764967967313325,26.844740843213035
2.6130963329661503,1.4467296866413741,1301,-18,18.764967967313325,26.844740843213035
2.627559941160942,1.446715222745417,1301,-18,18.764967967313325,26.844740843213035
2.64202340475351,1.446700758994065,1301,-18,18.764967967313325,26.844740843213035
2.6564867237453114,1.4466862953873165,1301,-18,18.764967967313325,26.844740843213035
2.6709498981378013,1.4466718319251703,1301,-18,18.764967967313325,26.844740843213035
2.685412927932435,1.446657368607625,1301,-18,18.764967967313325,26.844740843213035
2.699875813130667,1.4466429054346788,1301,-18,18.764967967313325,26.844740843213035
2.7143385537339504,1.4466284424063305,1301,-18,18.764967967313325,26.844740843213035
2.728801149743738,1.4466139795225785,1301,-18,18.764967967313325,26.844740843213035
2.7432636011614826,1.4465995167834216,1301,-18,18.764967967313325,26.844740843213035
2.7577259079886365,1.446585054188858,1301,-18,18.764967967313325,26.844740843213035
2.7721880702266493,1.4465705917388867,1301,-18,18.764967967313325,26.844740843213035
2.786650087876973,1.4465561294335056,1301,-18,18.764967967313325,26.844740843213035
2.8011119609410575,1.446541667272714,1301,-18,18.764967967313325,26.844740843213035
2.8155736894203542,1.44652720525651,1301,-18,18.764967967313325,26.844740843213035
2.8300352733163123,1.4465127433848919,1301,-18,18.764967967313325,26.844740843213035
2.8444967126303804,1.4464982816578589,1301,-18,18.764967967313325,26.844740843213035
2.858958007364009,1.446483820075409,1301,-18,18.764967967313325,26.844740843213035
2.8734191575186445,1.4464693586375412,1301,-18,18.764967967313325,26.844740843213035
2.887880163095738,1.4464548973442537,1301,-18,18.764967967313325,26.844740843213035
2.9023410240967356,1.4464404361955452,1301,-18,18.764967967313325,26.844740843213035
2.9168017405230864,1.4464259751914144,1301,-18,18.764967967313325,26.844740843213035
2.931262312376238,1.4464115143318594,1301,-18,18.764967967313325,26.844740843213035
2.9457227396576386,1.446397053616879,1301,-18,18.764967967313325,26.844740843213035
2.9601830223687338,1.4463825930464722,1301,-18,18.764967967313325,26.844740843213035
2.974643160510972,1.4463681326206368,1301,-18,18.764967967313325,26.844740843213035
2.989103154085801,1.4463536723393717,1301,-18,18.764967967313325,26.844740843213035
3.003563003094666,1.4463392122026755,1301,-18,18.764967967313325,26.844740843213035
3.018022707539015,1.4463247522105467,1301,-18,18.764967967313325,26.844740843213035
3.0324822674202956,1.4463102923629838,1301,-18,18.764967967313325,26.844740843213035
3.046941682739952,1.4462958326599855,1301,-18,18.764967967313325,26.844740843213035
3.061400953499433,1.4462813731015502,1301,-18,18.764967967313325,26.844740843213035
3.075860079700183,1.4462669136876765,1301,-18,18.764967967313325,26.844740843213035
3.090319061343649,1.446252454418363,1301,-18,18.764967967313325,26.844740843213035
3.1047778984312777,1.4462379952936082,1301,-18,18.764967967313325,26.844740843213035
3.119236590964514,1.4462235363134106,1301,-18,18.764967967313325,26.844740843213035
3.133695138944805,1.446209077477769,1301,-18,18.764967967313325,26.844740843213035
3.1481535423735956,1.4461946187866817,1301,-18,18.764967967313325,26.844740843213035
3.1626118012523334,1.4461801602401472,1301,-18,18.764967967313325,26.844740843213035
3.1770699155824613,1.4461657018381644,1301,-18,18.764967967313325,26.844740843213035
3.191527885365428,1.4461512435807313,1301,-18,18.764967967313325,26.844740843213035
3.205985710602677,1.446136785467847,1301,-18,18.764967967313325,26.844740843213035
3.2204433912956545,1.44612232749951,1301,-18,18.764967967313325,26.844740843213035
3.2349009274458065,1.4461078696757186,1301,-18,18.764967967313325,26.844740843213035
3.2493583190545787,1.4460934119964715,1301,-18,18.764967967313325,26.844740843213035
3.2638155661234163,1.446078954461767,1301,-18,18.764967967313325,26.844740843213035
3.278272668653764,1.446064497071604,1301,-18,18.764967967313325,26.844740843213035
3.2927296266470685,1.446050039825981,1301,-18,18.764967967313325,26.844740843213035
3.307186440104773,1.4460355827248963,1301,-18,18.764967967313325,26.844740843213035
3.3216431090283245,1.4460211257683486,1301,-18,18.764967967313325,26.844740843213035
3.3360996334191677,1.4460066689563367,1301,-18,18.764967967313325,26.844740843213035
3.350556013278749,1.4459922122888589,1301,-18,18.764967967313325,26.844740843213035
3.3650122486085112,1.4459777557659137,1301,-18,18.764967967313325,26.844740843213035
