Vout,Iout,Irradiance,Temperature,MaxVoltage,MaxPower
0.003853882943433237,0.770784,651,17,21.333997823676555,15.989082821361134
0.01156157756835653,0.770784,651,17,21.333997823676555,15.989082821361134
0.019269115497781368,0.7707800690386566,651,17,21.333997823676555,15.989082821361134
0.026976468738108845,0.7707723613440317,651,17,21.333997823676555,15.989082821361134
0.03468362814054518,0.7707646538064954,651,17,21.333997823676555,15.989082821361134
0.04239060269211395,0.7707569464540258,651,17,21.333997823676555,15.989082821361134
0.050097400688678385,0.7707492392953941,651,17,21.333997823676555,15.989082821361134
0.05780402978794966,0.7707415323216132,651,17,21.333997823676555,15.989082821361134
0.06551049705850187,0.7707338255243874,651,17,21.333997823676555,15.989082821361134
0.07321680902510116,0.7707261188960588,651,17,21.333997823676555,15.989082821361134
0.08092297171054719,0.770718412429559,651,17,21.333997823676555,15.989082821361134
0.0886289906742952,0.770710706118363,651,17,21.333997823676555,15.989082821361134
0.09633487104810645,0.7707029999564482,651,17,21.333997823676555,15.989082821361134
0.10404061756895569,0.7706952939382551,651,17,21.333997823676555,15.989082821361134
0.11174623460940665,0.7706875880586519,651,17,21.333997823676555,15.989082821361134
0.11945172620565038,0.7706798823129016,651,17,21.333997823676555,15.989082821361134
0.12715709608338632,0.7706721766966318,651,17,21.333997823676555,15.989082821361134
0.13486234768171193,0.7706644712058062,651,17,21.333997823676555,15.989082821361134
0.14256748417517442,0.770656765836699,651,17,21.333997823676555,15.989082821361134
0.15027250849412563,0.7706490605858712,651,17,21.333997823676555,15.989082821361134
0.15797742334351064,0.7706413554501482,651,17,21.333997823676555,15.989082821361134
0.16568223122021117,0.7706336504265998,651,17,21.333997823676555,15.989082821361134
0.17338693442905412,0.770625945512521,651,17,21.333997823676555,15.989082821361134
0.1810915350975887,0.7706182407054147,651,17,21.333997823676555,15.989082821361134
0.18879603518972635,0.7706105360029765,651,17,21.333997823676555,15.989082821361134
0.1965004365183313,0.7706028314030784,651,17,21.333997823676555,15.989082821361134
0.20420474075684233,0.7705951269037566,651,17,21.333997823676555,15.989082821361134
0.21190894945000074,0.7705874225031986,651,17,21.333997823676555,15.989082821361134
0.21961306402375189,0.7705797181997305,651,17,21.333997823676555,15.989082821361134
0.2273170857943861,0.7705720139918077,651,17,21.333997823676555,15.989082821361134
0.23502101597697553,0.7705643098780045,651,17,21.333997823676555,15.989082821361134
0.24272485569316182,0.7705566058570043,651,17,21.333997823676555,15.989082821361134
0.2504286059783452,0.7705489019275921,651,17,21.333997823676555,15.989082821361134
0.2581322677883197,0.7705411980886463,651,17,21.333997823676555,15.989082821361134
0.26583584200539834,0.7705334943391315,651,17,21.333997823676555,15.989082821361134
0.2735393294440668,0.7705257906780919,651,17,21.333997823676555,15.989082821361134
0.2812427308562021,0.7705180871046452,651,17,21.333997823676555,15.989082821361134
0.28894604693589004,0.7705103836179769,651,17,21.333997823676555,15.989082821361134
0.2966492783238715,0.7705026802173351,651,17,21.333997823676555,15.989082821361134
0.30435242561164716,0.7704949769020257,651,17,21.333997823676555,15.989082821361134
0.3120554893452658,0.7704872736714081,651,17,21.333997823676555,15.989082821361134
0.31975847002882146,0.7704795705248907,651,17,21.333997823676555,15.989082821361134
0.327461368127682,0.7704718674619274,651,17,21.333997823676555,15.989082821361134
0.3351641840714679,0.7704641644820142,651,17,21.333997823676555,15.989082821361134
0.3428669182568037,0.7704564615846856,651,17,21.333997823676555,15.989082821361134
0.3505695710498558,0.7704487587695121,651,17,21.333997823676555,15.989082821361134
0.35827214278867675,0.770441056036097,651,17,21.333997823676555,15.989082821361134
0.36597463378536765,0.7704333533840743,651,17,21.333997823676555,15.989082821361134
0.37367704432807586,0.7704256508131058,651,17,21.333997823676555,15.989082821361134
0.381379374682837,0.7704179483228794,651,17,21.333997823676555,15.989082821361134
0.3890816250952768,0.7704102459131069,651,17,21.333997823676555,15.989082821361134
0.39678379579218137,0.7704025435835223,651,17,21.333997823676555,15.989082821361134
0.4044858869829471,0.7703948413338801,651,17,21.333997823676555,15.989082821361134
0.4121878988609177,0.7703871391639535,651,17,21.333997823676555,15.989082821361134
0.4198898316046206,0.770379437073533,651,17,21.333997823676555,15.989082821361134
0.42759168537890585,0.7703717350624252,651,17,21.333997823676555,15.989082821361134
0.4352934603359989,0.7703640331304517,651,17,21.333997823676555,15.989082821361134
0.4429951566164723,0.7703563312774476,651,17,21.333997823676555,15.989082821361134
0.4506967743501416,0.7703486295032607,651,17,21.333997823676555,15.989082821361134
0.4583983136568935,0.7703409278077504,651,17,21.333997823676555,15.989082821361134
0.46609977464744967,0.7703332261907869,651,17,21.333997823676555,15.989082821361134
0.4738011574240718,0.7703255246522503,651,17,21.333997823676555,15.989082821361134
0.48150246208121283,0.7703178231920299,651,17,21.333997823676555,15.989082821361134
0.4892036887061173,0.7703101218100235,651,17,21.333997823676555,15.989082821361134
0.4969048373793763,0.7703024205061365,651,17,21.333997823676555,15.989082821361134
0.5046059081754396,0.7702947192802817,651,17,21.333997823676555,15.989082821361134
0.5123069011630877,0.7702870181323785,651,17,21.333997823676555,15.989082821361134
0.5200078164058682,0.7702793170623526,651,17,21.333997823676555,15.989082821361134
0.5277086539624986,0.7702716160701352,651,17,21.333997823676555,15.989082821361134
0.5354094138872374,0.7702639151556625,651,17,21.333997823676555,15.989082821361134
0.5431100962302281,0.7702562143188759,651,17,21.333997823676555,15.989082821361134
0.5508107010378154,0.7702485135597212,651,17,21.333997823676555,15.989082821361134
0.5585112283528364,0.7702408128781484,651,17,21.333997823676555,15.989082821361134
0.5662116782148927,0.7702331122741108,651,17,21.333997823676555,15.989082821361134
0.5739120506605975,0.7702254117475659,651,17,21.333997823676555,15.989082821361134
0.5816123457238058,0.7702177112984739,651,17,21.333997823676555,15.989082821361134
0.5893125634358277,0.7702100109267983,651,17,21.333997823676555,15.989082821361134
0.5970127038256229,0.7702023106325051,651,17,21.333997823676555,15.989082821361134
0.6047127669199823,0.7701946104155631,651,17,21.333997823676555,15.989082821361134
0.6124127527436948,0.7701869102759433,651,17,21.333997823676555,15.989082821361134
0.6201126613197011,0.770179210213619,651,17,21.333997823676555,15.989082821361134
0.627812492669236,0.7701715102285653,651,17,21.333997823676555,15.989082821361134
0.6355122468119595,0.7701638103207593,651,17,21.333997823676555,15.989082821361134
0.6432119237660785,0.7701561104901797,651,17,21.333997823676555,15.989082821361134
0.6509115235484582,0.7701484107368071,651,17,21.333997823676555,15.989082821361134
0.6586110461747248,0.7701407110606229,651,17,21.333997823676555,15.989082821361134
0.6663104916593623,0.7701330114616105,651,17,21.333997823676555,15.989082821361134
0.6740098600157985,0.7701253119397542,651,17,21.333997823676555,15.989082821361134
0.6817091512564881,0.7701176124950395,651,17,21.333997823676555,15.989082821361134
0.6894083653929866,0.770109913127453,651,17,21.333997823676555,15.989082821361134
0.6971075024360192,0.7701022138369823,651,17,21.333997823676555,15.989082821361134
0.7048065623955451,0.7700945146236158,651,17,21.333997823676555,15.989082821361134
0.7125055452808169,0.7700868154873426,651,17,21.333997823676555,15.989082821361134
0.7202044511004339,0.770079116428153,651,17,21.333997823676555,15.989082821361134
0.7279032798623934,0.7700714174460377,651,17,21.333997823676555,15.989082821361134
0.7356020315741367,0.770063718540988,651,17,21.333997823676555,15.989082821361134
0.743300706242591,0.7700560197129959,651,17,21.333997823676555,15.989082821361134
0.7509993038742108,0.770048320962054,651,17,21.333997823676555,15.989082821361134
0.758697824475012,0.7700406222881555,651,17,21.333997823676555,15.989082821361134
0.7663962680506079,0.7700329236912937,651,17,21.333997823676555,15.989082821361134
0.7740946346062384,0.7700252251714628,651,17,21.333997823676555,15.989082821361134
0.7817929241467995,0.7700175267286571,651,17,21.333997823676555,15.989082821361134
0.7894911366768701,0.7700098283628712,651,17,21.333997823676555,15.989082821361134
0.7971892722007355,0.7700021300741006,651,17,21.333997823676555,15.989082821361134
0.8048873307224109,0.7699944318623403,651,17,21.333997823676555,15.989082821361134
0.8125853122456616,0.7699867337275863,651,17,21.333997823676555,15.989082821361134
0.8202832167740222,0.7699790356698344,651,17,21.333997823676555,15.989082821361134
0.8279810443108148,0.769971337689081,651,17,21.333997823676555,15.989082821361134
0.835678794859165,0.7699636397853225,651,17,21.333997823676555,15.989082821361134
0.8433764684220167,0.7699559419585554,651,17,21.333997823676555,15.989082821361134
0.8510740650021477,0.7699482442087768,651,17,21.333997823676555,15.989082821361134
0.8587715846021795,0.7699405465359838,651,17,21.333997823676555,15.989082821361134
0.8664690272245926,0.7699328489401734,651,17,21.333997823676555,15.989082821361134
0.8741663928717353,0.7699251514213432,651,17,21.333997823676555,15.989082821361134
0.8818636815458339,0.7699174539794905,651,17,21.333997823676555,15.989082821361134
0.8895608932490037,0.7699097566146131,651,17,21.333997823676555,15.989082821361134
0.8972580279832552,0.7699020593267087,651,17,21.333997823676555,15.989082821361134
0.9049550857505045,0.7698943621157753,651,17,21.333997823676555,15.989082821361134
0.9126520665525784,0.7698866649818108,651,17,21.333997823676555,15.989082821361134
0.9203489703912232,0.7698789679248134,651,17,21.333997823676555,15.989082821361134
0.9280457972681097,0.7698712709447809,651,17,21.333997823676555,15.989082821361134
0.9357425471848392,0.769863574041712,651,17,21.333997823676555,15.989082821361134
0.9434392201429495,0.7698558772156048,651,17,21.333997823676555,15.989082821361134
0.9511358161439185,0.7698481804664578,651,17,21.333997823676555,15.989082821361134
0.95883233518917,0.7698404837942694,651,17,21.333997823676555,15.989082821361134
0.9665287772800776,0.769832787199038,651,17,21.333997823676555,15.989082821361134
0.9742251424179681,0.7698250906807624,651,17,21.333997823676555,15.989082821361134
0.9819214306041255,0.7698173942394412,651,17,21.333997823676555,15.989082821361134
0.9896176418397941,0.769809697875073,651,17,21.333997823676555,15.989082821361134
0.9973137761261819,0.7698020015876564,651,17,21.333997823676555,15.989082821361134
1.0050098334644626,0.7697943053771904,651,17,21.333997823676555,15.989082821361134
1.0127058138557794,0.7697866092436737,651,17,21.333997823676555,15.989082821361134
1.0204017173012463,0.769778913187105,651,17,21.333997823676555,15.989082821361134
1.028097543801951,0.7697712172074833,651,17,21.333997823676555,15.989082821361134
1.035793293358957,0.7697635213048074,651,17,21.333997823676555,15.989082821361134
1.0434889659733038,0.7697558254790764,651,17,21.333997823676555,15.989082821361134
1.051184561646012,0.7697481297302889,651,17,21.333997823676555,15.989082821361134
1.0588800803780813,0.7697404340584442,651,17,21.333997823676555,15.989082821361134
1.0665755221704944,0.7697327384635411,651,17,21.333997823676555,15.989082821361134
1.0742708870242177,0.7697250429455785,651,17,21.333997823676555,15.989082821361134
1.081966174940202,0.7697173475045557,651,17,21.333997823676555,15.989082821361134
1.089661385919384,0.7697096521404715,651,17,21.333997823676555,15.989082821361134
1.0973565199626878,0.7697019568533251,651,17,21.333997823676555,15.989082821361134
1.1050515770710259,0.7696942616431154,651,17,21.333997823676555,15.989082821361134
1.1127465572452993,0.7696865665098417,651,17,21.333997823676555,15.989082821361134
1.1204414604863986,0.7696788714535029,651,17,21.333997823676555,15.989082821361134
1.1281362867952056,0.7696711764740981,651,17,21.333997823676555,15.989082821361134
1.1358310361725932,0.7696634815716265,651,17,21.333997823676555,15.989082821361134
1.1435257086194266,0.7696557867460871,651,17,21.333997823676555,15.989082821361134
1.1512203041365632,0.7696480919974793,651,17,21.333997823676555,15.989082821361134
1.1589148227248531,0.7696403973258019,651,17,21.333997823676555,15.989082821361134
1.1666092643851418,0.7696327027310542,651,17,21.333997823676555,15.989082821361134
1.1743036291182671,0.7696250082132354,651,17,21.333997823676555,15.989082821361134
1.1819979169250627,0.7696173137723447,651,17,21.333997823676555,15.989082821361134
1.1896921278063568,0.7696096194083809,651,17,21.333997823676555,15.989082821361134
1.1973862617629734,0.7696019251213436,651,17,21.333997823676555,15.989082821361134
1.2050803187957315,0.7695942309112317,651,17,21.333997823676555,15.989082821361134
1.2127742989054473,0.7695865367780446,651,17,21.333997823676555,15.989082821361134
1.2204682020929325,0.7695788427217812,651,17,21.333997823676555,15.989082821361134
1.228162028358996,0.7695711487424409,651,17,21.333997823676555,15.989082821361134
1.2358557777044437,0.7695634548400229,651,17,21.333997823676555,15.989082821361134
1.2435494501300781,0.7695557610145262,651,17,21.333997823676555,15.989082821361134
1.2512430456366994,0.76954806726595,651,17,21.333997823676555,15.989082821361134
1.2589365642251058,0.7695403735942938,651,17,21.333997823676555,15.989082821361134
1.2666300058960926,0.7695326799995565,651,17,21.333997823676555,15.989082821361134
1.2743233706504538,0.7695249864817375,651,17,21.333997823676555,15.989082821361134
1.2820166584889805,0.7695172930408359,651,17,21.333997823676555,15.989082821361134
1.289709869412463,0.769509599676851,651,17,21.333997823676555,15.989082821361134
1.2974030034216892,0.7695019063897818,651,17,21.333997823676555,15.989082821361134
1.3050960605174462,0.7694942131796276,651,17,21.333997823676555,15.989082821361134
1.3127890407005194,0.7694865200463877,651,17,21.333997823676555,15.989082821361134
1.3204819439716928,0.7694788269900613,651,17,21.333997823676555,15.989082821361134
1.3281747703317495,0.7694711340106475,651,17,21.333997823676555,15.989082821361134
1.3358675197814713,0.7694634411081457,651,17,21.333997823676555,15.989082821361134
1.3435601923216391,0.7694557482825549,651,17,21.333997823676555,15.989082821361134
1.351252787953033,0.7694480555338744,651,17,21.333997823676555,15.989082821361134
1.358945306676431,0.7694403628621036,651,17,21.333997823676555,15.989082821361134
1.3666377484926129,0.7694326702672415,651,17,21.333997823676555,15.989082821361134
1.3743301134023556,0.7694249777492873,651,17,21.333997823676555,15.989082821361134
1.3820224014064357,0.7694172853082404,651,17,21.333997823676555,15.989082821361134
1.3897146125056299,0.7694095929440999,651,17,21.333997823676555,15.989082821361134
1.3974067467007143,0.7694019006568651,651,17,21.333997823676555,15.989082821361134
1.4050988039924635,0.769394208446535,651,17,21.333997823676555,15.989082821361134
1.412790784381652,0.7693865163131093,651,17,21.333997823676555,15.989082821361134
1.4204826878690542,0.7693788242565868,651,17,21.333997823676555,15.989082821361134
1.4281745144554439,0.7693711322769667,651,17,21.333997823676555,15.989082821361134
1.4358662641415945,0.7693634403742485,651,17,21.333997823676555,15.989082821361134
1.4435579369282792,0.7693557485484314,651,17,21.333997823676555,15.989082821361134
1.4512495328162704,0.7693480567995143,651,17,21.333997823676555,15.989082821361134
1.4589410518063408,0.7693403651274969,651,17,21.333997823676555,15.989082821361134
1.4666324938992625,0.7693326735323781,651,17,21.333997823676555,15.989082821361134
1.474323859095807,0.7693249820141572,651,17,21.333997823676555,15.989082821361134
1.4820151473967464,0.7693172905728334,651,17,21.333997823676555,15.989082821361134
1.4897063588028514,0.769309599208406,651,17,21.333997823676555,15.989082821361134
1.4973974933148941,0.7693019079208743,651,17,21.333997823676555,15.989082821361134
1.505088550933645,0.7692942167102372,651,17,21.333997823676555,15.989082821361134
1.5127795316598747,0.7692865255764944,651,17,21.333997823676555,15.989082821361134
1.5204704354943537,0.7692788345196447,651,17,21.333997823676555,15.989082821361134
1.5281612624378533,0.7692711435396876,651,17,21.333997823676555,15.989082821361134
1.5358520124911434,0.7692634526366222,651,17,21.333997823676555,15.989082821361134
1.543542685654994,0.7692557618104479,651,17,21.333997823676555,15.989082821361134
1.5512332819301755,0.7692480710611637,651,17,21.333997823676555,15.989082821361134
1.5589238013174578,0.7692403803887689,651,17,21.333997823676555,15.989082821361134
1.5666142438176105,0.7692326897932628,651,17,21.333997823676555,15.989082821361134
1.574304609431404,0.7692249992746445,651,17,21.333997823676555,15.989082821361134
1.5819948981596068,0.7692173088329134,651,17,21.333997823676555,15.989082821361134
1.58968511000299,0.7692096184680687,651,17,21.333997823676555,15.989082821361134
1.5973752449623222,0.7692019281801096,651,17,21.333997823676555,15.989082821361134
1.6050653030383728,0.7691942379690352,651,17,21.333997823676555,15.989082821361134
1.6127552842319117,0.7691865478348449,651,17,21.333997823676555,15.989082821361134
1.6204451885437074,0.7691788577775378,651,17,21.333997823676555,15.989082821361134
1.62813501597453,0.7691711677971134,651,17,21.333997823676555,15.989082821361134
1.6358247665251482,0.7691634778935705,651,17,21.333997823676555,15.989082821361134
1.6435144401963315,0.7691557880669088,651,17,21.333997823676555,15.989082821361134
1.6512040369888488,0.769148098317127,651,17,21.333997823676555,15.989082821361134
1.6588935569034693,0.7691404086442248,651,17,21.333997823676555,15.989082821361134
1.6665829999409616,0.7691327190482014,651,17,21.333997823676555,15.989082821361134
1.6742723661020948,0.7691250295290557,651,17,21.333997823676555,15.989082821361134
1.6819616553876384,0.7691173400867871,651,17,21.333997823676555,15.989082821361134
1.689650867798361,0.7691096507213949,651,17,21.333997823676555,15.989082821361134
1.6973400033350314,0.7691019614328783,651,17,21.333997823676555,15.989082821361134
1.7050290619984183,0.7690942722212366,651,17,21.333997823676555,15.989082821361134
1.7127180437892908,0.7690865830864688,651,17,21.333997823676555,15.989082821361134
1.720406948708417,0.7690788940285744,651,17,21.333997823676555,15.989082821361134
1.7280957767565666,0.7690712050475524,651,17,21.333997823676555,15.989082821361134
1.7357845279345077,0.7690635161434022,651,17,21.333997823676555,15.989082821361134
1.7434732022430093,0.769055827316123,651,17,21.333997823676555,15.989082821361134
1.7511617996828397,0.7690481385657139,651,17,21.333997823676555,15.989082821361134
1.758850320254768,0.7690404498921742,651,17,21.333997823676555,15.989082821361134
1.766538763959563,0.7690327612955034,651,17,21.333997823676555,15.989082821361134
1.7742271307979927,0.7690250727757003,651,17,21.333997823676555,15.989082821361134
1.7819154207708259,0.7690173843327643,651,17,21.333997823676555,15.989082821361134
1.7896036338788313,0.7690096959666948,651,17,21.333997823676555,15.989082821361134
1.7972917701227775,0.7690020076774907,651,17,21.333997823676555,15.989082821361134
1.804979829503433,0.7689943194651516,651,17,21.333997823676555,15.989082821361134
1.8126678120215665,0.7689866313296765,651,17,21.333997823676555,15.989082821361134
1.8203557176779461,0.7689789432710646,651,17,21.333997823676555,15.989082821361134
