Vout,Iout,Irradiance,Temperature,MaxVoltage,MaxPower
0.007792915068124346,1.558598,1301,24,21.855497417641494,33.58694001560832
0.023378601105997723,1.558598,1301,24,21.855497417641494,33.58694001560832
0.038963970290783204,1.5585900512251318,1301,24,21.855497417641494,33.58694001560832
0.05454896601678157,1.5585744655390938,1301,24,21.855497417641494,33.58694001560832
0.07013356978426825,1.558558880170704,1301,24,21.855497417641494,33.58694001560832
0.08571779976585321,1.5585432951765366,1301,24,21.855497417641494,33.58694001560832
0.1013016727365549,1.5585277105743276,1301,24,21.855497417641494,33.58694001560832
0.11688520418098813,1.5585121263459045,1301,24,21.855497417641494,33.58694001560832
0.13246840839247687,1.5584965424744923,1301,24,21.855497417641494,33.58694001560832
0.1480512985647141,1.5584809589446063,1301,24,21.855497417641494,33.58694001560832
0.1636338868763693,1.558465375741953,1301,24,21.855497417641494,33.58694001560832
0.17921618456918556,1.5584497928533394,1301,24,21.855497417641494,33.58694001560832
0.19479820202006867,1.558434210266586,1301,24,21.855497417641494,33.58694001560832
0.2103799488076286,1.5584186279704515,1301,24,21.855497417641494,33.58694001560832
0.22596143377360195,1.5584030459545588,1301,24,21.855497417641494,33.58694001560832
0.24154266507954794,1.5583874642093296,1301,24,21.855497417641494,33.58694001560832
0.25712365025918255,1.5583718827259216,1301,24,21.855497417641494,33.58694001560832
0.27270439626668547,1.5583563014961739,1301,24,21.855497417641494,33.58694001560832
0.2882849095212907,1.5583407205125526,1301,24,21.855497417641494,33.58694001560832
0.3038651959484463,1.558325139768103,1301,24,21.855497417641494,33.58694001560832
0.3194452610178065,1.5583095592564067,1301,24,21.855497417641494,33.58694001560832
0.3350251097783019,1.5582939789715375,1301,24,21.855497417641494,33.58694001560832
0.3506047468905101,1.5582783989080262,1301,24,21.855497417641494,33.58694001560832
0.36618417665653613,1.5582628190608236,1301,24,21.855497417641494,33.58694001560832
0.38176340304759454,1.5582472394252695,1301,24,21.855497417641494,33.58694001560832
0.3973424297294677,1.5582316599970616,1301,24,21.855497417641494,33.58694001560832
0.4129212600860072,1.5582160807722283,1301,24,21.855497417641494,33.58694001560832
0.42849989724082516,1.5582005017471046,1301,24,21.855497417641494,33.58694001560832
0.44407834407731805,1.5581849229183058,1301,24,21.855497417641494,33.58694001560832
0.4596566032571492,1.558169344282709,1301,24,21.855497417641494,33.58694001560832
0.475234677237309,1.5581537658374303,1301,24,21.855497417641494,33.58694001560832
0.4908125682858629,1.5581381875798084,1301,24,21.855497417641494,33.58694001560832
0.5063902784964878,1.5581226095073861,1301,24,21.855497417641494,33.58694001560832
0.5219678098018895,1.5581070316178953,1301,24,21.855497417641494,33.58694001560832
0.5375451639861877,1.5580914539092425,1301,24,21.855497417641494,33.58694001560832
0.5531223426963499,1.5580758763794949,1301,24,21.855497417641494,33.58694001560832
0.5686993474527423,1.5580602990268684,1301,24,21.855497417641494,33.58694001560832
0.584276179658872,1.558044721849716,1301,24,21.855497417641494,33.58694001560832
0.5998528406103776,1.5580291448465173,1301,24,21.855497417641494,33.58694001560832
0.6154293315033288,1.5580135680158689,1301,24,21.855497417641494,33.58694001560832
0.6310056534418881,1.557997991356475,1301,24,21.855497417641494,33.58694001560832
0.6465818074453813,1.5579824148671397,1301,24,21.855497417641494,33.58694001560832
0.662157794454826,1.5579668385467589,1301,24,21.855497417641494,33.58694001560832
0.6777336153389555,1.557951262394313,1301,24,21.855497417641494,33.58694001560832
0.6933092708997818,1.5579356864088612,1301,24,21.855497417641494,33.58694001560832
0.7088847618777282,1.5579201105895348,1301,24,21.855497417641494,33.58694001560832
0.7244600889563686,1.5579045349355316,1301,24,21.855497417641494,33.58694001560832
0.7400352527668014,1.5578889594461112,1301,24,21.855497417641494,33.58694001560832
0.7556102538916871,1.55787338412059,1301,24,21.855497417641494,33.58694001560832
0.771185092868975,1.5578578089583373,1301,24,21.855497417641494,33.58694001560832
0.7867597701953437,1.5578422339587699,1301,24,21.855497417641494,33.58694001560832
0.8023342863293764,1.55782665912135,1301,24,21.855497417641494,33.58694001560832
0.8179086416944916,1.5578110844455813,1301,24,21.855497417641494,33.58694001560832
0.8334828366816495,1.5577955099310046,1301,24,21.855497417641494,33.58694001560832
0.8490568716518483,1.557779935577197,1301,24,21.855497417641494,33.58694001560832
0.8646307469384311,1.5577643613837673,1301,24,21.855497417641494,33.58694001560832
0.8802044628492123,1.5577487873503546,1301,24,21.855497417641494,33.58694001560832
0.895778019668442,1.5577332134766253,1301,24,21.855497417641494,33.58694001560832
0.9113514176586202,1.557717639762272,1301,24,21.855497417641494,33.58694001560832
0.9269246570621689,1.5577020662070102,1301,24,21.855497417641494,33.58694001560832
0.9424977381029777,1.5576864928105774,1301,24,21.855497417641494,33.58694001560832
0.9580706609878296,1.5576709195727312,1301,24,21.855497417641494,33.58694001560832
0.9736434259077172,1.5576553464932477,1301,24,21.855497417641494,33.58694001560832
0.9892160330390573,1.55763977357192,1301,24,21.855497417641494,33.58694001560832
1.0047884825448126,1.5576242008085575,1301,24,21.855497417641494,33.58694001560832
1.0203607745755279,1.5576086282029835,1301,24,21.855497417641494,33.58694001560832
1.0359329092702834,1.557593055755035,1301,24,21.855497417641494,33.58694001560832
1.0515048867575782,1.5575774834645615,1301,24,21.855497417641494,33.58694001560832
1.0670767071561449,1.557561911331424,1301,24,21.855497417641494,33.58694001560832
1.0826483705756997,1.557546339355494,1301,24,21.855497417641494,33.58694001560832
1.0982198771176372,1.5575307675366528,1301,24,21.855497417641494,33.58694001560832
1.11379122687567,1.5575151958747904,1301,24,21.855497417641494,33.58694001560832
1.1293624199364205,1.5574996243698056,1301,24,21.855497417641494,33.58694001560832
1.1449334563799654,1.5574840530216048,1301,24,21.855497417641494,33.58694001560832
1.16050433628034,1.557468481830101,1301,24,21.855497417641494,33.58694001560832
1.1760750597060032,1.5574529107952146,1301,24,21.855497417641494,33.58694001560832
1.1916456267202666,1.5574373399168715,1301,24,21.855497417641494,33.58694001560832
1.2072160373816891,1.5574217691950027,1301,24,21.855497417641494,33.58694001560832
1.2227862917444454,1.5574061986295458,1301,24,21.855497417641494,33.58694001560832
1.2383563898586603,1.5573906282204413,1301,24,21.855497417641494,33.58694001560832
1.253926331770721,1.5573750579676355,1301,24,21.855497417641494,33.58694001560832
1.2694961175235682,1.5573594878710784,1301,24,21.855497417641494,33.58694001560832
1.2850657471569553,1.5573439179307234,1301,24,21.855497417641494,33.58694001560832
1.3006352207076983,1.5573283481465277,1301,24,21.855497417641494,33.58694001560832
1.3162045382099006,1.557312778518451,1301,24,21.855497417641494,33.58694001560832
1.3317736996951597,1.5572972090464574,1301,24,21.855497417641494,33.58694001560832
1.3473427051927633,1.5572816397305123,1301,24,21.855497417641494,33.58694001560832
1.3629115547298645,1.5572660705705839,1301,24,21.855497417641494,33.58694001560832
1.3784802483316478,1.5572505015666431,1301,24,21.855497417641494,33.58694001560832
1.3940487860214779,1.557234932718663,1301,24,21.855497417641494,33.58694001560832
1.4096171678210434,1.557219364026618,1301,24,21.855497417641494,33.58694001560832
1.4251853937504833,1.5572037954904852,1301,24,21.855497417641494,33.58694001560832
1.4407534638285062,1.5571882271102424,1301,24,21.855497417641494,33.58694001560832
1.4563213780725013,1.5571726588858699,1301,24,21.855497417641494,33.58694001560832
1.4718891364986395,1.5571570908173487,1301,24,21.855497417641494,33.58694001560832
1.487456739121968,1.5571415229046615,1301,24,21.855497417641494,33.58694001560832
1.5030241859564946,1.5571259551477923,1301,24,21.855497417641494,33.58694001560832
1.5185914770152698,1.5571103875467256,1301,24,21.855497417641494,33.58694001560832
1.5341586123104598,1.5570948201014478,1301,24,21.855497417641494,33.58694001560832
1.5497255918534143,1.557079252811946,1301,24,21.855497417641494,33.58694001560832
1.5652924156547292,1.5570636856782074,1301,24,21.855497417641494,33.58694001560832
1.5808590837243048,1.5570481187002212,1301,24,21.855497417641494,33.58694001560832
1.5964255960713991,1.5570325518779766,1301,24,21.855497417641494,33.58694001560832
1.6119919527046787,1.5570169852114637,1301,24,21.855497417641494,33.58694001560832
1.6275581536322619,1.5570014187006733,1301,24,21.855497417641494,33.58694001560832
1.6431241988617626,1.5569858523455968,1301,24,21.855497417641494,33.58694001560832
1.6586900884003282,1.5569702861462258,1301,24,21.855497417641494,33.58694001560832
1.6742558222546762,1.5569547201025529,1301,24,21.855497417641494,33.58694001560832
1.689821400431127,1.556939154214571,1301,24,21.855497417641494,33.58694001560832
1.705386822935634,1.5569235884822732,1301,24,21.855497417641494,33.58694001560832
1.7209520897738124,1.5569080229056533,1301,24,21.855497417641494,33.58694001560832
1.7365172009509655,1.5568924574847054,1301,24,21.855497417641494,33.58694001560832
1.7520821564721079,1.5568768922194238,1301,24,21.855497417641494,33.58694001560832
1.767646956341987,1.5568613271098033,1301,24,21.855497417641494,33.58694001560832
1.7832116005651066,1.5568457621558387,1301,24,21.855497417641494,33.58694001560832
1.7987760891457423,1.5568301973575251,1301,24,21.855497417641494,33.58694001560832
1.814340422087961,1.5568146327148586,1301,24,21.855497417641494,33.58694001560832
1.829904599395636,1.5567990682278345,1301,24,21.855497417641494,33.58694001560832
1.8454686210724625,1.5567835038964486,1301,24,21.855497417641494,33.58694001560832
1.8610324871219706,1.5567679397206975,1301,24,21.855497417641494,33.58694001560832
1.8765961975475396,1.556752375700577,1301,24,21.855497417641494,33.58694001560832
1.8921597523524067,1.556736811836084,1301,24,21.855497417641494,33.58694001560832
1.9077231515396817,1.5567212481272148,1301,24,21.855497417641494,33.58694001560832
1.9232863951123538,1.5567056845739664,1301,24,21.855497417641494,33.58694001560832
1.9388494830733014,1.5566901211763355,1301,24,21.855497417641494,33.58694001560832
1.9544124154253018,1.556674557934319,1301,24,21.855497417641494,33.58694001560832
1.9699751921710382,1.5566589948479146,1301,24,21.855497417641494,33.58694001560832
1.9855378133131072,1.5566434319171187,1301,24,21.855497417641494,33.58694001560832
2.0011002788540244,1.5566278691419293,1301,24,21.855497417641494,33.58694001560832
2.016662588796233,1.5566123065223436,1301,24,21.855497417641494,33.58694001560832
2.0322247431421063,1.556596744058359,1301,24,21.855497417641494,33.58694001560832
2.047786741893956,1.556581181749973,1301,24,21.855497417641494,33.58694001560832
2.0633485850540345,1.5565656195971833,1301,24,21.855497417641494,33.58694001560832
2.078910272624541,1.5565500575999878,1301,24,21.855497417641494,33.58694001560832
2.094471804607626,1.556534495758384,1301,24,21.855497417641494,33.58694001560832
2.110033181005393,1.5565189340723695,1301,24,21.855497417641494,33.58694001560832
2.125594401819903,1.5565033725419428,1301,24,21.855497417641494,33.58694001560832
2.1411554670531796,1.5564878111671012,1301,24,21.855497417641494,33.58694001560832
2.156716376707209,1.5564722499478427,1301,24,21.855497417641494,33.58694001560832
2.1722771307839457,1.5564566888841656,1301,24,21.855497417641494,33.58694001560832
2.1878377292853117,1.5564411279760677,1301,24,21.855497417641494,33.58694001560832
2.2033981722132028,1.5564255672235472,1301,24,21.855497417641494,33.58694001560832
2.218958459569486,1.5564100066266018,1301,24,21.855497417641494,33.58694001560832
2.234518591356006,1.55639444618523,1301,24,21.855497417641494,33.58694001560832
2.250078567574586,1.5563788858994299,1301,24,21.855497417641494,33.58694001560832
2.265638388227027,1.5563633257691993,1301,24,21.855497417641494,33.58694001560832
2.2811980533151113,1.5563477657945368,1301,24,21.855497417641494,33.58694001560832
2.2967575628406047,1.5563322059754403,1301,24,21.855497417641494,33.58694001560832
2.3123169168052553,1.5563166463119082,1301,24,21.855497417641494,33.58694001560832
2.327876115210798,1.5563010868039386,1301,24,21.855497417641494,33.58694001560832
2.3434351580589525,1.5562855274515301,1301,24,21.855497417641494,33.58694001560832
2.358994045351427,1.5562699682546806,1301,24,21.855497417641494,33.58694001560832
2.3745527770899164,1.5562544092133883,1301,24,21.855497417641494,33.58694001560832
2.390111353276106,1.5562388503276516,1301,24,21.855497417641494,33.58694001560832
2.405669773911671,1.5562232915974692,1301,24,21.855497417641494,33.58694001560832
2.4212280389982768,1.5562077330228388,1301,24,21.855497417641494,33.58694001560832
2.43678614853758,1.556192174603759,1301,24,21.855497417641494,33.58694001560832
2.452344102531232,1.5561766163402284,1301,24,21.855497417641494,33.58694001560832
2.467901900980873,1.556161058232245,1301,24,21.855497417641494,33.58694001560832
2.4834595438881393,1.556145500279807,1301,24,21.855497417641494,33.58694001560832
2.4990170312546596,1.5561299424829131,1301,24,21.855497417641494,33.58694001560832
2.514574363082058,1.5561143848415617,1301,24,21.855497417641494,33.58694001560832
2.5301315393719515,1.556098827355751,1301,24,21.855497417641494,33.58694001560832
2.545688560125954,1.5560832700254794,1301,24,21.855497417641494,33.58694001560832
2.5612454253456747,1.5560677128507452,1301,24,21.855497417641494,33.58694001560832
2.5768021350327173,1.556052155831547,1301,24,21.855497417641494,33.58694001560832
2.5923586891886834,1.556036598967883,1301,24,21.855497417641494,33.58694001560832
2.6079150878151696,1.5560210422597516,1301,24,21.855497417641494,33.58694001560832
2.6234713309137705,1.5560054857071512,1301,24,21.855497417641494,33.58694001560832
2.639027418486077,1.5559899293100805,1301,24,21.855497417641494,33.58694001560832
2.654583350533677,1.5559743730685376,1301,24,21.855497417641494,33.58694001560832
2.670139127058156,1.555958816982521,1301,24,21.855497417641494,33.58694001560832
2.6856947480610973,1.555943261052029,1301,24,21.855497417641494,33.58694001560832
2.7012502135440832,1.5559277052770601,1301,24,21.855497417641494,33.58694001560832
2.716805523508691,1.5559121496576127,1301,24,21.855497417641494,33.58694001560832
2.7323606779564984,1.5558965941936853,1301,24,21.855497417641494,33.58694001560832
2.7479156768890802,1.5558810388852762,1301,24,21.855497417641494,33.58694001560832
2.763470520308011,1.555865483732384,1301,24,21.855497417641494,33.58694001560832
2.7790252082148634,1.555849928735007,1301,24,21.855497417641494,33.58694001560832
2.7945797406112076,1.5558343738931435,1301,24,21.855497417641494,33.58694001560832
2.8101341174986136,1.555818819206792,1301,24,21.855497417641494,33.58694001560832
2.825688338878649,1.5558032646759514,1301,24,21.855497417641494,33.58694001560832
2.841242404752883,1.5557877103006195,1301,24,21.855497417641494,33.58694001560832
2.856796315122881,1.5557721560807949,1301,24,21.855497417641494,33.58694001560832
2.8723500699902083,1.555756602016476,1301,24,21.855497417641494,33.58694001560832
2.88790366935643,1.5557410481076615,1301,24,21.855497417641494,33.58694001560832
2.90345711322311,1.5557254943543495,1301,24,21.855497417641494,33.58694001560832
2.919010401591812,1.5557099407565387,1301,24,21.855497417641494,33.58694001560832
2.934563534464097,1.5556943873142275,1301,24,21.855497417641494,33.58694001560832
2.950116511841528,1.5556788340274141,1301,24,21.855497417641494,33.58694001560832
2.965669333725666,1.555663280896097,1301,24,21.855497417641494,33.58694001560832
2.9812220001180716,1.555647727920275,1301,24,21.855497417641494,33.58694001560832
2.996774511020305,1.5556321750999462,1301,24,21.855497417641494,33.58694001560832
3.0123268664339267,1.5556166224351091,1301,24,21.855497417641494,33.58694001560832
3.0278790663604953,1.555601069925762,1301,24,21.855497417641494,33.58694001560832
3.043431110801571,1.5555855175719038,1301,24,21.855497417641494,33.58694001560832
3.058982999758711,1.5555699653735324,1301,24,21.855497417641494,33.58694001560832
3.074534733233474,1.5555544133306467,1301,24,21.855497417641494,33.58694001560832
3.0900863112274184,1.5555388614432446,1301,24,21.855497417641494,33.58694001560832
3.1056377337421015,1.555523309711325,1301,24,21.855497417641494,33.58694001560832
3.1211890007790806,1.5555077581348864,1301,24,21.855497417641494,33.58694001560832
3.136740112339914,1.555492206713927,1301,24,21.855497417641494,33.58694001560832
3.1522910684261576,1.555476655448445,1301,24,21.855497417641494,33.58694001560832
3.167841869039369,1.5554611043384394,1301,24,21.855497417641494,33.58694001560832
3.1833925141811035,1.5554455533839082,1301,24,21.855497417641494,33.58694001560832
3.1989430038529183,1.5554300025848502,1301,24,21.855497417641494,33.58694001560832
3.2144933380563696,1.5554144519412634,1301,24,21.855497417641494,33.58694001560832
3.230043516793013,1.5553989014531469,1301,24,21.855497417641494,33.58694001560832
3.2455935400644043,1.5553833511204984,1301,24,21.855497417641494,33.58694001560832
3.2611434078721,1.5553678009433167,1301,24,21.855497417641494,33.58694001560832
3.2766931202176557,1.5553522509216005,1301,24,21.855497417641494,33.58694001560832
3.292242677102626,1.5553367010553478,1301,24,21.855497417641494,33.58694001560832
3.3077920785285677,1.5553211513445573,1301,24,21.855497417641494,33.58694001560832
3.323341324497035,1.5553056017892273,1301,24,21.855497417641494,33.58694001560832
3.3388904150095833,1.5552900523893562,1301,24,21.855497417641494,33.58694001560832
3.3544393500677674,1.5552745031449426,1301,24,21.855497417641494,33.58694001560832
3.369988129673144,1.5552589540559851,1301,24,21.855497417641494,33.58694001560832
3.3855367538272647,1.555243405122482,1301,24,21.855497417641494,33.58694001560832
3.4010852225316865,1.5552278563444313,1301,24,21.855497417641494,33.58694001560832
3.416633535787965,1.555212307721832,1301,24,21.855497417641494,33.58694001560832
3.4321816935976543,1.5551967592546827,1301,24,21.855497417641494,33.58694001560832
3.4477296959623076,1.5551812109429812,1301,24,21.855497417641494,33.58694001560832
3.4632775428834814,1.5551656627867263,1301,24,21.855497417641494,33.58694001560832
3.4788252343627293,1.5551501147859166,1301,24,21.855497417641494,33.58694001560832
3.4943727704016068,1.55513456694055,1301,24,21.855497417641494,33.58694001560832
3.5099201510016664,1.5551190192506257,1301,24,21.855497417641494,33.58694001560832
3.525467376164464,1.5551034717161416,1301,24,21.855497417641494,33.58694001560832
3.541014445891553,1.5550879243370963,1301,24,21.855497417641494,33.58694001560832
3.556561360184489,1.5550723771134882,1301,24,21.855497417641494,33.58694001560832
3.5721081190448256,1.555056830045316,1301,24,21.855497417641494,33.58694001560832
3.587654722474117,1.5550412831325777,1301,24,21.855497417641494,33.58694001560832
3.603201170473918,1.5550257363752722,1301,24,21.855497417641494,33.58694001560832
3.618747463045781,1.5550101897733974,1301,24,21.855497417641494,33.58694001560832
3.634293600191261,1.5549946433269524,1301,24,21.855497417641494,33.58694001560832
3.6498395819119125,1.5549790970359352,1301,24,21.855497417641494,33.58694001560832
3.66538540820929,1.5549635509003443,1301,24,21.855497417641494,33.58694001560832
3.680931079084947,1.5549480049201783,1301,24,21.855497417641494,33.58694001560832
3.6964765945404374,1.5549324590954356,1301,24,21.855497417641494,33.58694001560832
3.7120219545773145,1.5549169134261145,1301,24,21.855497417641494,33.58694001560832
