Vout,Iout,Irradiance,Temperature,MaxVoltage,MaxPower
0.008271100470187786,1.6542359999999998,1431,3,20.324089392956644,33.208432419750025
0.02481314847008738,1.6542359999999998,1431,3,20.324089392956644,33.208432419750025
0.041354860174300255,1.6542275634759296,1431,3,20.324089392956644,33.208432419750025
0.05789617550371338,1.6542110214279298,1431,3,20.324089392956644,33.208432419750025
0.07443707482343027,1.6541944797170691,1431,3,20.324089392956644,33.208432419750025
0.09097757742116051,1.6541779384033939,1431,3,20.324089392956644,33.208432419750025
0.10751770110126385,1.6541613975057283,1431,3,20.324089392956644,33.208432419750025
0.12405746229851511,1.6541448570047848,1431,3,20.324089392956644,33.208432419750025
0.14059687618329894,1.6541283168827587,1431,3,20.324089392956644,33.208432419750025
0.1571359567588938,1.6541117771232157,1431,3,20.324089392956644,33.208432419750025
0.17367471695127135,1.6540952377109848,1431,3,20.324089392956644,33.208432419750025
0.19021316869198554,1.6540786986320632,1431,3,20.324089392956644,33.208432419750025
0.20675132299468513,1.6540621598735248,1431,3,20.324089392956644,33.208432419750025
0.2232891900257387,1.654045621423438,1431,3,20.324089392956644,33.208432419750025
0.23982677916942552,1.6540290832707891,1431,3,20.324089392956644,33.208432419750025
0.2563640990881107,1.654012545405412,1431,3,20.324089392956644,33.208432419750025
0.2729011577777908,1.653996007817922,1431,3,20.324089392956644,33.208432419750025
0.2894379626193648,1.653979470499657,1431,3,20.324089392956644,33.208432419750025
0.30597452042596096,1.6539629334426214,1431,3,20.324089392956644,33.208432419750025
0.3225108374866219,1.6539463966394334,1431,3,20.324089392956644,33.208432419750025
0.33904691960662864,1.6539298600832806,1431,3,20.324089392956644,33.208432419750025
0.3555827721447217,1.6539133237678736,1431,3,20.324089392956644,33.208432419750025
0.3721184000474591,1.653896787687407,1431,3,20.324089392956644,33.208432419750025
0.38865380788092985,1.6538802518365228,1431,3,20.324089392956644,33.208432419750025
0.4051889998600283,1.6538637162102736,1431,3,20.324089392956644,33.208432419750025
0.4217239798754751,1.6538471808040938,1431,3,20.324089392956644,33.208432419750025
0.4382587515187599,1.6538306456137681,1431,3,20.324089392956644,33.208432419750025
0.4547933181051648,1.6538141106354063,1431,3,20.324089392956644,33.208432419750025
0.471327682695016,1.6537975758654164,1431,3,20.324089392956644,33.208432419750025
0.4878618481133004,1.6537810413004836,1431,3,20.324089392956644,33.208432419750025
0.5043958169677731,1.6537645069375473,1431,3,20.324089392956644,33.208432419750025
0.520929591665672,1.6537479727737825,1431,3,20.324089392956644,33.208432419750025
0.5374631744291447,1.6537314388065814,1431,3,20.324089392956644,33.208432419750025
0.5539965673094912,1.653714905033537,1431,3,20.324089392956644,33.208432419750025
0.5705297722003079,1.6536983714524267,1431,3,20.324089392956644,33.208432419750025
0.5870627908496221,1.6536818380611997,1431,3,20.324089392956644,33.208432419750025
0.6035956248710925,1.6536653048579624,1431,3,20.324089392956644,33.208432419750025
0.6201282757543474,1.6536487718409665,1431,3,20.324089392956644,33.208432419750025
0.6366607448745276,1.6536322390085982,1431,3,20.324089392956644,33.208432419750025
0.6531930335010959,1.6536157063593684,1431,3,20.324089392956644,33.208432419750025
0.6697251428059678,1.6535991738919014,1431,3,20.324089392956644,33.208432419750025
0.6862570738710164,1.6535826416049282,1431,3,20.324089392956644,33.208432419750025
0.7027888276950015,1.6535661094972764,1431,3,20.324089392956644,33.208432419750025
0.7193204051999635,1.6535495775678646,1431,3,20.324089392956644,33.208432419750025
0.7358518072371271,1.6535330458156938,1431,3,20.324089392956644,33.208432419750025
0.7523830345923489,1.653516514239842,1431,3,20.324089392956644,33.208432419750025
0.7689140879911479,1.653499982839458,1431,3,20.324089392956644,33.208432419750025
0.7854449681033483,1.653483451613756,1431,3,20.324089392956644,33.208432419750025
0.801975675547363,1.6534669205620103,1431,3,20.324089392956644,33.208432419750025
0.818506210894151,1.6534503896835513,1431,3,20.324089392956644,33.208432419750025
0.8350365746708676,1.6534338589777604,1431,3,20.324089392956644,33.208432419750025
0.8515667673642355,1.6534173284440667,1431,3,20.324089392956644,33.208432419750025
0.8680967894236548,1.653400798081943,1431,3,20.324089392956644,33.208432419750025
0.8846266412640753,1.6533842678909028,1431,3,20.324089392956644,33.208432419750025
0.9011563232686473,1.6533677378704963,1431,3,20.324089392956644,33.208432419750025
0.9176858357911676,1.653351208020309,1431,3,20.324089392956644,33.208432419750025
0.9342151791583391,1.6533346783399574,1431,3,20.324089392956644,33.208432419750025
0.9507443536718541,1.6533181488290878,1431,3,20.324089392956644,33.208432419750025
0.9672733596103193,1.6533016194873738,1431,3,20.324089392956644,33.208432419750025
0.9838021972310329,1.653285090314513,1431,3,20.324089392956644,33.208432419750025
1.0003308667716222,1.6532685613102276,1431,3,20.324089392956644,33.208432419750025
1.0168593684515588,1.6532520324742597,1431,3,20.324089392956644,33.208432419750025
1.0333877024735547,1.653235503806372,1431,3,20.324089392956644,33.208432419750025
1.0499158690248527,1.653218975306345,1431,3,20.324089392956644,33.208432419750025
1.0664438682784143,1.653202446973976,1431,3,20.324089392956644,33.208432419750025
1.082971700394022,1.6531859188090774,1431,3,20.324089392956644,33.208432419750025
1.0994993655192906,1.6531693908114766,1431,3,20.324089392956644,33.208432419750025
1.1160268637906043,1.653152862981014,1431,3,20.324089392956644,33.208432419750025
1.1325541953339806,1.6531363353175414,1431,3,20.324089392956644,33.208432419750025
1.1490813602658685,1.6531198078209228,1431,3,20.324089392956644,33.208432419750025
1.1656083586938841,1.6531032804910324,1431,3,20.324089392956644,33.208432419750025
1.1821351907174913,1.6530867533277531,1431,3,20.324089392956644,33.208432419750025
1.198661856428626,1.6530702263309778,1431,3,20.324089392956644,33.208432419750025
1.2151883559122794,1.653053699500607,1431,3,20.324089392956644,33.208432419750025
1.2317146892470305,1.6530371728365485,1431,3,20.324089392956644,33.208432419750025
1.2482408565055383,1.6530206463387176,1431,3,20.324089392956644,33.208432419750025
1.2647668577549989,1.6530041200070356,1431,3,20.324089392956644,33.208432419750025
1.2812926930575652,1.6529875938414296,1431,3,20.324089392956644,33.208432419750025
1.2978183624707353,1.6529710678418328,1431,3,20.324089392956644,33.208432419750025
1.3143438660477103,1.6529545420081828,1431,3,20.324089392956644,33.208432419750025
1.3308692038377246,1.6529380163404224,1431,3,20.324089392956644,33.208432419750025
1.3473943758863518,1.652921490838498,1431,3,20.324089392956644,33.208432419750025
1.3639193822357862,1.6529049655023604,1431,3,20.324089392956644,33.208432419750025
1.3804442229251026,1.6528884403319644,1431,3,20.324089392956644,33.208432419750025
1.3969688979904962,1.6528719153272675,1431,3,20.324089392956644,33.208432419750025
1.413493407465505,1.6528553904882306,1431,3,20.324089392956644,33.208432419750025
1.4300177513812122,1.6528388658148179,1431,3,20.324089392956644,33.208432419750025
1.4465419297664384,1.6528223413069953,1431,3,20.324089392956644,33.208432419750025
1.463065942647912,1.652805816964732,1431,3,20.324089392956644,33.208432419750025
1.479589790050433,1.6527892927879992,1431,3,20.324089392956644,33.208432419750025
1.4961134719970195,1.6527727687767702,1431,3,20.324089392956644,33.208432419750025
1.512636988509047,1.65275624493102,1431,3,20.324089392956644,33.208432419750025
1.5291603396063718,1.652739721250726,1431,3,20.324089392956644,33.208432419750025
1.5456835253074503,1.6527231977358663,1431,3,20.324089392956644,33.208432419750025
1.5622065456294458,1.6527066743864214,1431,3,20.324089392956644,33.208432419750025
1.578729400588328,1.6526901512023726,1431,3,20.324089392956644,33.208432419750025
1.595252090198965,1.652673628183703,1431,3,20.324089392956644,33.208432419750025
1.6117746144752085,1.6526571053303964,1431,3,20.324089392956644,33.208432419750025
1.6282969734299706,1.652640582642438,1431,3,20.324089392956644,33.208432419750025
1.6448191670752972,1.652624060119814,1431,3,20.324089392956644,33.208432419750025
1.6613411954224344,1.6526075377625116,1431,3,20.324089392956644,33.208432419750025
1.6778630584818903,1.6525910155705186,1431,3,20.324089392956644,33.208432419750025
1.694384756263492,1.6525744935438236,1431,3,20.324089392956644,33.208432419750025
1.7109062887764361,1.6525579716824164,1431,3,20.324089392956644,33.208432419750025
1.72742765602934,1.652541449986287,1431,3,20.324089392956644,33.208432419750025
1.7439488580302849,1.6525249284554262,1431,3,20.324089392956644,33.208432419750025
1.7604698947868564,1.6525084070898255,1431,3,20.324089392956644,33.208432419750025
1.7769907663061841,1.6524918858894766,1431,3,20.324089392956644,33.208432419750025
1.7935114725949763,1.6524753648543722,1431,3,20.324089392956644,33.208432419750025
1.810032013659552,1.6524588439845052,1431,3,20.324089392956644,33.208432419750025
1.8265523895058708,1.6524423232798684,1431,3,20.324089392956644,33.208432419750025
1.8430726001395614,1.652425802740456,1431,3,20.324089392956644,33.208432419750025
1.8595926455659455,1.6524092823662617,1431,3,20.324089392956644,33.208432419750025
1.8761125257900633,1.65239276215728,1431,3,20.324089392956644,33.208432419750025
1.892632240816694,1.6523762421135055,1431,3,20.324089392956644,33.208432419750025
1.9091517906503754,1.6523597222349335,1431,3,20.324089392956644,33.208432419750025
1.9256711752954243,1.652343202521559,1431,3,20.324089392956644,33.208432419750025
1.9421903947559513,1.6523266829733771,1431,3,20.324089392956644,33.208432419750025
1.958709449035879,1.652310163590384,1431,3,20.324089392956644,33.208432419750025
1.9752283381389537,1.6522936443725755,1431,3,20.324089392956644,33.208432419750025
1.9917470620687618,1.6522771253199475,1431,3,20.324089392956644,33.208432419750025
2.00826562082874,1.6522606064324965,1431,3,20.324089392956644,33.208432419750025
2.0247840144221882,1.6522440877102185,1431,3,20.324089392956644,33.208432419750025
2.0413022428522796,1.6522275691531105,1431,3,20.324089392956644,33.208432419750025
2.0578203061220677,1.652211050761169,1431,3,20.324089392956644,33.208432419750025
2.0743382042345027,1.6521945325343905,1431,3,20.324089392956644,33.208432419750025
2.09085593719243,1.6521780144727727,1431,3,20.324089392956644,33.208432419750025
2.107373504998607,1.652161496576312,1431,3,20.324089392956644,33.208432419750025
2.1238909076557038,1.652144978845006,1431,3,20.324089392956644,33.208432419750025
2.140408145166312,1.6521284612788516,1431,3,20.324089392956644,33.208432419750025
2.156925217532952,1.6521119438778462,1431,3,20.324089392956644,33.208432419750025
2.1734421247580764,1.6520954266419874,1431,3,20.324089392956644,33.208432419750025
2.1899588668440764,1.6520789095712725,1431,3,20.324089392956644,33.208432419750025
2.206475443793286,1.652062392665699,1431,3,20.324089392956644,33.208432419750025
2.222991855607988,1.6520458759252648,1431,3,20.324089392956644,33.208432419750025
2.239508102290414,1.6520293593499673,1431,3,20.324089392956644,33.208432419750025
2.2560241838427526,1.6520128429398042,1431,3,20.324089392956644,33.208432419750025
2.2725401002671513,1.6519963266947735,1431,3,20.324089392956644,33.208432419750025
2.289055851565718,1.6519798106148729,1431,3,20.324089392956644,33.208432419750025
2.305571437740526,1.6519632947001,1431,3,20.324089392956644,33.208432419750025
2.322086858793618,1.651946778950453,1431,3,20.324089392956644,33.208432419750025
2.338602114727003,1.6519302633659299,1431,3,20.324089392956644,33.208432419750025
2.355117205542664,1.6519137479465282,1431,3,20.324089392956644,33.208432419750025
2.37163213124256,1.6518972326922465,1431,3,20.324089392956644,33.208432419750025
2.3881468918286246,1.6518807176030823,1431,3,20.324089392956644,33.208432419750025
2.4046614873027696,1.651864202679034,1431,3,20.324089392956644,33.208432419750025
2.4211759176668863,1.6518476879200994,1431,3,20.324089392956644,33.208432419750025
2.43769018292285,1.6518311733262767,1431,3,20.324089392956644,33.208432419750025
2.4542042830725155,1.6518146588975642,1431,3,20.324089392956644,33.208432419750025
2.470718218117723,1.6517981446339596,1431,3,20.324089392956644,33.208432419750025
2.4872319880603,1.6517816305354613,1431,3,20.324089392956644,33.208432419750025
2.503745592902057,1.6517651166020677,1431,3,20.324089392956644,33.208432419750025
2.520259032644795,1.6517486028337764,1431,3,20.324089392956644,33.208432419750025
2.5367723072903012,1.651732089230586,1431,3,20.324089392956644,33.208432419750025
2.553285416840355,1.6517155757924948,1431,3,20.324089392956644,33.208432419750025
2.569798361296723,1.6516990625195005,1431,3,20.324089392956644,33.208432419750025
2.5863111406611647,1.6516825494116019,1431,3,20.324089392956644,33.208432419750025
2.6028237549354305,1.651666036468797,1431,3,20.324089392956644,33.208432419750025
2.619336204121263,1.6516495236910838,1431,3,20.324089392956644,33.208432419750025
2.6358484882203985,1.6516330110784607,1431,3,20.324089392956644,33.208432419750025
2.652360607234565,1.651616498630926,1431,3,20.324089392956644,33.208432419750025
2.668872561165487,1.6515999863484783,1431,3,20.324089392956644,33.208432419750025
2.685384350014882,1.6515834742311153,1431,3,20.324089392956644,33.208432419750025
2.7018959737844606,1.6515669622788356,1431,3,20.324089392956644,33.208432419750025
2.7184074324759315,1.6515504504916376,1431,3,20.324089392956644,33.208432419750025
2.734918726090998,1.6515339388695192,1431,3,20.324089392956644,33.208432419750025
2.7514298546313585,1.6515174274124789,1431,3,20.324089392956644,33.208432419750025
2.767940818098708,1.651500916120515,1431,3,20.324089392956644,33.208432419750025
2.78445161649474,1.6514844049936257,1431,3,20.324089392956644,33.208432419750025
2.800962249821141,1.6514678940318095,1431,3,20.324089392956644,33.208432419750025
2.817472718079596,1.6514513832350646,1431,3,20.324089392956644,33.208432419750025
2.8339830212717922,1.6514348726033892,1431,3,20.324089392956644,33.208432419750025
2.850493159399406,1.651418362136782,1431,3,20.324089392956644,33.208432419750025
2.8670031324641165,1.6514018518352407,1431,3,20.324089392956644,33.208432419750025
2.8835129404675994,1.6513853416987643,1431,3,20.324089392956644,33.208432419750025
2.9000225834115296,1.6513688317273505,1431,3,20.324089392956644,33.208432419750025
2.9165320612975782,1.651352321920998,1431,3,20.324089392956644,33.208432419750025
2.933041374127415,1.651335812279705,1431,3,20.324089392956644,33.208432419750025
2.9495505219027103,1.65131930280347,1431,3,20.324089392956644,33.208432419750025
2.96605950462513,1.6513027934922913,1431,3,20.324089392956644,33.208432419750025
2.9825683222963413,1.6512862843461669,1431,3,20.324089392956644,33.208432419750025
2.9990769749180095,1.6512697753650953,1431,3,20.324089392956644,33.208432419750025
3.0155854624917957,1.6512532665490751,1431,3,20.324089392956644,33.208432419750025
3.0320937850193648,1.6512367578981042,1431,3,20.324089392956644,33.208432419750025
3.048601942502377,1.6512202494121813,1431,3,20.324089392956644,33.208432419750025
3.0651099349424937,1.6512037410913047,1431,3,20.324089392956644,33.208432419750025
3.0816177623413745,1.6511872329354724,1431,3,20.324089392956644,33.208432419750025
3.098125424700679,1.6511707249446832,1431,3,20.324089392956644,33.208432419750025
3.1146329220220643,1.651154217118935,1431,3,20.324089392956644,33.208432419750025
3.1311402543071902,1.6511377094582267,1431,3,20.324089392956644,33.208432419750025
3.147647421557712,1.651121201962556,1431,3,20.324089392956644,33.208432419750025
3.1641544237752868,1.6511046946319217,1431,3,20.324089392956644,33.208432419750025
3.1806612609615703,1.651088187466322,1431,3,20.324089392956644,33.208432419750025
3.1971679331182186,1.651071680465755,1431,3,20.324089392956644,33.208432419750025
3.2136744402468866,1.6510551736302195,1431,3,20.324089392956644,33.208432419750025
3.230180782349229,1.6510386669597135,1431,3,20.324089392956644,33.208432419750025
3.2466869594268997,1.6510221604542357,1431,3,20.324089392956644,33.208432419750025
3.2631929714815526,1.6510056541137839,1431,3,20.324089392956644,33.208432419750025
3.2796988185148424,1.650989147938357,1431,3,20.324089392956644,33.208432419750025
3.2962045005284204,1.650972641927953,1431,3,20.324089392956644,33.208432419750025
3.312710017523941,1.6509561360825702,1431,3,20.324089392956644,33.208432419750025
3.329215369503057,1.6509396304022073,1431,3,20.324089392956644,33.208432419750025
3.345720556467421,1.6509231248868623,1431,3,20.324089392956644,33.208432419750025
3.362225578418685,1.6509066195365336,1431,3,20.324089392956644,33.208432419750025
3.3787304353585,1.65089011435122,1431,3,20.324089392956644,33.208432419750025
3.39523512728852,1.650873609330919,1431,3,20.324089392956644,33.208432419750025
3.4117396542103946,1.65085710447563,1431,3,20.324089392956644,33.208432419750025
3.4282440161257766,1.6508405997853504,1431,3,20.324089392956644,33.208432419750025
3.4447482130363167,1.650824095260079,1431,3,20.324089392956644,33.208432419750025
3.4612522449436667,1.650807590899814,1431,3,20.324089392956644,33.208432419750025
3.4777561118494775,1.6507910867045539,1431,3,20.324089392956644,33.208432419750025
3.4942598137554,1.650774582674297,1431,3,20.324089392956644,33.208432419750025
3.510763350663084,1.6507580788090417,1431,3,20.324089392956644,33.208432419750025
3.527266722574182,1.6507415751087862,1431,3,20.324089392956644,33.208432419750025
3.543769929490344,1.6507250715735289,1431,3,20.324089392956644,33.208432419750025
3.5602729714132195,1.650708568203268,1431,3,20.324089392956644,33.208432419750025
3.5767758483444605,1.6506920649980024,1431,3,20.324089392956644,33.208432419750025
3.5932785602857167,1.6506755619577298,1431,3,20.324089392956644,33.208432419750025
3.6097811072386374,1.6506590590824488,1431,3,20.324089392956644,33.208432419750025
3.6262834892048748,1.6506425563721578,1431,3,20.324089392956644,33.208432419750025
3.642785706186077,1.6506260538268553,1431,3,20.324089392956644,33.208432419750025
3.6592877581838956,1.6506095514465393,1431,3,20.324089392956644,33.208432419750025
3.675789645199979,1.6505930492312084,1431,3,20.324089392956644,33.208432419750025
3.6922913672359794,1.6505765471808609,1431,3,20.324089392956644,33.208432419750025
3.708792924293545,1.650560045295495,1431,3,20.324089392956644,33.208432419750025
3.7252943163743257,1.650543543575109,1431,3,20.324089392956644,33.208432419750025
3.7417955434799715,1.6505270420197018,1431,3,20.324089392956644,33.208432419750025
3.758296605612133,1.650510540629271,1431,3,20.324089392956644,33.208432419750025
3.7747975027724587,1.6504940394038157,1431,3,20.324089392956644,33.208432419750025
3.7912982349625985,1.6504775383433337,1431,3,20.324089392956644,33.208432419750025
3.807798802184202,1.6504610374478235,1431,3,20.324089392956644,33.208432419750025
3.824299204438919,1.6504445367172833,1431,3,20.324089392956644,33.208432419750025
3.840799441728399,1.6504280361517119,1431,3,20.324089392956644,33.208432419750025
3.8572995140542914,1.6504115357511073,1431,3,20.324089392956644,33.208432419750025
3.873799421418246,1.6503950355154677,1431,3,20.324089392956644,33.208432419750025
3.8902991638219118,1.650378535444792,1431,3,20.324089392956644,33.208432419750025
3.9067987412669387,1.650362035539078,1431,3,20.324089392956644,33.208432419750025
3.923298153754975,1.6503455357983243,1431,3,20.324089392956644,33.208432419750025
3.93979740128767,1.6503290362225294,1431,3,20.324089392956644,33.208432419750025
