Vout,Iout,Irradiance,Temperature,MaxVoltage,MaxPower
0.009537148296650994,1.9074479999999998,1691,-11,19.286638998593283,36.41701106439173
0.02861126853905442,1.9074479999999998,1691,-11,19.286638998593283,36.41701106439173
0.04768500100937756,1.9074382721069032,1691,-11,19.286638998593283,36.41701106439173
0.06675827643226667,1.9074191979866608,1691,-11,19.286638998593283,36.41701106439173
0.08583107216733432,1.9074001242551633,1691,-11,19.286638998593283,36.41701106439173
0.10490341045463755,1.9073810509816478,1691,-11,19.286638998593283,36.41701106439173
0.123975311823829,1.90736197818782,1691,-11,19.286638998593283,36.41701106439173
0.1430467952253355,1.9073429058514402,1691,-11,19.286638998593283,36.41701106439173
0.16211787815165501,1.9073238339519782,1691,-11,19.286638998593283,36.41701106439173
0.18118857674953187,1.907304762470484,1691,-11,19.286638998593283,36.41701106439173
0.200258905923501,1.9072856913894647,1691,-11,19.286638998593283,36.41701106439173
0.21932887943146595,1.907266620692774,1691,-11,19.286638998593283,36.41701106439173
0.23839850997292183,1.907247550365507,1691,-11,19.286638998593283,36.41701106439173
0.2574678092703915,1.9072284803939064,1691,-11,19.286638998593283,36.41701106439173
0.2765367881445951,1.907209410765272,1691,-11,19.286638998593283,36.41701106439173
0.2956054565838361,1.9071903414678815,1691,-11,19.286638998593283,36.41701106439173
0.31467382380804887,1.9071712724909142,1691,-11,19.286638998593283,36.41701106439173
0.3337418983279183,1.9071522038243818,1691,-11,19.286638998593283,36.41701106439173
0.3528096879994502,1.9071331354590646,1691,-11,19.286638998593283,36.41701106439173
0.3718772000743437,1.9071140673864515,1691,-11,19.286638998593283,36.41701106439173
0.39094444124648764,1.9070949995986868,1691,-11,19.286638998593283,36.41701106439173
0.4100114176948787,1.9070759320885187,1691,-11,19.286638998593283,36.41701106439173
0.4290781351232388,1.9070568648492534,1691,-11,19.286638998593283,36.41701106439173
0.44814459879658286,1.9070377978747117,1691,-11,19.286638998593283,36.41701106439173
0.46721081357497435,1.9070187311591902,1691,-11,19.286638998593283,36.41701106439173
0.48627678394468205,1.9069996646974234,1691,-11,19.286638998593283,36.41701106439173
0.5053425140469409,1.9069805984845518,1691,-11,19.286638998593283,36.41701106439173
0.5244080077044995,1.9069615325160887,1691,-11,19.286638998593283,36.41701106439173
0.5434732684461241,1.906942466787893,1691,-11,19.286638998593283,36.41701106439173
0.5625382995292195,1.906923401296142,1691,-11,19.286638998593283,36.41701106439173
0.5816031039607071,1.906904336037307,1691,-11,19.286638998593283,36.41701106439173
0.6006676845162977,1.9068852710081305,1691,-11,19.286638998593283,36.41701106439173
0.6197320437582804,1.9068662062056054,1691,-11,19.286638998593283,36.41701106439173
0.6387961840519454,1.9068471416269563,1691,-11,19.286638998593283,36.41701106439173
0.6578601075807395,1.906828077269621,1691,-11,19.286638998593283,36.41701106439173
0.676923816360259,1.9068090131312336,1691,-11,19.286638998593283,36.41701106439173
0.6959873122511633,1.9067899492096114,1691,-11,19.286638998593283,36.41701106439173
0.7150505969710959,1.9067708855027383,1691,-11,19.286638998593283,36.41701106439173
0.7341136721056895,1.9067518220087538,1691,-11,19.286638998593283,36.41701106439173
0.753176539118722,1.9067327587259402,1691,-11,19.286638998593283,36.41701106439173
0.7722391993614921,1.906713695652712,1691,-11,19.286638998593283,36.41701106439173
0.7913016540814747,1.9066946327876053,1691,-11,19.286638998593283,36.41701106439173
0.8103639044303079,1.9066755701292688,1691,-11,19.286638998593283,36.41701106439173
0.8294259514711685,1.906656507676455,1691,-11,19.286638998593283,36.41701106439173
0.8484877961855765,1.9066374454280124,1691,-11,19.286638998593283,36.41701106439173
0.867549439479679,1.9066183833828778,1691,-11,19.286638998593283,36.41701106439173
0.8866108821900497,1.9065993215400696,1691,-11,19.286638998593283,36.41701106439173
0.9056721250890413,1.9065802598986819,1691,-11,19.286638998593283,36.41701106439173
0.9247331688897269,1.9065611984578776,1691,-11,19.286638998593283,36.41701106439173
0.9437940142504614,1.9065421372168847,1691,-11,19.286638998593283,36.41701106439173
0.9628546617790913,1.9065230761749903,1691,-11,19.286638998593283,36.41701106439173
0.9819151120368409,1.9065040153315356,1691,-11,19.286638998593283,36.41701106439173
1.0009753655419003,1.906484954685913,1691,-11,19.286638998593283,36.41701106439173
1.0200354227727346,1.9064658942375614,1691,-11,19.286638998593283,36.41701106439173
1.0390952841711427,1.9064468339859624,1691,-11,19.286638998593283,36.41701106439173
1.0581549501450767,1.9064277739306377,1691,-11,19.286638998593283,36.41701106439173
1.0772144210712469,1.9064087140711452,1691,-11,19.286638998593283,36.41701106439173
1.096273697297526,1.9063896544070773,1691,-11,19.286638998593283,36.41701106439173
1.115332779145167,1.9063705949380572,1691,-11,19.286638998593283,36.41701106439173
1.1343916669108511,1.9063515356637368,1691,-11,19.286638998593283,36.41701106439173
1.1534503608685802,1.9063324765837952,1691,-11,19.286638998593283,36.41701106439173
1.1725088612714198,1.9063134176979355,1691,-11,19.286638998593283,36.41701106439173
1.191567168353111,1.9062943590058836,1691,-11,19.286638998593283,36.41701106439173
1.2106252823295567,1.9062753005073867,1691,-11,19.286638998593283,36.41701106439173
1.2296832034001945,1.906256242202211,1691,-11,19.286638998593283,36.41701106439173
1.2487409317492646,1.9062371840901402,1691,-11,19.286638998593283,36.41701106439173
1.267798467546976,1.9062181261709754,1691,-11,19.286638998593283,36.41701106439173
1.28685581095059,1.9061990684445322,1691,-11,19.286638998593283,36.41701106439173
1.305912962105413,1.9061800109106402,1691,-11,19.286638998593283,36.41701106439173
1.324969921145719,1.9061609535691424,1691,-11,19.286638998593283,36.41701106439173
1.3440266881955967,1.9061418964198933,1691,-11,19.286638998593283,36.41701106439173
1.3630832633697343,1.9061228394627587,1691,-11,19.286638998593283,36.41701106439173
1.3821396467741416,1.9061037826976146,1691,-11,19.286638998593283,36.41701106439173
1.4011958385068182,1.906084726124346,1691,-11,19.286638998593283,36.41701106439173
1.4202518386583713,1.9060656697428473,1691,-11,19.286638998593283,36.41701106439173
1.4393076473125812,1.9060466135530203,1691,-11,19.286638998593283,36.41701106439173
1.4583632645469307,1.9060275575547745,1691,-11,19.286638998593283,36.41701106439173
1.4774186904330855,1.906008501748026,1691,-11,19.286638998593283,36.41701106439173
1.496473925037345,1.9059894461326972,1691,-11,19.286638998593283,36.41701106439173
1.5155289684210542,1.9059703907087167,1691,-11,19.286638998593283,36.41701106439173
1.5345838206409836,1.9059513354760178,1691,-11,19.286638998593283,36.41701106439173
1.5536384817496824,1.9059322804345398,1691,-11,19.286638998593283,36.41701106439173
1.5726929517958042,1.9059132255842253,1691,-11,19.286638998593283,36.41701106439173
1.5917472308244043,1.9058941709250221,1691,-11,19.286638998593283,36.41701106439173
1.6108013188772183,1.9058751164568815,1691,-11,19.286638998593283,36.41701106439173
1.629855215992918,1.9058560621797582,1691,-11,19.286638998593283,36.41701106439173
1.6489089222073445,1.905837008093611,1691,-11,19.286638998593283,36.41701106439173
1.6679624375537294,1.9058179541984006,1691,-11,19.286638998593283,36.41701106439173
1.687015762062893,1.9057989004940916,1691,-11,19.286638998593283,36.41701106439173
1.7060688957634313,1.9057798469806506,1691,-11,19.286638998593283,36.41701106439173
1.7251218386818863,1.905760793658047,1691,-11,19.286638998593283,36.41701106439173
1.7441745908429038,1.9057417405262518,1691,-11,19.286638998593283,36.41701106439173
1.7632271522693808,1.9057226875852387,1691,-11,19.286638998593283,36.41701106439173
1.782279522982599,1.905703634834983,1691,-11,19.286638998593283,36.41701106439173
1.801331703002348,1.9056845822754618,1691,-11,19.286638998593283,36.41701106439173
1.8203836923470424,1.9056655299066538,1691,-11,19.286638998593283,36.41701106439173
1.8394354910338266,1.9056464777285393,1691,-11,19.286638998593283,36.41701106439173
1.858487099078671,1.9056274257410997,1691,-11,19.286638998593283,36.41701106439173
1.8775385164964655,1.9056083739443181,1691,-11,19.286638998593283,36.41701106439173
1.8965897433010992,1.9055893223381786,1691,-11,19.286638998593283,36.41701106439173
1.9156407795055403,1.9055702709226658,1691,-11,19.286638998593283,36.41701106439173
1.9346916251219053,1.9055512196977664,1691,-11,19.286638998593283,36.41701106439173
1.9537422801615247,1.9055321686634672,1691,-11,19.286638998593283,36.41701106439173
1.9727927446350042,1.905513117819756,1691,-11,19.286638998593283,36.41701106439173
1.9918430185522786,1.9054940671666214,1691,-11,19.286638998593283,36.41701106439173
2.0108931019226675,1.905475016704053,1691,-11,19.286638998593283,36.41701106439173
2.029942994754917,1.9054559664320407,1691,-11,19.286638998593283,36.41701106439173
2.048992697057248,1.9054369163505755,1691,-11,19.286638998593283,36.41701106439173
2.0680422088373955,1.9054178664596482,1691,-11,19.286638998593283,36.41701106439173
2.087091530102646,1.9053988167592508,1691,-11,19.286638998593283,36.41701106439173
2.106140660859872,1.9053797672493757,1691,-11,19.286638998593283,36.41701106439173
2.1251896011155615,1.9053607179300154,1691,-11,19.286638998593283,36.41701106439173
2.1442383508758533,1.9053416688011633,1691,-11,19.286638998593283,36.41701106439173
2.1632869101465575,1.9053226198628124,1691,-11,19.286638998593283,36.41701106439173
2.1823352789331856,1.905303571114957,1691,-11,19.286638998593283,36.41701106439173
2.2013834572409703,1.9052845225575912,1691,-11,19.286638998593283,36.41701106439173
2.2204314450748885,1.9052654741907096,1691,-11,19.286638998593283,36.41701106439173
2.23947924243968,1.9052464260143065,1691,-11,19.286638998593283,36.41701106439173
2.2585268493398676,1.9052273780283775,1691,-11,19.286638998593283,36.41701106439173
2.277574265779773,1.9052083302329175,1691,-11,19.286638998593283,36.41701106439173
2.296621491763529,1.9051892826279222,1691,-11,19.286638998593283,36.41701106439173
2.315668527295099,1.905170235213387,1691,-11,19.286638998593283,36.41701106439173
2.334715372378289,1.905151187989308,1691,-11,19.286638998593283,36.41701106439173
2.353762027016756,1.9051321409556812,1691,-11,19.286638998593283,36.41701106439173
2.3728084912140246,1.9051130941125027,1691,-11,19.286638998593283,36.41701106439173
2.391854764973492,1.905094047459769,1691,-11,19.286638998593283,36.41701106439173
2.4109008482984424,1.9050750009974764,1691,-11,19.286638998593283,36.41701106439173
2.429946741192054,1.9050559547256216,1691,-11,19.286638998593283,36.41701106439173
2.4489924436574064,1.9050369086442012,1691,-11,19.286638998593283,36.41701106439173
2.4680379556974867,1.9050178627532124,1691,-11,19.286638998593283,36.41701106439173
2.487083277315202,1.9049988170526515,1691,-11,19.286638998593283,36.41701106439173
2.5061284085133804,1.904979771542516,1691,-11,19.286638998593283,36.41701106439173
2.525173349294778,1.904960726222803,1691,-11,19.286638998593283,36.41701106439173
2.5442180996620873,1.9049416810935094,1691,-11,19.286638998593283,36.41701106439173
2.5632626596179393,1.9049226361546323,1691,-11,19.286638998593283,36.41701106439173
2.5823070291649093,1.9049035914061696,1691,-11,19.286638998593283,36.41701106439173
2.6013512083055184,1.9048845468481184,1691,-11,19.286638998593283,36.41701106439173
2.6203951970422437,1.9048655024804757,1691,-11,19.286638998593283,36.41701106439173
2.639438995377517,1.9048464583032396,1691,-11,19.286638998593283,36.41701106439173
2.658482603313728,1.9048274143164072,1691,-11,19.286638998593283,36.41701106439173
2.6775260208532305,1.9048083705199765,1691,-11,19.286638998593283,36.41701106439173
2.6965692479983434,1.9047893269139446,1691,-11,19.286638998593283,36.41701106439173
2.7156122847513533,1.9047702834983096,1691,-11,19.286638998593283,36.41701106439173
2.734655131114517,1.9047512402730689,1691,-11,19.286638998593283,36.41701106439173
2.753697787090065,1.90473219723822,1691,-11,19.286638998593283,36.41701106439173
2.7727402526802023,1.9047131543937612,1691,-11,19.286638998593283,36.41701106439173
2.791782527887111,1.90469411173969,1691,-11,19.286638998593283,36.41701106439173
2.81082461271295,1.9046750692760042,1691,-11,19.286638998593283,36.41701106439173
2.82986650715986,1.9046560270027015,1691,-11,19.286638998593283,36.41701106439173
2.848908211229963,1.90463698491978,1691,-11,19.286638998593283,36.41701106439173
2.8679497249253654,1.9046179430272372,1691,-11,19.286638998593283,36.41701106439173
2.886991048248156,1.9045989013250713,1691,-11,19.286638998593283,36.41701106439173
2.9060321812004104,1.9045798598132802,1691,-11,19.286638998593283,36.41701106439173
2.9250731237841907,1.9045608184918614,1691,-11,19.286638998593283,36.41701106439173
2.944113876001547,1.9045417773608133,1691,-11,19.286638998593283,36.41701106439173
2.963154437854518,1.9045227364201338,1691,-11,19.286638998593283,36.41701106439173
2.98219480934513,1.9045036956698205,1691,-11,19.286638998593283,36.41701106439173
3.0012349904754037,1.9044846551098717,1691,-11,19.286638998593283,36.41701106439173
3.020274981247348,1.9044656147402852,1691,-11,19.286638998593283,36.41701106439173
3.0393147816629646,1.9044465745610588,1691,-11,19.286638998593283,36.41701106439173
3.0583543917242473,1.904427534572191,1691,-11,19.286638998593283,36.41701106439173
3.077393811433182,1.9044084947736795,1691,-11,19.286638998593283,36.41701106439173
3.0964330407917493,1.904389455165522,1691,-11,19.286638998593283,36.41701106439173
3.1154720798019246,1.9043704157477173,1691,-11,19.286638998593283,36.41701106439173
3.134510928465675,1.9043513765202627,1691,-11,19.286638998593283,36.41701106439173
3.1535495867849663,1.9043323374831562,1691,-11,19.286638998593283,36.41701106439173
3.1725880547617558,1.9043132986363964,1691,-11,19.286638998593283,36.41701106439173
3.1916263323980005,1.904294259979981,1691,-11,19.286638998593283,36.41701106439173
3.2106644196956493,1.9042752215139083,1691,-11,19.286638998593283,36.41701106439173
3.229702316656649,1.904256183238176,1691,-11,19.286638998593283,36.41701106439173
3.248740023282944,1.904237145152782,1691,-11,19.286638998593283,36.41701106439173
3.2677775395764757,1.904218107257725,1691,-11,19.286638998593283,36.41701106439173
3.2868148655391805,1.9041990695530024,1691,-11,19.286638998593283,36.41701106439173
3.305852001172993,1.9041800320386126,1691,-11,19.286638998593283,36.41701106439173
3.3248889464798466,1.9041609947145537,1691,-11,19.286638998593283,36.41701106439173
3.343925701461671,1.9041419575808236,1691,-11,19.286638998593283,36.41701106439173
3.362962266120394,1.9041229206374204,1691,-11,19.286638998593283,36.41701106439173
3.3819986404579416,1.9041038838843425,1691,-11,19.286638998593283,36.41701106439173
3.401034824476239,1.9040848473215874,1691,-11,19.286638998593283,36.41701106439173
3.4200708181772077,1.9040658109491535,1691,-11,19.286638998593283,36.41701106439173
3.439106621562768,1.9040467747670389,1691,-11,19.286638998593283,36.41701106439173
3.458142234634841,1.9040277387752416,1691,-11,19.286638998593283,36.41701106439173
3.477177657395344,1.9040087029737596,1691,-11,19.286638998593283,36.41701106439173
3.496212889846195,1.9039896673625911,1691,-11,19.286638998593283,36.41701106439173
3.5152479319893093,1.9039706319417342,1691,-11,19.286638998593283,36.41701106439173
3.534282783826602,1.9039515967111869,1691,-11,19.286638998593283,36.41701106439173
3.553317445359988,1.9039325616709473,1691,-11,19.286638998593283,36.41701106439173
3.5723519165913777,1.9039135268210134,1691,-11,19.286638998593283,36.41701106439173
3.5913861975226857,1.9038944921613836,1691,-11,19.286638998593283,36.41701106439173
3.610420288155823,1.9038754576920558,1691,-11,19.286638998593283,36.41701106439173
3.6294541884926996,1.903856423413028,1691,-11,19.286638998593283,36.41701106439173
3.6484878985352265,1.9038373893242981,1691,-11,19.286638998593283,36.41701106439173
3.6675214182853115,1.9038183554258648,1691,-11,19.286638998593283,36.41701106439173
3.6865547477448657,1.9037993217177256,1691,-11,19.286638998593283,36.41701106439173
3.7055878869157963,1.9037802881998789,1691,-11,19.286638998593283,36.41701106439173
3.7246208358000112,1.9037612548723228,1691,-11,19.286638998593283,36.41701106439173
3.7436535943994187,1.9037422217350553,1691,-11,19.286638998593283,36.41701106439173
3.762686162715925,1.9037231887880743,1691,-11,19.286638998593283,36.41701106439173
3.781718540751437,1.9037041560313783,1691,-11,19.286638998593283,36.41701106439173
3.800750728507861,1.903685123464965,1691,-11,19.286638998593283,36.41701106439173
3.8197827259871047,1.9036660910888328,1691,-11,19.286638998593283,36.41701106439173
3.83881453319107,1.9036470589029797,1691,-11,19.286638998593283,36.41701106439173
3.857846150121666,1.9036280269074035,1691,-11,19.286638998593283,36.41701106439173
3.8768775767807973,1.903608995102103,1691,-11,19.286638998593283,36.41701106439173
3.8959088131703683,1.9035899634870754,1691,-11,19.286638998593283,36.41701106439173
3.914939859292282,1.9035709320623195,1691,-11,19.286638998593283,36.41701106439173
3.933970715148445,1.903551900827833,1691,-11,19.286638998593283,36.41701106439173
3.9530013807407607,1.9035328697836142,1691,-11,19.286638998593283,36.41701106439173
3.9720318560711347,1.9035138389296613,1691,-11,19.286638998593283,36.41701106439173
3.9910621411414695,1.9034948082659722,1691,-11,19.286638998593283,36.41701106439173
4.01009223595367,1.9034757777925448,1691,-11,19.286638998593283,36.41701106439173
4.029122140509638,1.9034567475093775,1691,-11,19.286638998593283,36.41701106439173
4.048151854811279,1.9034377174164683,1691,-11,19.286638998593283,36.41701106439173
4.067181378860495,1.9034186875138155,1691,-11,19.286638998593283,36.41701106439173
4.086210712659191,1.9033996578014167,1691,-11,19.286638998593283,36.41701106439173
4.105239856209268,1.9033806282792705,1691,-11,19.286638998593283,36.41701106439173
4.124268809512631,1.9033615989473749,1691,-11,19.286638998593283,36.41701106439173
4.14329757257118,1.9033425698057278,1691,-11,19.286638998593283,36.41701106439173
4.162326145386822,1.9033235408543272,1691,-11,19.286638998593283,36.41701106439173
4.1813545279614575,1.9033045120931718,1691,-11,19.286638998593283,36.41701106439173
4.2003827202969894,1.903285483522259,1691,-11,19.286638998593283,36.41701106439173
4.21941072239532,1.9032664551415872,1691,-11,19.286638998593283,36.41701106439173
4.2384385342583535,1.9032474269511546,1691,-11,19.286638998593283,36.41701106439173
4.257466155887989,1.903228398950959,1691,-11,19.286638998593283,36.41701106439173
4.276493587286133,1.9032093711409988,1691,-11,19.286638998593283,36.41701106439173
4.295520828454686,1.903190343521272,1691,-11,19.286638998593283,36.41701106439173
4.3145478793955485,1.9031713160917765,1691,-11,19.286638998593283,36.41701106439173
4.333574740110625,1.9031522888525108,1691,-11,19.286638998593283,36.41701106439173
4.352601410601818,1.9031332618034726,1691,-11,19.286638998593283,36.41701106439173
4.371627890871028,1.9031142349446604,1691,-11,19.286638998593283,36.41701106439173
4.3906541809201585,1.9030952082760717,1691,-11,19.286638998593283,36.41701106439173
4.409680280751112,1.9030761817977053,1691,-11,19.286638998593283,36.41701106439173
4.428706190365787,1.9030571555095588,1691,-11,19.286638998593283,36.41701106439173
4.44773190976609,1.9030381294116305,1691,-11,19.286638998593283,36.41701106439173
4.466757438953921,1.9030191035039186,1691,-11,19.286638998593283,36.41701106439173
4.485782777931181,1.9030000777864209,1691,-11,19.286638998593283,36.41701106439173
