Vout,Iout,Irradiance,Temperature,MaxVoltage,MaxPower
0.003945022067095509,0.7890119999999999,651,31,22.3598987347954,17.142604404626052
0.011834993254094688,0.7890119999999999,651,31,22.3598987347954,17.142604404626052
0.019724804039958625,0.7890079760767328,651,31,22.3598987347954,17.142604404626052
0.027614425769077626,0.7890000861055458,651,31,22.3598987347954,17.142604404626052
0.0355038490763013,0.7889921962951624,651,31,22.3598987347954,17.142604404626052
0.0433930831611842,0.7889843066742223,651,31,22.3598987347954,17.142604404626052
0.0512821365157755,0.788976417251704,651,31,22.3598987347954,17.142604404626052
0.0591710169788809,0.7889685280184081,651,31,22.3598987347954,17.142604404626052
0.0670597317862367,0.7889606389658425,651,31,22.3598987347954,17.142604404626052
0.07494828761691097,0.7889527500861683,651,31,22.3598987347954,17.142604404626052
0.08283669063613444,0.7889448613721498,651,31,22.3598987347954,17.142604404626052
0.09072494653483595,0.7889369728171081,651,31,22.3598987347954,17.142604404626052
0.09861306056613597,0.7889290844148776,651,31,22.3598987347954,17.142604404626052
0.10650103757903233,0.7889211961597679,651,31,22.3598987347954,17.142604404626052
0.11438888204949396,0.7889133080465254,651,31,22.3598987347954,17.142604404626052
0.12227659810916239,0.7889054200703013,651,31,22.3598987347954,17.142604404626052
0.13016418957184478,0.7888975322266196,651,31,22.3598987347954,17.142604404626052
0.13805165995796861,0.7888896445113488,651,31,22.3598987347954,17.142604404626052
0.1459390125171549,0.7888817569206749,651,31,22.3598987347954,17.142604404626052
0.15382625024905425,0.7888738694510775,651,31,22.3598987347954,17.142604404626052
0.16171337592258012,0.7888659820993071,651,31,22.3598987347954,17.142604404626052
0.16960039209366204,0.7888580948623639,651,31,22.3598987347954,17.142604404626052
0.17748730112163308,0.7888502077374792,651,31,22.3598987347954,17.142604404626052
0.185374105184356,0.7888423207220968,651,31,22.3598987347954,17.142604404626052
0.19326080629218603,0.7888344338138575,651,31,22.3598987347954,17.142604404626052
0.2011474063008593,0.7888265470105835,651,31,22.3598987347954,17.142604404626052
0.20903390692338925,0.7888186603102644,651,31,22.3598987347954,17.142604404626052
0.21692030974104795,0.7888107737110444,651,31,22.3598987347954,17.142604404626052
0.22480661621350265,0.7888028872112105,651,31,22.3598987347954,17.142604404626052
0.23269282768817215,0.7887950008091815,651,31,22.3598987347954,17.142604404626052
0.2405789454088633,0.7887871145034977,651,31,22.3598987347954,17.142604404626052
0.24846497052374322,0.7887792282928117,651,31,22.3598987347954,17.142604404626052
0.25635090409269773,0.7887713421758796,651,31,22.3598987347954,17.142604404626052
0.26423674709412437,0.7887634561515534,651,31,22.3598987347954,17.142604404626052
0.27212250043120145,0.7887555702187731,651,31,22.3598987347954,17.142604404626052
0.28000816493767616,0.7887476843765602,651,31,22.3598987347954,17.142604404626052
0.28789374138320656,0.7887397986240117,651,31,22.3598987347954,17.142604404626052
0.2957792304782925,0.7887319129602938,651,31,22.3598987347954,17.142604404626052
0.30366463287882767,0.7887240273846369,651,31,22.3598987347954,17.142604404626052
0.31154994919030077,0.7887161418963303,651,31,22.3598987347954,17.142604404626052
0.31943517997167387,0.7887082564947183,651,31,22.3598987347954,17.142604404626052
0.32732032573896236,0.7887003711791954,651,31,22.3598987347954,17.142604404626052
0.33520538696853913,0.7886924859492026,651,31,22.3598987347954,17.142604404626052
0.3430903641001849,0.7886846008042239,651,31,22.3598987347954,17.142604404626052
0.3509752575399035,0.7886767157437828,651,31,22.3598987347954,17.142604404626052
0.35886006766252104,0.7886688307674397,651,31,22.3598987347954,17.142604404626052
0.3667447948140843,0.7886609458747884,651,31,22.3598987347954,17.142604404626052
0.3746294393140754,0.7886530610654543,651,31,22.3598987347954,17.142604404626052
0.38251400145745573,0.7886451763390913,651,31,22.3598987347954,17.142604404626052
0.39039848151655243,0.7886372916953798,651,31,22.3598987347954,17.142604404626052
0.39828287974279986,0.7886294071340249,651,31,22.3598987347954,17.142604404626052
0.4061671963683475,0.7886215226547542,651,31,22.3598987347954,17.142604404626052
0.4140514316075434,0.7886136382573165,651,31,22.3598987347954,17.142604404626052
0.4219355856583038,0.7886057539414794,651,31,22.3598987347954,17.142604404626052
0.42981965870337807,0.7885978697070286,651,31,22.3598987347954,17.142604404626052
0.4377036509115146,0.7885899855537662,651,31,22.3598987347954,17.142604404626052
0.44558756243853903,0.7885821014815095,651,31,22.3598987347954,17.142604404626052
0.45347139342834797,0.7885742174900898,651,31,22.3598987347954,17.142604404626052
0.46135514401382693,0.7885663335793512,651,31,22.3598987347954,17.142604404626052
0.46923881431769787,0.7885584497491498,651,31,22.3598987347954,17.142604404626052
0.47712240445330095,0.7885505659993528,651,31,22.3598987347954,17.142604404626052
0.4850059145253163,0.7885426823298373,651,31,22.3598987347954,17.142604404626052
0.4928893446304301,0.78853479874049,651,31,22.3598987347954,17.142604404626052
0.5007726948579506,0.7885269152312064,651,31,22.3598987347954,17.142604404626052
0.5086559652903746,0.7885190318018896,651,31,22.3598987347954,17.142604404626052
0.5165391560039124,0.7885111484524505,651,31,22.3598987347954,17.142604404626052
0.5244222670689711,0.7885032651828063,651,31,22.3598987347954,17.142604404626052
0.5323052985506009,0.7884953819928812,651,31,22.3598987347954,17.142604404626052
0.5401882505089083,0.7884874988826045,651,31,22.3598987347954,17.142604404626052
0.5480711229994348,0.7884796158519112,651,31,22.3598987347954,17.142604404626052
0.5559539160735099,0.7884717329007411,651,31,22.3598987347954,17.142604404626052
0.5638366297785737,0.788463850029039,651,31,22.3598987347954,17.142604404626052
0.5717192641584771,0.7884559672367532,651,31,22.3598987347954,17.142604404626052
0.5796018192537578,0.7884480845238364,651,31,22.3598987347954,17.142604404626052
0.5874842951018946,0.7884402018902448,651,31,22.3598987347954,17.142604404626052
0.5953666917375436,0.7884323193359377,651,31,22.3598987347954,17.142604404626052
0.6032490091927553,0.7884244368608778,651,31,22.3598987347954,17.142604404626052
0.6111312474971742,0.7884165544650305,651,31,22.3598987347954,17.142604404626052
0.6190134066782246,0.7884086721483635,651,31,22.3598987347954,17.142604404626052
0.6268954867612816,0.7884007899108473,651,31,22.3598987347954,17.142604404626052
0.6347774877698286,0.7883929077524545,651,31,22.3598987347954,17.142604404626052
0.6426594097256025,0.7883850256731597,651,31,22.3598987347954,17.142604404626052
0.6505412526487282,0.7883771436729393,651,31,22.3598987347954,17.142604404626052
0.6584230165578434,0.7883692617517718,651,31,22.3598987347954,17.142604404626052
0.6663047014702117,0.7883613799096368,651,31,22.3598987347954,17.142604404626052
0.6741863074018294,0.7883534981465159,651,31,22.3598987347954,17.142604404626052
0.6820678343675224,0.7883456164623918,651,31,22.3598987347954,17.142604404626052
0.6899492823810368,0.7883377348572483,651,31,22.3598987347954,17.142604404626052
0.6978306514551211,0.7883298533310708,651,31,22.3598987347954,17.142604404626052
0.7057119416016044,0.7883219718838455,651,31,22.3598987347954,17.142604404626052
0.7135931528314656,0.7883140905155595,651,31,22.3598987347954,17.142604404626052
0.7214742851548993,0.7883062092262011,651,31,22.3598987347954,17.142604404626052
0.7293553385813769,0.7882983280157594,651,31,22.3598987347954,17.142604404626052
0.737236313119701,0.7882904468842241,651,31,22.3598987347954,17.142604404626052
0.7451172087780583,0.7882825658315857,651,31,22.3598987347954,17.142604404626052
0.7529980255640657,0.7882746848578356,651,31,22.3598987347954,17.142604404626052
0.7608787634848149,0.7882668039629653,651,31,22.3598987347954,17.142604404626052
0.768759422546912,0.7882589231469674,651,31,22.3598987347954,17.142604404626052
0.7766400027565159,0.7882510424098347,651,31,22.3598987347954,17.142604404626052
0.7845205041193725,0.7882431617515607,651,31,22.3598987347954,17.142604404626052
0.7924009266408455,0.7882352811721391,651,31,22.3598987347954,17.142604404626052
0.8002812703259471,0.7882274006715644,651,31,22.3598987347954,17.142604404626052
0.8081615351793637,0.788219520249831,651,31,22.3598987347954,17.142604404626052
0.8160417212054829,0.7882116399069339,651,31,22.3598987347954,17.142604404626052
0.8239218284084141,0.7882037596428686,651,31,22.3598987347954,17.142604404626052
0.8318018567920119,0.7881958794576305,651,31,22.3598987347954,17.142604404626052
0.8396818063598945,0.7881879993512155,651,31,22.3598987347954,17.142604404626052
0.8475616771154628,0.78818011932362,651,31,22.3598987347954,17.142604404626052
0.8554414690619158,0.7881722393748402,651,31,22.3598987347954,17.142604404626052
0.8633211822022676,0.7881643595048725,651,31,22.3598987347954,17.142604404626052
0.871200816539361,0.788156479713714,651,31,22.3598987347954,17.142604404626052
0.8790803720758803,0.7881486000013617,651,31,22.3598987347954,17.142604404626052
0.886959848814364,0.7881407203678126,651,31,22.3598987347954,17.142604404626052
0.8948392467572158,0.788132840813064,651,31,22.3598987347954,17.142604404626052
0.9027185659067155,0.7881249613371135,651,31,22.3598987347954,17.142604404626052
0.9105978062650276,0.7881170819399587,651,31,22.3598987347954,17.142604404626052
0.9184769678342107,0.7881092026215971,651,31,22.3598987347954,17.142604404626052
0.926356050616226,0.7881013233820268,651,31,22.3598987347954,17.142604404626052
0.9342350546129434,0.7880934442212455,651,31,22.3598987347954,17.142604404626052
0.9421139798261509,0.7880855651392513,651,31,22.3598987347954,17.142604404626052
0.9499928262575584,0.7880776861360426,651,31,22.3598987347954,17.142604404626052
0.9578715939088054,0.7880698072116172,651,31,22.3598987347954,17.142604404626052
0.9657502827814654,0.7880619283659738,651,31,22.3598987347954,17.142604404626052
0.973628892877052,0.7880540495991104,651,31,22.3598987347954,17.142604404626052
0.9815074241970224,0.7880461709110256,651,31,22.3598987347954,17.142604404626052
0.9893858767427829,0.788038292301718,651,31,22.3598987347954,17.142604404626052
0.997264250515691,0.7880304137711858,651,31,22.3598987347954,17.142604404626052
1.0051425455170613,0.7880225353194279,651,31,22.3598987347954,17.142604404626052
1.0130207617481681,0.7880146569464429,651,31,22.3598987347954,17.142604404626052
1.0208988992102475,0.7880067786522293,651,31,22.3598987347954,17.142604404626052
1.0287769579045012,0.7879989004367861,651,31,22.3598987347954,17.142604404626052
1.036654937832099,0.7879910223001119,651,31,22.3598987347954,17.142604404626052
1.044532838994182,0.7879831442422054,651,31,22.3598987347954,17.142604404626052
1.0524106613918631,0.7879752662630656,651,31,22.3598987347954,17.142604404626052
1.0602884050262302,0.7879673883626913,651,31,22.3598987347954,17.142604404626052
1.0681660698983493,0.7879595105410815,651,31,22.3598987347954,17.142604404626052
1.0760436560092632,0.7879516327982349,651,31,22.3598987347954,17.142604404626052
1.0839211633599963,0.7879437551341505,651,31,22.3598987347954,17.142604404626052
1.0917985919515545,0.7879358775488274,651,31,22.3598987347954,17.142604404626052
1.0996759417849264,0.7879280000422644,651,31,22.3598987347954,17.142604404626052
1.107553212861086,0.7879201226144606,651,31,22.3598987347954,17.142604404626052
1.1154304051809918,0.787912245265415,651,31,22.3598987347954,17.142604404626052
1.1233075187455903,0.7879043679951266,651,31,22.3598987347954,17.142604404626052
1.1311845535558145,0.7878964908035944,651,31,22.3598987347954,17.142604404626052
1.1390615096125878,0.7878886136908175,651,31,22.3598987347954,17.142604404626052
1.146938386916821,0.787880736656795,651,31,22.3598987347954,17.142604404626052
1.1548151854694173,0.787872859701526,651,31,22.3598987347954,17.142604404626052
1.1626919052712705,0.7878649828250095,651,31,22.3598987347954,17.142604404626052
1.1705685463232653,0.7878571060272446,651,31,22.3598987347954,17.142604404626052
1.17844510862628,0.7878492293082304,651,31,22.3598987347954,17.142604404626052
1.186321592181185,0.7878413526679661,651,31,22.3598987347954,17.142604404626052
1.1941979969888452,0.7878334761064507,651,31,22.3598987347954,17.142604404626052
1.202074323050119,0.7878255996236835,651,31,22.3598987347954,17.142604404626052
1.209950570365859,0.7878177232196635,651,31,22.3598987347954,17.142604404626052
1.2178267389369135,0.7878098468943898,651,31,22.3598987347954,17.142604404626052
1.2257028287641256,0.7878019706478617,651,31,22.3598987347954,17.142604404626052
1.233578839848334,0.7877940944800783,651,31,22.3598987347954,17.142604404626052
1.241454772190374,0.7877862183910388,651,31,22.3598987347954,17.142604404626052
1.249330625791077,0.7877783423807422,651,31,22.3598987347954,17.142604404626052
1.2572064006512704,0.7877704664491877,651,31,22.3598987347954,17.142604404626052
1.265082096771779,0.7877625905963747,651,31,22.3598987347954,17.142604404626052
1.2729577141534252,0.787754714822302,651,31,22.3598987347954,17.142604404626052
1.2808332527970274,0.7877468391269691,651,31,22.3598987347954,17.142604404626052
1.2887087127034027,0.787738963510375,651,31,22.3598987347954,17.142604404626052
1.296584093873366,0.787731087972519,651,31,22.3598987347954,17.142604404626052
1.3044593963077284,0.7877232125134002,651,31,22.3598987347954,17.142604404626052
1.3123346200073016,0.7877153371330178,651,31,22.3598987347954,17.142604404626052
1.3202097649728934,0.787707461831371,651,31,22.3598987347954,17.142604404626052
1.3280848312053106,0.787699586608459,651,31,22.3598987347954,17.142604404626052
1.3359598187053592,0.7876917114642809,651,31,22.3598987347954,17.142604404626052
1.343834727473843,0.787683836398836,651,31,22.3598987347954,17.142604404626052
1.351709557511564,0.7876759614121235,651,31,22.3598987347954,17.142604404626052
1.359584308819325,0.7876680865041424,651,31,22.3598987347954,17.142604404626052
1.3674589813979252,0.7876602116748922,651,31,22.3598987347954,17.142604404626052
1.3753335752481641,0.787652336924372,651,31,22.3598987347954,17.142604404626052
1.3832080903708408,0.7876444622525809,651,31,22.3598987347954,17.142604404626052
1.3910825267667524,0.787636587659518,651,31,22.3598987347954,17.142604404626052
1.3989568844366953,0.7876287131451829,651,31,22.3598987347954,17.142604404626052
1.4068311633814656,0.7876208387095744,651,31,22.3598987347954,17.142604404626052
1.4147053636018587,0.7876129643526919,651,31,22.3598987347954,17.142604404626052
1.4225794850986695,0.7876050900745346,651,31,22.3598987347954,17.142604404626052
1.4304535278726915,0.7875972158751017,651,31,22.3598987347954,17.142604404626052
1.4383274919247186,0.7875893417543922,651,31,22.3598987347954,17.142604404626052
1.446201377255543,0.7875814677124057,651,31,22.3598987347954,17.142604404626052
1.4540751838659585,0.787573593749141,651,31,22.3598987347954,17.142604404626052
1.461948911756756,0.7875657198645977,651,31,22.3598987347954,17.142604404626052
1.4698225609287277,0.7875578460587747,651,31,22.3598987347954,17.142604404626052
1.4776961313826646,0.7875499723316712,651,31,22.3598987347954,17.142604404626052
1.4855696231193585,0.7875420986832866,651,31,22.3598987347954,17.142604404626052
1.4934430361395996,0.78753422511362,651,31,22.3598987347954,17.142604404626052
1.5013163704441783,0.7875263516226707,651,31,22.3598987347954,17.142604404626052
1.5091896260338844,0.7875184782104379,651,31,22.3598987347954,17.142604404626052
1.517062802909508,0.7875106048769206,651,31,22.3598987347954,17.142604404626052
1.5249359010718389,0.7875027316221183,651,31,22.3598987347954,17.142604404626052
1.532808920521666,0.78749485844603,651,31,22.3598987347954,17.142604404626052
1.5406818612597795,0.7874869853486549,651,31,22.3598987347954,17.142604404626052
1.5485547232869672,0.7874791123299925,651,31,22.3598987347954,17.142604404626052
1.5564275066040185,0.7874712393900416,651,31,22.3598987347954,17.142604404626052
1.5643002112117226,0.7874633665288018,651,31,22.3598987347954,17.142604404626052
1.5721728371108674,0.787455493746272,651,31,22.3598987347954,17.142604404626052
1.580045384302241,0.7874476210424516,651,31,22.3598987347954,17.142604404626052
1.587917852786633,0.7874397484173397,651,31,22.3598987347954,17.142604404626052
1.595790242564831,0.7874318758709355,651,31,22.3598987347954,17.142604404626052
1.6036625536376228,0.7874240034032385,651,31,22.3598987347954,17.142604404626052
1.611534786005796,0.7874161310142476,651,31,22.3598987347954,17.142604404626052
1.6194069396701394,0.787408258703962,651,31,22.3598987347954,17.142604404626052
1.6272790146314402,0.7874003864723811,651,31,22.3598987347954,17.142604404626052
1.6351510108904863,0.787392514319504,651,31,22.3598987347954,17.142604404626052
1.6430229284480655,0.7873846422453299,651,31,22.3598987347954,17.142604404626052
1.650894767304965,0.787376770249858,651,31,22.3598987347954,17.142604404626052
1.6587665274619725,0.7873688983330877,651,31,22.3598987347954,17.142604404626052
1.6666382089198755,0.7873610264950179,651,31,22.3598987347954,17.142604404626052
1.6745098116794612,0.7873531547356482,651,31,22.3598987347954,17.142604404626052
1.6823813357415176,0.7873452830549774,651,31,22.3598987347954,17.142604404626052
1.6902527811068309,0.787337411453005,651,31,22.3598987347954,17.142604404626052
1.698124147776189,0.7873295399297301,651,31,22.3598987347954,17.142604404626052
1.705995435750379,0.787321668485152,651,31,22.3598987347954,17.142604404626052
1.713866645030188,0.7873137971192697,651,31,22.3598987347954,17.142604404626052
1.7217377756164032,0.7873059258320827,651,31,22.3598987347954,17.142604404626052
1.7296088275098118,0.78729805462359,651,31,22.3598987347954,17.142604404626052
1.7374798007112011,0.787290183493791,651,31,22.3598987347954,17.142604404626052
1.7453506952213569,0.7872823124426847,651,31,22.3598987347954,17.142604404626052
1.7532215110410674,0.7872744414702704,651,31,22.3598987347954,17.142604404626052
1.7610922481711193,0.7872665705765474,651,31,22.3598987347954,17.142604404626052
1.7689629066122994,0.7872586997615147,651,31,22.3598987347954,17.142604404626052
1.7768334863653943,0.7872508290251717,651,31,22.3598987347954,17.142604404626052
1.7847039874311914,0.7872429583675177,651,31,22.3598987347954,17.142604404626052
1.7925744098104779,0.7872350877885517,651,31,22.3598987347954,17.142604404626052
1.8004447535040395,0.7872272172882729,651,31,22.3598987347954,17.142604404626052
1.808315018512664,0.7872193468666807,651,31,22.3598987347954,17.142604404626052
1.8161852048371374,0.7872114765237742,651,31,22.3598987347954,17.142604404626052
1.824055312478247,0.7872036062595525,651,31,22.3598987347954,17.142604404626052
1.83192534143678,0.7871957360740152,651,31,22.3598987347954,17.142604404626052
1.8397952917135225,0.7871878659671611,651,31,22.3598987347954,17.142604404626052
1.8476651633092611,0.7871799959389896,651,31,22.3598987347954,17.142604404626052
1.8555349562247827,0.7871721259894998,651,31,22.3598987347954,17.142604404626052
1.863404670460874,0.7871642561186911,651,31,22.3598987347954,17.142604404626052
1.871274306018322,0.7871563863265626,651,31,22.3598987347954,17.142604404626052
1.8791438628979131,0.7871485166131135,651,31,22.3598987347954,17.142604404626052
1.8870133411004342,0.787140646978343,651,31,22.3598987347954,17.142604404626052
1.8948827406266713,0.7871327774222504,651,31,22.3598987347954,17.142604404626052
1.9027520614774118,0.7871249079448348,651,31,22.3598987347954,17.142604404626052
1.9106213036534418,0.7871170385460955,651,31,22.3598987347954,17.142604404626052
