Vout,Iout,Irradiance,Temperature,MaxVoltage,MaxPower
0.00965551715848886,1.9311219999999998,1691,-4,19.812664108880693,37.86888328912975
0.02896637293581573,1.9311219999999998,1691,-4,19.812664108880693,37.86888328912975
0.048276836128288265,1.9311121513706413,1691,-4,19.812664108880693,37.86888328912975
0.06758683660075224,1.931092840514864,1691,-4,19.812664108880693,37.86888328912975
0.08689635143182248,1.9310735300526563,1691,-4,19.812664108880693,37.86888328912975
0.10620540313758518,1.931054220054115,1691,-4,19.812664108880693,37.86888328912975
0.12551401250249353,1.931034910541215,1691,-4,19.812664108880693,37.86888328912975
0.14482219871217475,1.9310156014914401,1691,-4,19.812664108880693,37.86888328912975
0.16412997947623229,1.9309962928840063,1691,-4,19.812664108880693,37.86888328912975
0.18343737114181324,1.9309769846997276,1691,-4,19.812664108880693,37.86888328912975
0.20274438879843804,1.9309576769208943,1691,-4,19.812664108880693,37.86888328912975
0.22205104637476417,1.9309383695311595,1691,-4,19.812664108880693,37.86888328912975
0.2413573567279048,1.9309190625154335,1691,-4,19.812664108880693,37.86888328912975
0.26066333172587497,1.930899755859788,1691,-4,19.812664108880693,37.86888328912975
0.2799689823236945,1.9308804495513656,1691,-4,19.812664108880693,37.86888328912975
0.29927431863363535,1.9308611435782983,1691,-4,19.812664108880693,37.86888328912975
0.3185793499900636,1.930841837929631,1691,-4,19.812664108880693,37.86888328912975
0.337884085009293,1.9308225325952517,1691,-4,19.812664108880693,37.86888328912975
0.3571885316448333,1.930803227565826,1691,-4,19.812664108880693,37.86888328912975
0.3764926972383869,1.9307839228327373,1691,-4,19.812664108880693,37.86888328912975
0.39579658856692274,1.9307646183880323,1691,-4,19.812664108880693,37.86888328912975
0.41510021188612717,1.9307453142243691,1691,-4,19.812664108880693,37.86888328912975
0.43440357297051296,1.930726010334971,1691,-4,19.812664108880693,37.86888328912975
0.4537066771504412,1.9307067067135821,1691,-4,19.812664108880693,37.86888328912975
0.473009529346295,1.9306874033544283,1691,-4,19.812664108880693,37.86888328912975
0.4923121341000239,1.9306681002521786,1691,-4,19.812664108880693,37.86888328912975
0.5116144956042613,1.930648797401913,1691,-4,19.812664108880693,37.86888328912975
0.5309166177292006,1.9306294947990896,1691,-4,19.812664108880693,37.86888328912975
0.5502185040474058,1.9306101924395158,1691,-4,19.812664108880693,37.86888328912975
0.5695201578567101,1.9305908903193212,1691,-4,19.812664108880693,37.86888328912975
0.5888215822013544,1.930571588434933,1691,-4,19.812664108880693,37.86888328912975
0.6081227798915001,1.930552286783054,1691,-4,19.812664108880693,37.86888328912975
0.6274237535212379,1.9305329853606397,1691,-4,19.812664108880693,37.86888328912975
0.6467245054852143,1.9305136841648796,1691,-4,19.812664108880693,37.86888328912975
0.6660250379939758,1.93049438319318,1691,-4,19.812664108880693,37.86888328912975
0.6853253530881346,1.9304750824431463,1691,-4,19.812664108880693,37.86888328912975
0.7046254526514435,1.9304557819125674,1691,-4,19.812664108880693,37.86888328912975
0.7239253384228647,1.9304364815994035,1691,-4,19.812664108880693,37.86888328912975
0.7432250120077103,1.93041718150177,1691,-4,19.812664108880693,37.86888328912975
0.7625244748879256,1.9303978816179288,1691,-4,19.812664108880693,37.86888328912975
0.7818237284315812,1.930378581946274,1691,-4,19.812664108880693,37.86888328912975
0.8011227739016344,1.9303592824853237,1691,-4,19.812664108880693,37.86888328912975
0.8204216124640171,1.93033998323371,1691,-4,19.812664108880693,37.86888328912975
0.8397202451951011,1.9303206841901699,1691,-4,19.812664108880693,37.86888328912975
0.8590186730885887,1.9303013853535373,1691,-4,19.812664108880693,37.86888328912975
0.8783168970618737,1.9302820867227362,1691,-4,19.812664108880693,37.86888328912975
0.8976149179619121,1.9302627882967727,1691,-4,19.812664108880693,37.86888328912975
0.9169127365706429,1.9302434900747292,1691,-4,19.812664108880693,37.86888328912975
0.9362103536099894,1.930224192055759,1691,-4,19.812664108880693,37.86888328912975
0.9555077697464777,1.9302048942390801,1691,-4,19.812664108880693,37.86888328912975
0.9748049855954982,1.9301855966239705,1691,-4,19.812664108880693,37.86888328912975
0.9941020017252413,1.930166299209764,1691,-4,19.812664108880693,37.86888328912975
1.0133988186603278,1.9301470019958447,1691,-4,19.812664108880693,37.86888328912975
1.0326954368851617,1.9301277049816445,1691,-4,19.812664108880693,37.86888328912975
1.0519918568470252,1.9301084081666393,1691,-4,19.812664108880693,37.86888328912975
1.0712880789589336,1.930089111550344,1691,-4,19.812664108880693,37.86888328912975
1.090584103602273,1.930069815132312,1691,-4,19.812664108880693,37.86888328912975
1.1098799311292327,1.9300505189121298,1691,-4,19.812664108880693,37.86888328912975
1.1291755618650534,1.930031222889416,1691,-4,19.812664108880693,37.86888328912975
1.1484709961100992,1.9300119270638187,1691,-4,19.812664108880693,37.86888328912975
1.1677662341417716,1.9299926314350124,1691,-4,19.812664108880693,37.86888328912975
1.1870612762162778,1.929973336002697,1691,-4,19.812664108880693,37.86888328912975
1.2063561225702593,1.929954040766595,1691,-4,19.812664108880693,37.86888328912975
1.225650773422299,1.92993474572645,1691,-4,19.812664108880693,37.86888328912975
1.2449452289743104,1.9299154508820255,1691,-4,19.812664108880693,37.86888328912975
1.264239489412819,1.929896156233103,1691,-4,19.812664108880693,37.86888328912975
1.2835335549101476,1.9298768617794804,1691,-4,19.812664108880693,37.86888328912975
1.3028274256255084,1.9298575675209713,1691,-4,19.812664108880693,37.86888328912975
1.322121101706012,1.9298382734574036,1691,-4,19.812664108880693,37.86888328912975
1.3414145832875983,1.9298189795886176,1691,-4,19.812664108880693,37.86888328912975
1.360707870495897,1.9297996859144664,1691,-4,19.812664108880693,37.86888328912975
1.3800009634470185,1.9297803924348143,1691,-4,19.812664108880693,37.86888328912975
1.3992938622482887,1.9297610991495353,1691,-4,19.812664108880693,37.86888328912975
1.4185865669989242,1.9297418060585134,1691,-4,19.812664108880693,37.86888328912975
1.4378790777906556,1.9297225131616416,1691,-4,19.812664108880693,37.86888328912975
1.4571713947083045,1.9297032204588203,1691,-4,19.812664108880693,37.86888328912975
1.4764635178303145,1.9296839279499578,1691,-4,19.812664108880693,37.86888328912975
1.495755447229241,1.9296646356349694,1691,-4,19.812664108880693,37.86888328912975
1.515047182972206,1.9296453435137766,1691,-4,19.812664108880693,37.86888328912975
1.534338725121316,1.929626051586307,1691,-4,19.812664108880693,37.86888328912975
1.553630073734046,1.9296067598524933,1691,-4,19.812664108880693,37.86888328912975
1.5729212288635979,1.9295874683122733,1691,-4,19.812664108880693,37.86888328912975
1.5922121905592281,1.9295681769655897,1691,-4,19.812664108880693,37.86888328912975
1.611502958866552,1.9295488858123893,1691,-4,19.812664108880693,37.86888328912975
1.6307935338278232,1.9295295948526228,1691,-4,19.812664108880693,37.86888328912975
1.6500839154821925,1.9295103040862447,1691,-4,19.812664108880693,37.86888328912975
1.6693741038659473,1.9294910135132124,1691,-4,19.812664108880693,37.86888328912975
1.6886640990127304,1.9294717231334872,1691,-4,19.812664108880693,37.86888328912975
1.7079539009537454,1.9294524329470324,1691,-4,19.812664108880693,37.86888328912975
1.7272435097179428,1.9294331429538147,1691,-4,19.812664108880693,37.86888328912975
1.7465329253321937,1.9294138531538028,1691,-4,19.812664108880693,37.86888328912975
1.7658221478214513,1.9293945635469676,1691,-4,19.812664108880693,37.86888328912975
1.7851111772088952,1.9293752741332824,1691,-4,19.812664108880693,37.86888328912975
1.8044000135160714,1.929355984912722,1691,-4,19.812664108880693,37.86888328912975
1.823688656763016,1.9293366958852636,1691,-4,19.812664108880693,37.86888328912975
1.842977106968372,1.9293174070508852,1691,-4,19.812664108880693,37.86888328912975
1.8622653641494955,1.9292981184095672,1691,-4,19.812664108880693,37.86888328912975
1.8815534283225566,1.9292788299612906,1691,-4,19.812664108880693,37.86888328912975
1.9008412995026287,1.9292595417060385,1691,-4,19.812664108880693,37.86888328912975
1.9201289777037742,1.9292402536437943,1691,-4,19.812664108880693,37.86888328912975
1.939416462939122,1.929220965774543,1691,-4,19.812664108880693,37.86888328912975
1.9587037552209385,1.9292016780982706,1691,-4,19.812664108880693,37.86888328912975
1.9779908545606952,1.929182390614964,1691,-4,19.812664108880693,37.86888328912975
1.9972777609691295,1.929163103324611,1691,-4,19.812664108880693,37.86888328912975
2.0165644744562994,1.9291438162272,1691,-4,19.812664108880693,37.86888328912975
2.0358509950316397,1.9291245293227204,1691,-4,19.812664108880693,37.86888328912975
2.0551373227040055,1.929105242611162,1691,-4,19.812664108880693,37.86888328912975
2.0744234574817195,1.9290859560925153,1691,-4,19.812664108880693,37.86888328912975
2.0937093993726137,1.9290666697667715,1691,-4,19.812664108880693,37.86888328912975
2.1129951483840643,1.9290473836339224,1691,-4,19.812664108880693,37.86888328912975
2.1322807045230285,1.9290280976939602,1691,-4,19.812664108880693,37.86888328912975
2.1515660677960766,1.9290088119468773,1691,-4,19.812664108880693,37.86888328912975
2.170851238209422,1.928989526392667,1691,-4,19.812664108880693,37.86888328912975
2.190136215768947,1.9289702410313225,1691,-4,19.812664108880693,37.86888328912975
2.2094210004802317,1.9289509558628377,1691,-4,19.812664108880693,37.86888328912975
2.2287055923485735,1.9289316708872066,1691,-4,19.812664108880693,37.86888328912975
2.2479899913790122,1.928912386104424,1691,-4,19.812664108880693,37.86888328912975
2.2672741975763455,1.9288931015144841,1691,-4,19.812664108880693,37.86888328912975
2.2865582109451528,1.9288738171173823,1691,-4,19.812664108880693,37.86888328912975
2.3058420314898083,1.9288545329131133,1691,-4,19.812664108880693,37.86888328912975
2.325125659214497,1.928835248901673,1691,-4,19.812664108880693,37.86888328912975
2.3444090941232325,1.9288159650830567,1691,-4,19.812664108880693,37.86888328912975
2.363692336219866,1.9287966814572604,1691,-4,19.812664108880693,37.86888328912975
2.382975385508102,1.92877739802428,1691,-4,19.812664108880693,37.86888328912975
2.402258241991506,1.9287581147841117,1691,-4,19.812664108880693,37.86888328912975
2.4215409056735204,1.928738831736752,1691,-4,19.812664108880693,37.86888328912975
2.4408233765574687,1.9287195488821969,1691,-4,19.812664108880693,37.86888328912975
2.460105654646568,1.928700266220443,1691,-4,19.812664108880693,37.86888328912975
2.479387739943937,1.9286809837514873,1691,-4,19.812664108880693,37.86888328912975
2.4986696324526,1.9286617014753267,1691,-4,19.812664108880693,37.86888328912975
2.5179513321754996,1.9286424193919576,1691,-4,19.812664108880693,37.86888328912975
2.5372328391154992,1.928623137501377,1691,-4,19.812664108880693,37.86888328912975
2.5565141532753897,1.9286038558035823,1691,-4,19.812664108880693,37.86888328912975
2.5757952746578963,1.9285845742985706,1691,-4,19.812664108880693,37.86888328912975
2.5950762032656822,1.9285652929863388,1691,-4,19.812664108880693,37.86888328912975
2.6143569391013552,1.9285460118668845,1691,-4,19.812664108880693,37.86888328912975
2.633637482167468,1.9285267309402048,1691,-4,19.812664108880693,37.86888328912975
2.6529178324665295,1.9285074502062973,1691,-4,19.812664108880693,37.86888328912975
2.6721979900009982,1.9284881696651592,1691,-4,19.812664108880693,37.86888328912975
2.6914779547732977,1.9284688893167883,1691,-4,19.812664108880693,37.86888328912975
2.7107577267858085,1.9284496091611818,1691,-4,19.812664108880693,37.86888328912975
2.7300373060408787,1.9284303291983376,1691,-4,19.812664108880693,37.86888328912975
2.7493166925408232,1.9284110494282531,1691,-4,19.812664108880693,37.86888328912975
2.7685958862879274,1.928391769850926,1691,-4,19.812664108880693,37.86888328912975
2.78787488728445,1.928372490466354,1691,-4,19.812664108880693,37.86888328912975
2.807153695532621,1.928353211274535,1691,-4,19.812664108880693,37.86888328912975
2.82643231103465,1.9283339322754662,1691,-4,19.812664108880693,37.86888328912975
2.8457107337927243,1.928314653469146,1691,-4,19.812664108880693,37.86888328912975
2.8649889638090107,1.928295374855572,1691,-4,19.812664108880693,37.86888328912975
2.884267001085658,1.9282760964347416,1691,-4,19.812664108880693,37.86888328912975
2.903544845624798,1.9282568182066533,1691,-4,19.812664108880693,37.86888328912975
2.922822497428545,1.9282375401713046,1691,-4,19.812664108880693,37.86888328912975
2.942099956499001,1.9282182623286932,1691,-4,19.812664108880693,37.86888328912975
2.961377222838254,1.9281989846788172,1691,-4,19.812664108880693,37.86888328912975
2.980654296448379,1.9281797072216746,1691,-4,19.812664108880693,37.86888328912975
2.9999311773314394,1.928160429957263,1691,-4,19.812664108880693,37.86888328912975
3.019207865489489,1.9281411528855807,1691,-4,19.812664108880693,37.86888328912975
3.0384843609245715,1.9281218760066254,1691,-4,19.812664108880693,37.86888328912975
3.0577606636387205,1.928102599320395,1691,-4,19.812664108880693,37.86888328912975
3.0770367736339637,1.9280833228268877,1691,-4,19.812664108880693,37.86888328912975
3.096312690912318,1.9280640465261012,1691,-4,19.812664108880693,37.86888328912975
3.1155884154757962,1.9280447704180335,1691,-4,19.812664108880693,37.86888328912975
3.1348639473264033,1.928025494502683,1691,-4,19.812664108880693,37.86888328912975
3.1541392864661373,1.9280062187800469,1691,-4,19.812664108880693,37.86888328912975
3.173414432896991,1.927986943250124,1691,-4,19.812664108880693,37.86888328912975
3.192689386620954,1.9279676679129119,1691,-4,19.812664108880693,37.86888328912975
3.2119641476400096,1.9279483927684085,1691,-4,19.812664108880693,37.86888328912975
3.231238715956136,1.927929117816612,1691,-4,19.812664108880693,37.86888328912975
3.250513091571308,1.9279098430575206,1691,-4,19.812664108880693,37.86888328912975
3.2697872744874976,1.9278905684911318,1691,-4,19.812664108880693,37.86888328912975
3.2890612647066724,1.927871294117444,1691,-4,19.812664108880693,37.86888328912975
3.308335062230798,1.9278520199364555,1691,-4,19.812664108880693,37.86888328912975
3.3276086670618334,1.9278327459481637,1691,-4,19.812664108880693,37.86888328912975
3.3468820792017393,1.927813472152567,1691,-4,19.812664108880693,37.86888328912975
3.366155298652473,1.9277941985496634,1691,-4,19.812664108880693,37.86888328912975
3.3854283254159863,1.927774925139451,1691,-4,19.812664108880693,37.86888328912975
3.404701159494232,1.9277556519219274,1691,-4,19.812664108880693,37.86888328912975
3.42397380088916,1.9277363788970914,1691,-4,19.812664108880693,37.86888328912975
3.44324624960272,1.9277171060649403,1691,-4,19.812664108880693,37.86888328912975
3.462518505636856,1.9276978334254726,1691,-4,19.812664108880693,37.86888328912975
3.481790568993515,1.9276785609786864,1691,-4,19.812664108880693,37.86888328912975
3.5010624396746386,1.9276592887245796,1691,-4,19.812664108880693,37.86888328912975
3.5203341176821703,1.9276400166631502,1691,-4,19.812664108880693,37.86888328912975
3.53960560301805,1.9276207447943963,1691,-4,19.812664108880693,37.86888328912975
3.558876895684217,1.927601473118316,1691,-4,19.812664108880693,37.86888328912975
3.578147995682611,1.9275822016349073,1691,-4,19.812664108880693,37.86888328912975
3.5974189030151695,1.9275629303441681,1691,-4,19.812664108880693,37.86888328912975
3.61668961768383,1.927543659246097,1691,-4,19.812664108880693,37.86888328912975
3.6359601396905266,1.9275243883406916,1691,-4,19.812664108880693,37.86888328912975
3.6552304690371953,1.92750511762795,1691,-4,19.812664108880693,37.86888328912975
3.6745006057257696,1.9274858471078704,1691,-4,19.812664108880693,37.86888328912975
3.693770549758186,1.9274665767804509,1691,-4,19.812664108880693,37.86888328912975
3.7130403011363753,1.9274473066456892,1691,-4,19.812664108880693,37.86888328912975
3.732309859862271,1.9274280367035839,1691,-4,19.812664108880693,37.86888328912975
3.751579225937805,1.9274087669541327,1691,-4,19.812664108880693,37.86888328912975
3.7708483993649087,1.9273894973973338,1691,-4,19.812664108880693,37.86888328912975
3.7901173801455146,1.9273702280331853,1691,-4,19.812664108880693,37.86888328912975
3.8093861682815517,1.927350958861685,1691,-4,19.812664108880693,37.86888328912975
3.828654763774952,1.9273316898828314,1691,-4,19.812664108880693,37.86888328912975
3.847923166627644,1.9273124210966224,1691,-4,19.812664108880693,37.86888328912975
3.867191376841558,1.9272931525030559,1691,-4,19.812664108880693,37.86888328912975
3.8864593944186234,1.92727388410213,1691,-4,19.812664108880693,37.86888328912975
3.90572721936077,1.927254615893843,1691,-4,19.812664108880693,37.86888328912975
3.924994851669925,1.9272353478781927,1691,-4,19.812664108880693,37.86888328912975
3.9442622913480183,1.9272160800551774,1691,-4,19.812664108880693,37.86888328912975
3.963529538396978,1.9271968124247951,1691,-4,19.812664108880693,37.86888328912975
3.9827965928187328,1.9271775449870439,1691,-4,19.812664108880693,37.86888328912975
4.002063454615209,1.9271582777419216,1691,-4,19.812664108880693,37.86888328912975
4.021330123788336,1.9271390106894266,1691,-4,19.812664108880693,37.86888328912975
4.04059660034004,1.9271197438295569,1691,-4,19.812664108880693,37.86888328912975
4.05986288427225,1.9271004771623104,1691,-4,19.812664108880693,37.86888328912975
4.07912897558689,1.9270812106876853,1691,-4,19.812664108880693,37.86888328912975
4.098394874285892,1.9270619444056798,1691,-4,19.812664108880693,37.86888328912975
4.117660580371179,1.9270426783162917,1691,-4,19.812664108880693,37.86888328912975
4.136926093844681,1.9270234124195194,1691,-4,19.812664108880693,37.86888328912975
4.156191414708325,1.9270041467153607,1691,-4,19.812664108880693,37.86888328912975
4.175456542964033,1.926984881203814,1691,-4,19.812664108880693,37.86888328912975
4.194721478613736,1.9269656158848767,1691,-4,19.812664108880693,37.86888328912975
4.2139862216593595,1.9269463507585476,1691,-4,19.812664108880693,37.86888328912975
4.233250772102828,1.9269270858248244,1691,-4,19.812664108880693,37.86888328912975
4.252515129946071,1.9269078210837054,1691,-4,19.812664108880693,37.86888328912975
4.2717792951910125,1.9268885565351883,1691,-4,19.812664108880693,37.86888328912975
4.29104326783958,1.9268692921792716,1691,-4,19.812664108880693,37.86888328912975
4.310307047893697,1.926850028015953,1691,-4,19.812664108880693,37.86888328912975
4.329570635355293,1.926830764045231,1691,-4,19.812664108880693,37.86888328912975
4.348834030226292,1.9268115002671033,1691,-4,19.812664108880693,37.86888328912975
4.36809723250862,1.9267922366815682,1691,-4,19.812664108880693,37.86888328912975
4.387360242204203,1.9267729732886234,1691,-4,19.812664108880693,37.86888328912975
4.406623059314967,1.9267537100882675,1691,-4,19.812664108880693,37.86888328912975
4.4258856838428375,1.9267344470804983,1691,-4,19.812664108880693,37.86888328912975
4.445148115789741,1.9267151842653139,1691,-4,19.812664108880693,37.86888328912975
4.464410355157603,1.9266959216427122,1691,-4,19.812664108880693,37.86888328912975
4.483672401948348,1.9266766592126916,1691,-4,19.812664108880693,37.86888328912975
4.502934256163902,1.92665739697525,1691,-4,19.812664108880693,37.86888328912975
4.522195917806192,1.9266381349303856,1691,-4,19.812664108880693,37.86888328912975
4.541457386877143,1.9266188730780962,1691,-4,19.812664108880693,37.86888328912975
4.560718663378678,1.92659961141838,1691,-4,19.812664108880693,37.86888328912975
4.579979747312724,1.9265803499512353,1691,-4,19.812664108880693,37.86888328912975
4.599240638681208,1.92656108867666,1691,-4,19.812664108880693,37.86888328912975
