Vout,Iout,Irradiance,Temperature,MaxVoltage,MaxPower
0.005584376304074,1.116886,911,38,22.882187921429985,25.033698865151504
0.016753025651818732,1.116886,911,38,22.882187921429985,25.033698865151504
0.027921447943723587,1.116880303935096,911,38,22.882187921429985,25.033698865151504
0.039089602616337954,1.1168691352857483,911,38,22.882187921429985,25.033698865151504
0.05025747641282245,1.116857966864026,911,38,22.882187921429985,25.033698865151504
0.061425082355607244,1.1168467987104702,911,38,22.882187921429985,25.033698865151504
0.07259243246561325,1.1168356308377905,911,38,22.882187921429985,25.033698865151504
0.08375953783906251,1.1168244632329645,911,38,22.882187921429985,25.033698865151504
0.09492640871850211,1.1168132958839714,911,38,22.882187921429985,25.033698865151504
0.1060930545584874,1.1168021287797147,911,38,22.882187921429985,25.033698865151504
0.11725948408621122,1.1167909619099519,911,38,22.882187921429985,25.033698865151504
0.12842570535746833,1.1167797952652287,911,38,22.882187921429985,25.033698865151504
0.13959172580831392,1.1167686288368177,911,38,22.882187921429985,25.033698865151504
0.15075755230274718,1.116757462616663,911,38,22.882187921429985,25.033698865151504
0.1619231911767263,1.116746296597329,911,38,22.882187921429985,25.033698865151504
0.1730886482787968,1.116735130771951,911,38,22.882187921429985,25.033698865151504
0.18425392900759366,1.1167239651341936,911,38,22.882187921429985,25.033698865151504
0.1954190383464584,1.1167127996782082,911,38,22.882187921429985,25.033698865151504
0.20658398089539218,1.116701634398596,911,38,22.882187921429985,25.033698865151504
0.21774876090055068,1.1166904692903736,911,38,22.882187921429985,25.033698865151504
0.22891338228146962,1.1166793043489411,911,38,22.882187921429985,25.033698865151504
0.2400778486561953,1.1166681395700526,911,38,22.882187921429985,25.033698865151504
0.25124216336448163,1.116656974949788,911,38,22.882187921429985,25.033698865151504
0.26240632948920256,1.1166458104845298,911,38,22.882187921429985,25.033698865151504
0.2735703498761168,1.116634646170938,911,38,22.882187921429985,25.033698865151504
0.28473422715211133,1.1166234820059298,911,38,22.882187921429985,25.033698865151504
0.2958979637420428,1.1166123179866594,911,38,22.882187921429985,25.033698865151504
0.3070615618842809,1.1166011541104996,911,38,22.882187921429985,25.033698865151504
0.3182250236450577,1.1165899903750263,911,38,22.882187921429985,25.033698865151504
0.3293883509317121,1.1165788267780004,911,38,22.882187921429985,25.033698865151504
0.34055154550491484,1.116567663317356,911,38,22.882187921429985,25.033698865151504
0.35171460898995405,1.1165564999911857,911,38,22.882187921429985,25.033698865151504
0.36287754288715135,1.1165453367977287,911,38,22.882187921429985,25.033698865151504
0.37404034858147706,1.11653417373536,911,38,22.882187921429985,25.033698865151504
0.38520302735142564,1.1165230108025792,911,38,22.882187921429985,25.033698865151504
0.396365580377208,1.1165118479980012,911,38,22.882187921429985,25.033698865151504
0.40752800874831346,1.1165006853203476,911,38,22.882187921429985,25.033698865151504
0.4186903134704903,1.116489522768438,911,38,22.882187921429985,25.033698865151504
0.4298524954721888,1.1164783603411832,911,38,22.882187921429985,25.033698865151504
0.44101455561050845,1.1164671980375773,911,38,22.882187921429985,25.033698865151504
0.45217649467668836,1.1164560358566917,911,38,22.882187921429985,25.033698865151504
0.4633383134011739,1.1164448737976698,911,38,22.882187921429985,25.033698865151504
0.47450001245829476,1.1164337118597198,911,38,22.882187921429985,25.033698865151504
0.4856615924705827,1.1164225500421114,911,38,22.882187921429985,25.033698865151504
0.49682305401275656,1.1164113883441706,911,38,22.882187921429985,25.033698865151504
0.5079843976154012,1.1164002267652744,911,38,22.882187921429985,25.033698865151504
0.5191456237683632,1.1163890653048485,911,38,22.882187921429985,25.033698865151504
0.5303067329238857,1.116377903962362,911,38,22.882187921429985,25.033698865151504
0.5414677254995012,1.1163667427373252,911,38,22.882187921429985,25.033698865151504
0.5526286018807022,1.1163555816292858,911,38,22.882187921429985,25.033698865151504
0.5637893624234072,1.1163444206378264,911,38,22.882187921429985,25.033698865151504
0.5749500074562348,1.1163332597625613,911,38,22.882187921429985,25.033698865151504
0.5861105372826056,1.1163220990031346,911,38,22.882187921429985,25.033698865151504
0.5972709521826804,1.1163109383592178,911,38,22.882187921429985,25.033698865151504
0.6084312524151493,1.1162997778305075,911,38,22.882187921429985,25.033698865151504
0.6195914382188846,1.1162886174167235,911,38,22.882187921429985,25.033698865151504
0.6307515098144651,1.116277457117607,911,38,22.882187921429985,25.033698865151504
0.6419114674055837,1.1162662969329193,911,38,22.882187921429985,25.033698865151504
0.6530713111803469,1.1162551368624398,911,38,22.882187921429985,25.033698865151504
0.6642310413124731,1.1162439769059647,911,38,22.882187921429985,25.033698865151504
0.6753906579624014,1.116232817063306,911,38,22.882187921429985,25.033698865151504
0.6865501612783114,1.1162216573342898,911,38,22.882187921429985,25.033698865151504
0.6977095513970678,1.116210497718756,911,38,22.882187921429985,25.033698865151504
0.7088688284450904,1.116199338216556,911,38,22.882187921429985,25.033698865151504
0.7200279925391577,1.1161881788275532,911,38,22.882187921429985,25.033698865151504
0.7311870437871495,1.1161770195516212,911,38,22.882187921429985,25.033698865151504
0.7423459822887299,1.116165860388643,911,38,22.882187921429985,25.033698865151504
0.7535048081359816,1.116154701338511,911,38,22.882187921429985,25.033698865151504
0.7646635214139875,1.1161435424011252,911,38,22.882187921429985,25.033698865151504
0.7758221222013703,1.1161323835763939,911,38,22.882187921429985,25.033698865151504
0.7869806105707886,1.1161212248642318,911,38,22.882187921429985,25.033698865151504
0.7981389865893965,1.1161100662645602,911,38,22.882187921429985,25.033698865151504
0.8092972503192675,1.1160989077773067,911,38,22.882187921429985,25.033698865151504
0.820455401817784,1.116087749402404,911,38,22.882187921429985,25.033698865151504
0.8316134411379998,1.11607659113979,911,38,22.882187921429985,25.033698865151504
0.8427713683289726,1.1160654329894073,911,38,22.882187921429985,25.033698865151504
0.8539291834360704,1.116054274951203,911,38,22.882187921429985,25.033698865151504
0.865086886501257,1.1160431170251277,911,38,22.882187921429985,25.033698865151504
0.8762444775633532,1.1160319592111365,911,38,22.882187921429985,25.033698865151504
0.8874019566582787,1.116020801509187,911,38,22.882187921429985,25.033698865151504
0.898559323819275,1.1160096439192408,911,38,22.882187921429985,25.033698865151504
0.909716579077112,1.1159984864412615,911,38,22.882187921429985,25.033698865151504
0.9208737224602779,1.1159873290752165,911,38,22.882187921429985,25.033698865151504
0.9320307539951541,1.1159761718210743,911,38,22.882187921429985,25.033698865151504
0.9431876737061792,1.115965014678807,911,38,22.882187921429985,25.033698865151504
0.9543444816159964,1.1159538576483876,911,38,22.882187921429985,25.033698865151504
0.9655011777455927,1.1159427007297924,911,38,22.882187921429985,25.033698865151504
0.9766577621144261,1.1159315439229982,911,38,22.882187921429985,25.033698865151504
0.9878142347405433,1.1159203872279844,911,38,22.882187921429985,25.033698865151504
0.998970595640688,1.1159092306447311,911,38,22.882187921429985,25.033698865151504
1.0101268448304017,1.1158980741732207,911,38,22.882187921429985,25.033698865151504
1.0212829823241159,1.1158869178134363,911,38,22.882187921429985,25.033698865151504
1.0324390081352375,1.1158757615653623,911,38,22.882187921429985,25.033698865151504
1.0435949222762275,1.1158646054289842,911,38,22.882187921429985,25.033698865151504
1.0547507247586743,1.1158534494042887,911,38,22.882187921429985,25.033698865151504
1.065906415593359,1.1158422934912633,911,38,22.882187921429985,25.033698865151504
1.0770619947903215,1.1158311376898964,911,38,22.882187921429985,25.033698865151504
1.0882174623589131,1.1158199820001773,911,38,22.882187921429985,25.033698865151504
1.0993728183078515,1.115808826422096,911,38,22.882187921429985,25.033698865151504
1.1105280626452698,1.115797670955643,911,38,22.882187921429985,25.033698865151504
1.121683195378762,1.1157865156008095,911,38,22.882187921429985,25.033698865151504
1.1328382165154218,1.1157753603575877,911,38,22.882187921429985,25.033698865151504
1.1439931260618845,1.1157642052259698,911,38,22.882187921429985,25.033698865151504
1.155147924024359,1.1157530502059485,911,38,22.882187921429985,25.033698865151504
1.166302610408664,1.1157418952975175,911,38,22.882187921429985,25.033698865151504
1.1774571852202547,1.1157307405006707,911,38,22.882187921429985,25.033698865151504
1.1886116484642537,1.1157195858154019,911,38,22.882187921429985,25.033698865151504
1.1997660001454749,1.1157084312417058,911,38,22.882187921429985,25.033698865151504
1.2109202402684467,1.1156972767795772,911,38,22.882187921429985,25.033698865151504
1.2220743688374354,1.1156861224290116,911,38,22.882187921429985,25.033698865151504
1.2332283858564652,1.115674968190004,911,38,22.882187921429985,25.033698865151504
1.2443822913293363,1.1156638140625503,911,38,22.882187921429985,25.033698865151504
1.2555360852596416,1.1156526600466468,911,38,22.882187921429985,25.033698865151504
1.2666897676507842,1.1156415061422893,911,38,22.882187921429985,25.033698865151504
1.2778433385059906,1.1156303523494744,911,38,22.882187921429985,25.033698865151504
1.2889967978283254,1.1156191986681987,911,38,22.882187921429985,25.033698865151504
1.3001501456207023,1.115608045098459,911,38,22.882187921429985,25.033698865151504
1.3113033818858966,1.1155968916402519,911,38,22.882187921429985,25.033698865151504
1.3224565066265572,1.1155857382935748,911,38,22.882187921429985,25.033698865151504
1.3336095198452131,1.1155745850584249,911,38,22.882187921429985,25.033698865151504
1.3447624215442864,1.1155634319347996,911,38,22.882187921429985,25.033698865151504
1.3559152117260969,1.1155522789226964,911,38,22.882187921429985,25.033698865151504
1.3670678903928726,1.1155411260221126,911,38,22.882187921429985,25.033698865151504
1.3782204575467554,1.1155299732330461,911,38,22.882187921429985,25.033698865151504
1.389372913189808,1.1155188205554947,911,38,22.882187921429985,25.033698865151504
1.4005252573240212,1.115507667989456,911,38,22.882187921429985,25.033698865151504
1.4116774899513176,1.1154965155349281,911,38,22.882187921429985,25.033698865151504
1.4228296110735572,1.1154853631919093,911,38,22.882187921429985,25.033698865151504
1.433981620692544,1.1154742109603972,911,38,22.882187921429985,25.033698865151504
1.4451335188100274,1.1154630588403902,911,38,22.882187921429985,25.033698865151504
1.456285305427709,1.1154519068318864,911,38,22.882187921429985,25.033698865151504
1.4674369805472451,1.1154407549348841,911,38,22.882187921429985,25.033698865151504
1.4785885441702493,1.1154296031493816,911,38,22.882187921429985,25.033698865151504
1.4897399962982982,1.1154184514753773,911,38,22.882187921429985,25.033698865151504
1.5008913369329326,1.1154072999128695,911,38,22.882187921429985,25.033698865151504
1.5120425660756593,1.1153961484618566,911,38,22.882187921429985,25.033698865151504
1.5231936837279565,1.115384997122337,911,38,22.882187921429985,25.033698865151504
1.5343446898912736,1.1153738458943094,911,38,22.882187921429985,25.033698865151504
1.5454955845670337,1.1153626947777724,911,38,22.882187921429985,25.033698865151504
1.5566463677566373,1.1153515437727242,911,38,22.882187921429985,25.033698865151504
1.5677970394614624,1.1153403928791636,911,38,22.882187921429985,25.033698865151504
1.5789475996828666,1.115329242097089,911,38,22.882187921429985,25.033698865151504
1.590098048422189,1.1153180914264993,911,38,22.882187921429985,25.033698865151504
1.6012483856807511,1.115306940867393,911,38,22.882187921429985,25.033698865151504
1.612398611459858,1.1152957904197687,911,38,22.882187921429985,25.033698865151504
1.623548725760802,1.1152846400836252,911,38,22.882187921429985,25.033698865151504
1.6346987285848593,1.1152734898589611,911,38,22.882187921429985,25.033698865151504
1.6458486199332956,1.1152623397457753,911,38,22.882187921429985,25.033698865151504
1.6569983998073639,1.1152511897440662,911,38,22.882187921429985,25.033698865151504
1.6681480682083065,1.1152400398538327,911,38,22.882187921429985,25.033698865151504
1.6792976251373566,1.1152288900750738,911,38,22.882187921429985,25.033698865151504
1.690447070595738,1.1152177404077876,911,38,22.882187921429985,25.033698865151504
1.7015964045846654,1.1152065908519737,911,38,22.882187921429985,25.033698865151504
1.7127456271053467,1.1151954414076302,911,38,22.882187921429985,25.033698865151504
1.7238947381589815,1.1151842920747563,911,38,22.882187921429985,25.033698865151504
1.7350437377467645,1.1151731428533505,911,38,22.882187921429985,25.033698865151504
1.7461926258698823,1.1151619937434119,911,38,22.882187921429985,25.033698865151504
1.757341402529517,1.115150844744939,911,38,22.882187921429985,25.033698865151504
1.7684900677268458,1.1151396958579307,911,38,22.882187921429985,25.033698865151504
1.7796386214630397,1.115128547082386,911,38,22.882187921429985,25.033698865151504
1.7907870637392669,1.1151173984183036,911,38,22.882187921429985,25.033698865151504
1.8019353945566907,1.1151062498656823,911,38,22.882187921429985,25.033698865151504
1.8130836139164705,1.115095101424521,911,38,22.882187921429985,25.033698865151504
1.8242317218197621,1.1150839530948184,911,38,22.882187921429985,25.033698865151504
1.835379718267719,1.1150728048765735,911,38,22.882187921429985,25.033698865151504
1.8465276032614908,1.115061656769785,911,38,22.882187921429985,25.033698865151504
1.8576753768022243,1.1150505087744518,911,38,22.882187921429985,25.033698865151504
1.8688230388910647,1.1150393608905729,911,38,22.882187921429985,25.033698865151504
1.8799705895291536,1.115028213118147,911,38,22.882187921429985,25.033698865151504
1.8911180287176312,1.115017065457173,911,38,22.882187921429985,25.033698865151504
1.9022653564576357,1.1150059179076497,911,38,22.882187921429985,25.033698865151504
1.9134125727503033,1.114994770469576,911,38,22.882187921429985,25.033698865151504
1.9245596775967693,1.1149836231429506,911,38,22.882187921429985,25.033698865151504
1.9357066709981656,1.1149724759277726,911,38,22.882187921429985,25.033698865151504
1.9468535529556243,1.114961328824041,911,38,22.882187921429985,25.033698865151504
1.9580003234702752,1.1149501818317542,911,38,22.882187921429985,25.033698865151504
1.9691469825432477,1.1149390349509116,911,38,22.882187921429985,25.033698865151504
1.9802935301756688,1.1149278881815117,911,38,22.882187921429985,25.033698865151504
1.9914399663686655,1.1149167415235532,911,38,22.882187921429985,25.033698865151504
2.0025862911233636,1.1149055949770355,911,38,22.882187921429985,25.033698865151504
2.0137325044408887,1.1148944485419572,911,38,22.882187921429985,25.033698865151504
2.024878606322363,1.114883302218317,911,38,22.882187921429985,25.033698865151504
2.036024596768912,1.1148721560061143,911,38,22.882187921429985,25.033698865151504
2.047170475781656,1.1148610099053475,911,38,22.882187921429985,25.033698865151504
2.0583162433617184,1.1148498639160156,911,38,22.882187921429985,25.033698865151504
2.069461899510219,1.1148387180381174,911,38,22.882187921429985,25.033698865151504
2.0806074442282805,1.1148275722716519,911,38,22.882187921429985,25.033698865151504
2.0917528775170218,1.114816426616618,911,38,22.882187921429985,25.033698865151504
2.102898199377562,1.1148052810730145,911,38,22.882187921429985,25.033698865151504
2.1140434098110212,1.1147941356408404,911,38,22.882187921429985,25.033698865151504
2.1251885088185194,1.1147829903200943,911,38,22.882187921429985,25.033698865151504
2.1363334964011726,1.1147718451107755,911,38,22.882187921429985,25.033698865151504
2.1474783725600997,1.1147607000128825,911,38,22.882187921429985,25.033698865151504
2.1586231372964195,1.1147495550264144,911,38,22.882187921429985,25.033698865151504
2.1697677906112487,1.11473841015137,911,38,22.882187921429985,25.033698865151504
2.180912332505704,1.114727265387748,911,38,22.882187921429985,25.033698865151504
2.192056762980903,1.1147161207355478,911,38,22.882187921429985,25.033698865151504
2.203201082037962,1.1147049761947678,911,38,22.882187921429985,25.033698865151504
2.214345289677998,1.1146938317654072,911,38,22.882187921429985,25.033698865151504
2.225489385902127,1.1146826874474645,911,38,22.882187921429985,25.033698865151504
2.236633370711464,1.1146715432409389,911,38,22.882187921429985,25.033698865151504
2.247777244107127,1.1146603991458293,911,38,22.882187921429985,25.033698865151504
2.2589210060902296,1.1146492551621343,911,38,22.882187921429985,25.033698865151504
2.270064656661889,1.114638111289853,911,38,22.882187921429985,25.033698865151504
2.2812081958232193,1.1146269675289844,911,38,22.882187921429985,25.033698865151504
2.292351623575337,1.114615823879527,911,38,22.882187921429985,25.033698865151504
2.3034949399193563,1.11460468034148,911,38,22.882187921429985,25.033698865151504
2.314638144856393,1.1145935369148423,911,38,22.882187921429985,25.033698865151504
2.325781238387561,1.1145823935996126,911,38,22.882187921429985,25.033698865151504
2.3369242205139757,1.1145712503957899,911,38,22.882187921429985,25.033698865151504
2.3480670912367523,1.114560107303373,911,38,22.882187921429985,25.033698865151504
2.359209850557005,1.114548964322361,911,38,22.882187921429985,25.033698865151504
2.370352498475849,1.1145378214527526,911,38,22.882187921429985,25.033698865151504
2.381495034994398,1.1145266786945467,911,38,22.882187921429985,25.033698865151504
2.3926374601137668,1.1145155360477421,911,38,22.882187921429985,25.033698865151504
2.40377977383507,1.1145043935123378,911,38,22.882187921429985,25.033698865151504
2.4149219761594205,1.1144932510883327,911,38,22.882187921429985,25.033698865151504
2.426064067087935,1.1144821087757257,911,38,22.882187921429985,25.033698865151504
2.437206046621726,1.1144709665745156,911,38,22.882187921429985,25.033698865151504
2.448347914761908,1.1144598244847013,911,38,22.882187921429985,25.033698865151504
2.459489671509595,1.1144486825062816,911,38,22.882187921429985,25.033698865151504
2.4706313168659024,1.1144375406392557,911,38,22.882187921429985,25.033698865151504
2.4817728508319425,1.1144263988836223,911,38,22.882187921429985,25.033698865151504
2.4929142734088297,1.1144152572393802,911,38,22.882187921429985,25.033698865151504
2.504055584597678,1.1144041157065283,911,38,22.882187921429985,25.033698865151504
2.5151967843996017,1.1143929742850656,911,38,22.882187921429985,25.033698865151504
2.5263378728157146,1.1143818329749908,911,38,22.882187921429985,25.033698865151504
2.5374788498471297,1.114370691776303,911,38,22.882187921429985,25.033698865151504
2.548619715494962,1.114359550689001,911,38,22.882187921429985,25.033698865151504
2.5597604697603247,1.1143484097130838,911,38,22.882187921429985,25.033698865151504
2.570901112644331,1.11433726884855,911,38,22.882187921429985,25.033698865151504
2.582041644148096,1.1143261280953987,911,38,22.882187921429985,25.033698865151504
2.5931820642727326,1.114314987453629,911,38,22.882187921429985,25.033698865151504
2.6043223730193548,1.1143038469232391,911,38,22.882187921429985,25.033698865151504
2.615462570389075,1.1142927065042285,911,38,22.882187921429985,25.033698865151504
2.6266026563830085,1.114281566196596,911,38,22.882187921429985,25.033698865151504
2.637742631002268,1.1142704260003404,911,38,22.882187921429985,25.033698865151504
2.648882494247968,1.1142592859154603,911,38,22.882187921429985,25.033698865151504
