Vout,Iout,Irradiance,Temperature,MaxVoltage,MaxPower
0.0031572296420226734,0.631452,521,31,22.36251401540061,13.621043160321632
0.009471630545903739,0.631452,521,31,22.36251401540061,13.621043160321632
0.015785903079598228,0.631448779625158,521,31,22.36251401540061,13.621043160321632
0.022100024309814816,0.6314424652242541,521,31,22.36251401540061,13.621043160321632
0.02841398674155604,0.6314361509520424,521,31,22.36251401540061,13.621043160321632
0.034727797737291816,0.6314298368314437,521,31,22.36251401540061,13.621043160321632
0.04104146409327041,0.6314235228696433,521,31,22.36251401540061,13.621043160321632
0.04735499208294462,0.631417209059279,521,31,22.36251401540061,13.621043160321632
0.05366838749712646,0.6314108953935544,521,31,22.36251401540061,13.621043160321632
0.059981655681122306,0.6314045818661962,521,31,22.36251401540061,13.621043160321632
0.06629480156901081,0.6313982684714133,521,31,22.36251401540061,13.621043160321632
0.07260782971528346,0.6313919552038607,521,31,22.36251401540061,13.621043160321632
0.07892074432405047,0.6313856420586041,521,31,22.36251401540061,13.621043160321632
0.08523354927599977,0.6313793290310892,521,31,22.36251401540061,13.621043160321632
0.09154624815328165,0.6313730161171117,521,31,22.36251401540061,13.621043160321632
0.09785884426247865,0.6313667033127911,521,31,22.36251401540061,13.621043160321632
0.10417134065580817,0.6313603906145451,521,31,22.36251401540061,13.621043160321632
0.11048374015069377,0.6313540780190672,521,31,22.36251401540061,13.621043160321632
0.11679604534783056,0.6313477655233052,521,31,22.36251401540061,13.621043160321632
0.12310825864786061,0.6313414531244416,521,31,22.36251401540061,13.621043160321632
0.12942038226676533,0.6313351408198756,521,31,22.36251401540061,13.621043160321632
0.13573241825007362,0.6313288286072068,521,31,22.36251401540061,13.621043160321632
0.1420443684859767,0.6313225164842192,521,31,22.36251401540061,13.621043160321632
0.14835623471743387,0.631316204448867,521,31,22.36251401540061,13.621043160321632
0.15466801855334703,0.6313098924992624,521,31,22.36251401540061,13.621043160321632
0.1609797214788751,0.6313035806336621,521,31,22.36251401540061,13.621043160321632
0.16729134486495514,0.6312972688504574,521,31,22.36251401540061,13.621043160321632
0.17360288997709059,0.6312909571481631,521,31,22.36251401540061,13.621043160321632
0.1799143579834637,0.6312846455254082,521,31,22.36251401540061,13.621043160321632
0.18622574996242347,0.6312783339809273,521,31,22.36251401540061,13.621043160321632
0.1925370669093975,0.631272022513552,521,31,22.36251401540061,13.621043160321632
0.19884830974327225,0.6312657111222042,521,31,22.36251401540061,13.621043160321632
0.20515947931228204,0.6312593998058884,521,31,22.36251401540061,13.621043160321632
0.2114705763994452,0.6312530885636857,521,31,22.36251401540061,13.621043160321632
0.21778160172758212,0.6312467773947478,521,31,22.36251401540061,13.621043160321632
0.22409255596394673,0.6312404662982917,521,31,22.36251401540061,13.621043160321632
0.23040343972450178,0.6312341552735947,521,31,22.36251401540061,13.621043160321632
0.2367142535778655,0.6312278443199895,521,31,22.36251401540061,13.621043160321632
0.2430249980489543,0.6312215334368599,521,31,22.36251401540061,13.621043160321632
0.2493356736223452,0.6312152226236377,521,31,22.36251401540061,13.621043160321632
0.2556462807453795,0.6312089118797977,521,31,22.36251401540061,13.621043160321632
0.2619568198310282,0.6312026012048554,521,31,22.36251401540061,13.621043160321632
0.2682672912605359,0.6311962905983635,521,31,22.36251401540061,13.621043160321632
0.27457769538586224,0.6311899800599089,521,31,22.36251401540061,13.621043160321632
0.28088803253193506,0.6311836695891104,521,31,22.36251401540061,13.621043160321632
0.28719830299873034,0.6311773591856161,521,31,22.36251401540061,13.621043160321632
0.29350850706319187,0.6311710488491011,521,31,22.36251401540061,13.621043160321632
0.29981864498100347,0.6311647385792654,521,31,22.36251401540061,13.621043160321632
0.3061287169882249,0.6311584283758319,521,31,22.36251401540061,13.621043160321632
0.31243872330280154,0.6311521182385451,521,31,22.36251401540061,13.621043160321632
0.31874866412595804,0.6311458081671689,521,31,22.36251401540061,13.621043160321632
0.3250585396434854,0.6311394981614854,521,31,22.36251401540061,13.621043160321632
0.3313683500269279,0.6311331882212933,521,31,22.36251401540061,13.621043160321632
0.33767809543467936,0.6311268783464067,521,31,22.36251401540061,13.621043160321632
0.3439877760129953,0.6311205685366542,521,31,22.36251401540061,13.621043160321632
0.3502973918969265,0.6311142587918775,521,31,22.36251401540061,13.621043160321632
0.35660694321118097,0.6311079491119301,521,31,22.36251401540061,13.621043160321632
0.36291643007092056,0.6311016394966772,521,31,22.36251401540061,13.621043160321632
0.36922585258249435,0.6310953299459939,521,31,22.36251401540061,13.621043160321632
0.3755352108441176,0.6310890204597651,521,31,22.36251401540061,13.621043160321632
0.3818445049464973,0.6310827110378845,521,31,22.36251401540061,13.621043160321632
0.3881537349734096,0.6310764016802538,521,31,22.36251401540061,13.621043160321632
0.39446290100223347,0.6310700923867825,521,31,22.36251401540061,13.621043160321632
0.40077200310444255,0.6310637831573864,521,31,22.36251401540061,13.621043160321632
0.40708104134605994,0.6310574739919885,521,31,22.36251401540061,13.621043160321632
0.4133900157880771,0.6310511648905173,521,31,22.36251401540061,13.621043160321632
0.41969892648684143,0.6310448558529066,521,31,22.36251401540061,13.621043160321632
0.4260077734944132,0.6310385468790954,521,31,22.36251401540061,13.621043160321632
0.4323165568588957,0.6310322379690276,521,31,22.36251401540061,13.621043160321632
0.43862527662473955,0.6310259291226509,521,31,22.36251401540061,13.621043160321632
0.4449339328330238,0.6310196203399173,521,31,22.36251401540061,13.621043160321632
0.4512425255217155,0.6310133116207823,521,31,22.36251401540061,13.621043160321632
0.45755105472590857,0.631007002965205,521,31,22.36251401540061,13.621043160321632
0.4638595204780456,0.6310006943731471,521,31,22.36251401540061,13.621043160321632
0.4701679228081213,0.6309943858445738,521,31,22.36251401540061,13.621043160321632
0.4764762617438712,0.6309880773794525,521,31,22.36251401540061,13.621043160321632
0.4827845373109453,0.6309817689777533,521,31,22.36251401540061,13.621043160321632
0.4890927495330684,0.6309754606394484,521,31,22.36251401540061,13.621043160321632
0.49540089843218876,0.6309691523645121,521,31,22.36251401540061,13.621043160321632
0.501708984028614,0.6309628441529209,521,31,22.36251401540061,13.621043160321632
0.5080170063411377,0.6309565360046526,521,31,22.36251401540061,13.621043160321632
0.5143249653871563,0.630950227919687,521,31,22.36251401540061,13.621043160321632
0.5206328611827763,0.6309439198980052,521,31,22.36251401540061,13.621043160321632
0.5269406937429131,0.6309376119395901,521,31,22.36251401540061,13.621043160321632
0.5332484630813829,0.6309313040444252,521,31,22.36251401540061,13.621043160321632
0.5395561692109876,0.6309249962124959,521,31,22.36251401540061,13.621043160321632
0.5458638121435929,0.6309186884437882,521,31,22.36251401540061,13.621043160321632
0.5521713918901996,0.6309123807382894,521,31,22.36251401540061,13.621043160321632
0.5584789084610107,0.6309060730959876,521,31,22.36251401540061,13.621043160321632
0.5647863618654927,0.6308997655168718,521,31,22.36251401540061,13.621043160321632
0.5710937521124321,0.6308934580009317,521,31,22.36251401540061,13.621043160321632
0.5774010792099883,0.6308871505481579,521,31,22.36251401540061,13.621043160321632
0.5837083431657406,0.6308808431585418,521,31,22.36251401540061,13.621043160321632
0.5900155439867343,0.630874535832075,521,31,22.36251401540061,13.621043160321632
0.596322681679521,0.6308682285687499,521,31,22.36251401540061,13.621043160321632
0.6026297562501965,0.6308619213685597,521,31,22.36251401540061,13.621043160321632
0.6089367677044365,0.6308556142314976,521,31,22.36251401540061,13.621043160321632
0.615243716047528,0.6308493071575577,521,31,22.36251401540061,13.621043160321632
0.6215506012844,0.6308430001467341,521,31,22.36251401540061,13.621043160321632
0.6278574234196508,0.6308366931990218,521,31,22.36251401540061,13.621043160321632
0.6341641824575731,0.6308303863144156,521,31,22.36251401540061,13.621043160321632
0.6404708784021782,0.6308240794929111,521,31,22.36251401540061,13.621043160321632
0.6467775112572168,0.6308177727345038,521,31,22.36251401540061,13.621043160321632
0.6530840810262002,0.6308114660391899,521,31,22.36251401540061,13.621043160321632
0.659390587712417,0.6308051594069656,521,31,22.36251401540061,13.621043160321632
0.6656970313189521,0.6307988528378272,521,31,22.36251401540061,13.621043160321632
0.6720034118487015,0.6307925463317716,521,31,22.36251401540061,13.621043160321632
0.6783097293043865,0.6307862398887958,521,31,22.36251401540061,13.621043160321632
0.6846159836885679,0.6307799335088967,521,31,22.36251401540061,13.621043160321632
0.6909221750036573,0.6307736271920716,521,31,22.36251401540061,13.621043160321632
0.6972283032519302,0.6307673209383181,521,31,22.36251401540061,13.621043160321632
0.7035343684355346,0.6307610147476337,521,31,22.36251401540061,13.621043160321632
0.7098403705565023,0.630754708620016,521,31,22.36251401540061,13.621043160321632
0.7161463096167571,0.630748402555463,521,31,22.36251401540061,13.621043160321632
0.7224521856181232,0.6307420965539726,521,31,22.36251401540061,13.621043160321632
0.7287579985623331,0.630735790615543,521,31,22.36251401540061,13.621043160321632
0.7350637484510344,0.6307294847401722,521,31,22.36251401540061,13.621043160321632
0.7413694352857961,0.6307231789278586,521,31,22.36251401540061,13.621043160321632
0.7476750590681155,0.6307168731786005,521,31,22.36251401540061,13.621043160321632
0.7539806197994229,0.6307105674923963,521,31,22.36251401540061,13.621043160321632
0.760286117481087,0.6307042618692446,521,31,22.36251401540061,13.621043160321632
0.7665915521144198,0.6306979563091438,521,31,22.36251401540061,13.621043160321632
0.7728969237006809,0.6306916508120928,521,31,22.36251401540061,13.621043160321632
0.779202232241081,0.63068534537809,521,31,22.36251401540061,13.621043160321632
0.785507477736787,0.6306790400071343,521,31,22.36251401540061,13.621043160321632
0.7918126601889236,0.6306727346992244,521,31,22.36251401540061,13.621043160321632
0.7981177795985783,0.6306664294543592,521,31,22.36251401540061,13.621043160321632
0.8044228359668028,0.6306601242725376,521,31,22.36251401540061,13.621043160321632
0.810727829294616,0.6306538191537585,521,31,22.36251401540061,13.621043160321632
0.8170327595830083,0.6306475140980208,521,31,22.36251401540061,13.621043160321632
0.8233376268329408,0.6306412091053235,521,31,22.36251401540061,13.621043160321632
0.8296424310453502,0.6306349041756656,521,31,22.36251401540061,13.621043160321632
0.8359471722211491,0.6306285993090461,521,31,22.36251401540061,13.621043160321632
0.8422518503612284,0.6306222945054643,521,31,22.36251401540061,13.621043160321632
0.8485564654664594,0.630615989764919,521,31,22.36251401540061,13.621043160321632
0.8548610175376942,0.6306096850874093,521,31,22.36251401540061,13.621043160321632
0.861165506575768,0.6306033804729346,521,31,22.36251401540061,13.621043160321632
0.8674699325815006,0.6305970759214938,521,31,22.36251401540061,13.621043160321632
0.8737742955556969,0.6305907714330862,521,31,22.36251401540061,13.621043160321632
0.880078595499148,0.6305844670077109,521,31,22.36251401540061,13.621043160321632
0.8863828324126335,0.6305781626453671,521,31,22.36251401540061,13.621043160321632
0.8926870062969207,0.6305718583460541,521,31,22.36251401540061,13.621043160321632
0.8989911171527667,0.6305655541097711,521,31,22.36251401540061,13.621043160321632
0.9052951649809187,0.6305592499365172,521,31,22.36251401540061,13.621043160321632
0.9115991497821149,0.6305529458262918,521,31,22.36251401540061,13.621043160321632
0.9179030715570853,0.6305466417790941,521,31,22.36251401540061,13.621043160321632
0.924206930306552,0.6305403377949234,521,31,22.36251401540061,13.621043160321632
0.9305107260312301,0.6305340338737787,521,31,22.36251401540061,13.621043160321632
0.9368144587318279,0.6305277300156596,521,31,22.36251401540061,13.621043160321632
0.9431181284090485,0.6305214262205654,521,31,22.36251401540061,13.621043160321632
0.9494217350635885,0.6305151224884952,521,31,22.36251401540061,13.621043160321632
0.9557252786961399,0.6305088188194483,521,31,22.36251401540061,13.621043160321632
0.9620287593073895,0.6305025152134242,521,31,22.36251401540061,13.621043160321632
0.9683321768980203,0.630496211670422,521,31,22.36251401540061,13.621043160321632
0.9746355314687105,0.6304899081904412,521,31,22.36251401540061,13.621043160321632
0.9809388230201351,0.6304836047734809,521,31,22.36251401540061,13.621043160321632
0.9872420515529655,0.6304773014195405,521,31,22.36251401540061,13.621043160321632
0.9935452170678702,0.6304709981286194,521,31,22.36251401540061,13.621043160321632
0.9998483195655141,0.6304646949007169,521,31,22.36251401540061,13.621043160321632
1.0061513590465598,0.6304583917358323,521,31,22.36251401540061,13.621043160321632
1.0124543355116677,0.630452088633965,521,31,22.36251401540061,13.621043160321632
1.018757248961495,0.6304457855951143,521,31,22.36251401540061,13.621043160321632
1.0250600993966974,0.6304394826192795,521,31,22.36251401540061,13.621043160321632
1.0313628868179288,0.63043317970646,521,31,22.36251401540061,13.621043160321632
1.0376656112258407,0.6304268768566551,521,31,22.36251401540061,13.621043160321632
1.0439682726210835,0.6304205740698641,521,31,22.36251401540061,13.621043160321632
1.0502708710043056,0.6304142713460865,521,31,22.36251401540061,13.621043160321632
1.0565734063761536,0.6304079686853216,521,31,22.36251401540061,13.621043160321632
1.0628758787372745,0.6304016660875685,521,31,22.36251401540061,13.621043160321632
1.0691782880883116,0.630395363552827,521,31,22.36251401540061,13.621043160321632
1.075480634429909,0.6303890610810962,521,31,22.36251401540061,13.621043160321632
1.0817829177627092,0.6303827586723754,521,31,22.36251401540061,13.621043160321632
1.0880851380873533,0.630376456326664,521,31,22.36251401540061,13.621043160321632
1.0943872954044818,0.6303701540439615,521,31,22.36251401540061,13.621043160321632
1.1006893897147347,0.630363851824267,521,31,22.36251401540061,13.621043160321632
1.1069914210187506,0.6303575496675802,521,31,22.36251401540061,13.621043160321632
1.1132933893171684,0.6303512475739,521,31,22.36251401540061,13.621043160321632
1.1195952946106253,0.6303449455432263,521,31,22.36251401540061,13.621043160321632
1.125897136899758,0.6303386435755581,521,31,22.36251401540061,13.621043160321632
1.1321989161852033,0.6303323416708948,521,31,22.36251401540061,13.621043160321632
1.1385006324675968,0.6303260398292359,521,31,22.36251401540061,13.621043160321632
1.1448022857475744,0.6303197380505806,521,31,22.36251401540061,13.621043160321632
1.151103876025771,0.6303134363349284,521,31,22.36251401540061,13.621043160321632
1.1574054033028214,0.6303071346822786,521,31,22.36251401540061,13.621043160321632
1.1637068675793594,0.6303008330926306,521,31,22.36251401540061,13.621043160321632
1.1700082688560194,0.6302945315659837,521,31,22.36251401540061,13.621043160321632
1.1763096071334347,0.6302882301023374,521,31,22.36251401540061,13.621043160321632
1.1826108824122388,0.6302819287016909,521,31,22.36251401540061,13.621043160321632
1.1889120946930645,0.6302756273640435,521,31,22.36251401540061,13.621043160321632
1.1952132439765444,0.6302693260893949,521,31,22.36251401540061,13.621043160321632
1.2015143302633116,0.6302630248777442,521,31,22.36251401540061,13.621043160321632
1.207815353553998,0.6302567237290908,521,31,22.36251401540061,13.621043160321632
1.2141163138492361,0.6302504226434342,521,31,22.36251401540061,13.621043160321632
1.2204172111496574,0.6302441216207736,521,31,22.36251401540061,13.621043160321632
1.226718045455894,0.6302378206611086,521,31,22.36251401540061,13.621043160321632
1.2330188167685772,0.6302315197644381,521,31,22.36251401540061,13.621043160321632
1.239319525088339,0.630225218930762,521,31,22.36251401540061,13.621043160321632
1.2456201704158105,0.6302189181600795,521,31,22.36251401540061,13.621043160321632
1.2519207527516227,0.6302126174523898,521,31,22.36251401540061,13.621043160321632
1.2582212720964068,0.6302063168076923,521,31,22.36251401540061,13.621043160321632
1.264521728450794,0.6302000162259866,521,31,22.36251401540061,13.621043160321632
1.2708221218154145,0.6301937157072719,521,31,22.36251401540061,13.621043160321632
1.2771224521908997,0.6301874152515476,521,31,22.36251401540061,13.621043160321632
1.2834227195778805,0.630181114858813,521,31,22.36251401540061,13.621043160321632
1.289722923976987,0.6301748145290675,521,31,22.36251401540061,13.621043160321632
1.29602306538885,0.6301685142623107,521,31,22.36251401540061,13.621043160321632
1.3023231438140999,0.6301622140585416,521,31,22.36251401540061,13.621043160321632
1.3086231592533673,0.6301559139177597,521,31,22.36251401540061,13.621043160321632
1.314923111707282,0.6301496138399645,521,31,22.36251401540061,13.621043160321632
1.3212230011764752,0.6301433138251552,521,31,22.36251401540061,13.621043160321632
1.3275228276615767,0.6301370138733313,521,31,22.36251401540061,13.621043160321632
1.3338225911632164,0.6301307139844922,521,31,22.36251401540061,13.621043160321632
1.3401222916820246,0.6301244141586371,521,31,22.36251401540061,13.621043160321632
1.346421929218632,0.6301181143957654,521,31,22.36251401540061,13.621043160321632
1.3527215037736675,0.6301118146958766,521,31,22.36251401540061,13.621043160321632
1.359021015347762,0.63010551505897,521,31,22.36251401540061,13.621043160321632
1.3653204639415455,0.6300992154850449,521,31,22.36251401540061,13.621043160321632
1.3716198495556473,0.6300929159741008,521,31,22.36251401540061,13.621043160321632
1.3779191721906983,0.630086616526137,521,31,22.36251401540061,13.621043160321632
1.3842184318473278,0.6300803171411528,521,31,22.36251401540061,13.621043160321632
1.3905176285261656,0.6300740178191476,521,31,22.36251401540061,13.621043160321632
1.396816762227842,0.630067718560121,521,31,22.36251401540061,13.621043160321632
1.403115832952987,0.6300614193640721,521,31,22.36251401540061,13.621043160321632
1.4094148407022296,0.6300551202310003,521,31,22.36251401540061,13.621043160321632
1.4157137854761996,0.6300488211609051,521,31,22.36251401540061,13.621043160321632
1.4220126672755282,0.6300425221537858,521,31,22.36251401540061,13.621043160321632
1.4283114861008435,0.6300362232096417,521,31,22.36251401540061,13.621043160321632
1.4346102419527753,0.6300299243284723,521,31,22.36251401540061,13.621043160321632
1.4409089348319546,0.6300236255102768,521,31,22.36251401540061,13.621043160321632
1.4472075647390104,0.6300173267550548,521,31,22.36251401540061,13.621043160321632
1.4535061316745723,0.6300110280628055,521,31,22.36251401540061,13.621043160321632
1.45980463563927,0.6300047294335284,521,31,22.36251401540061,13.621043160321632
1.4661030766337328,0.6299984308672226,521,31,22.36251401540061,13.621043160321632
1.4724014546585913,0.6299921323638878,521,31,22.36251401540061,13.621043160321632
1.478699769714474,0.6299858339235231,521,31,22.36251401540061,13.621043160321632
1.4849980218020111,0.6299795355461282,521,31,22.36251401540061,13.621043160321632
1.4912962109218324,0.6299732372317022,521,31,22.36251401540061,13.621043160321632
1.4975943370745677,0.6299669389802445,521,31,22.36251401540061,13.621043160321632
1.5038924002608456,0.6299606407917545,521,31,22.36251401540061,13.621043160321632
1.510190400481296,0.6299543426662315,521,31,22.36251401540061,13.621043160321632
