Vout,Iout,Irradiance,Temperature,MaxVoltage,MaxPower
0.005871183546312054,1.1742479999999997,1041,-11,19.286831664668966,22.275984818053352
0.017613442075195534,1.1742479999999997,1041,-11,19.286831664668966,22.275984818053352
0.02935546188690836,1.1742420113916534,1041,-11,19.286831664668966,22.275984818053352
0.04109720033470703,1.1742302691331246,1041,-11,19.286831664668966,22.275984818053352
0.052838643480895925,1.1742185271139116,1041,-11,19.286831664668966,22.275984818053352
0.06457980501672247,1.174206785376638,1041,-11,19.286831664668966,22.275984818053352
0.07632069758048844,1.1741950439346662,1041,-11,19.286831664668966,22.275984818053352
0.08806133283830528,1.1741833027743045,1041,-11,19.286831664668966,22.275984818053352
0.09980172155876574,1.174171561882915,1041,-11,19.286831664668966,22.275984818053352
0.11154187368200037,1.1741598212488311,1041,-11,19.286831664668966,22.275984818053352
0.12328179838342078,1.1741480808612847,1041,-11,19.286831664668966,22.275984818053352
0.13502150413255823,1.1741363407103356,1041,-11,19.286831664668966,22.275984818053352
0.14676099874737525,1.1741246007868082,1041,-11,19.286831664668966,22.275984818053352
0.15850028944439823,1.1741128610822331,1041,-11,19.286831664668966,22.275984818053352
0.17023938288499313,1.1741011215887922,1041,-11,19.286831664668966,22.275984818053352
0.18197828521807993,1.1740893822992693,1041,-11,19.286831664668966,22.275984818053352
0.19371700211956167,1.1740776432070026,1041,-11,19.286831664668966,22.275984818053352
0.2054555388287184,1.1740659043058435,1041,-11,19.286831664668966,22.275984818053352
0.21719390018180218,1.1740541655901158,1041,-11,19.286831664668966,22.275984818053352
0.2289320906430465,1.1740424270545806,1041,-11,19.286831664668966,22.275984818053352
0.24067011433329003,1.1740306886944014,1041,-11,19.286831664668966,22.275984818053352
0.2524079750563977,1.174018950505114,1041,-11,19.286831664668966,22.275984818053352
0.26414567632364955,1.1740072124825975,1041,-11,19.286831664668966,22.275984818053352
0.2758832213762523,1.1739954746230483,1041,-11,19.286831664668966,22.275984818053352
0.2876206132061196,1.1739837369229549,1041,-11,19.286831664668966,22.275984818053352
0.29935785457505265,1.173971999379076,1041,-11,19.286831664668966,22.275984818053352
0.31109494803244553,1.17396026198842,1041,-11,19.286831664668966,22.275984818053352
0.32283189593162853,1.1739485247482246,1041,-11,19.286831664668966,22.275984818053352
0.3345687004449528,1.173936787655941,1041,-11,19.286831664668966,22.275984818053352
0.3463053635777159,1.1739250507092156,1041,-11,19.286831664668966,22.275984818053352
0.3580418871810148,1.173913313905876,1041,-11,19.286831664668966,22.275984818053352
0.3697782729636107,1.173901577243917,1041,-11,19.286831664668966,22.275984818053352
0.38151452250287987,1.1738898407214873,1041,-11,19.286831664668966,22.275984818053352
0.3932506372549232,1.1738781043368784,1041,-11,19.286831664668966,22.275984818053352
0.40498661856389706,1.1738663680885129,1041,-11,19.286831664668966,22.275984818053352
0.4167224676706267,1.1738546319749343,1041,-11,19.286831664668966,22.275984818053352
0.4284581857205564,1.173842895994799,1041,-11,19.286831664668966,22.275984818053352
0.44019377377108854,1.1738311601468658,1041,-11,19.286831664668966,22.275984818053352
0.4519292327983575,1.1738194244299895,1041,-11,19.286831664668966,22.275984818053352
0.46366456370348264,1.1738076888431126,1041,-11,19.286831664668966,22.275984818053352
0.47539976731833994,1.1737959533852589,1041,-11,19.286831664668966,22.275984818053352
0.48713484441088983,1.1737842180555274,1041,-11,19.286831664668966,22.275984818053352
0.49886979569009476,1.173772482853086,1041,-11,19.286831664668966,22.275984818053352
0.5106046218104591,1.173760747777167,1041,-11,19.286831664668966,22.275984818053352
0.522339323376218,1.1737490128270613,1041,-11,19.286831664668966,22.275984818053352
0.5340739009452075,1.1737372780021145,1041,-11,19.286831664668966,22.275984818053352
0.5458083550324315,1.1737255433017222,1041,-11,19.286831664668966,22.275984818053352
0.5575426861133601,1.1737138087253267,1041,-11,19.286831664668966,22.275984818053352
0.5692768946269696,1.173702074272413,1041,-11,19.286831664668966,22.275984818053352
0.5810109809785513,1.1736903399425056,1041,-11,19.286831664668966,22.275984818053352
0.5927449455423026,1.1736786057351654,1041,-11,19.286831664668966,22.275984818053352
0.6044787886637203,1.1736668716499872,1041,-11,19.286831664668966,22.275984818053352
0.6162125106618082,1.173655137686597,1041,-11,19.286831664668966,22.275984818053352
0.6279461118311155,1.1736434038446488,1041,-11,19.286831664668966,22.275984818053352
0.6396795924436186,1.173631670123824,1041,-11,19.286831664668966,22.275984818053352
0.6514129527504577,1.1736199365238282,1041,-11,19.286831664668966,22.275984818053352
0.6631461929835409,1.173608203044389,1041,-11,19.286831664668966,22.275984818053352
0.674879313357022,1.1735964696852557,1041,-11,19.286831664668966,22.275984818053352
0.6866123140686685,1.173584736446196,1041,-11,19.286831664668966,22.275984818053352
0.6983451953011212,1.1735730033269958,1041,-11,19.286831664668966,22.275984818053352
0.7100779572230583,1.1735612703274574,1041,-11,19.286831664668966,22.275984818053352
0.7218105999902706,1.1735495374473983,1041,-11,19.286831664668966,22.275984818053352
0.7335431237466519,1.1735378046866496,1041,-11,19.286831664668966,22.275984818053352
0.7452755286251143,1.1735260720450558,1041,-11,19.286831664668966,22.275984818053352
0.7570078147484343,1.1735143395224725,1041,-11,19.286831664668966,22.275984818053352
0.768739982230032,1.1735026071187675,1041,-11,19.286831664668966,22.275984818053352
0.7804720311746908,1.1734908748338173,1041,-11,19.286831664668966,22.275984818053352
0.7922039616792218,1.173479142667509,1041,-11,19.286831664668966,22.275984818053352
0.8039357738330782,1.1734674106197376,1041,-11,19.286831664668966,22.275984818053352
0.8156674677189201,1.1734556786904062,1041,-11,19.286831664668966,22.275984818053352
0.8273990434131383,1.1734439468794255,1041,-11,19.286831664668966,22.275984818053352
0.839130500986336,1.173432215186713,1041,-11,19.286831664668966,22.275984818053352
0.8508618405037741,1.173420483612192,1041,-11,19.286831664668966,22.275984818053352
0.8625930620257827,1.1734087521557919,1041,-11,19.286831664668966,22.275984818053352
0.8743241656081401,1.1733970208174476,1041,-11,19.286831664668966,22.275984818053352
0.8860551513024231,1.1733852895970986,1041,-11,19.286831664668966,22.275984818053352
0.8977860191563307,1.1733735584946896,1041,-11,19.286831664668966,22.275984818053352
0.9095167692139816,1.1733618275101683,1041,-11,19.286831664668966,22.275984818053352
0.92124740151619,1.1733500966434876,1041,-11,19.286831664668966,22.275984818053352
0.9329779161007206,1.173338365894603,1041,-11,19.286831664668966,22.275984818053352
0.944708313002522,1.173326635263474,1041,-11,19.286831664668966,22.275984818053352
0.9564385922539447,1.1733149047500624,1041,-11,19.286831664668966,22.275984818053352
0.9681687538849398,1.1733031743543336,1041,-11,19.286831664668966,22.275984818053352
0.979898797923244,1.1732914440762554,1041,-11,19.286831664668966,22.275984818053352
0.9916287243945506,1.1732797139157973,1041,-11,19.286831664668966,22.275984818053352
1.003358533322666,1.173267983872932,1041,-11,19.286831664668966,22.275984818053352
1.0150882247296549,1.1732562539476339,1041,-11,19.286831664668966,22.275984818053352
1.0268177986359746,1.1732445241398788,1041,-11,19.286831664668966,22.275984818053352
1.0385472550605988,1.1732327944496448,1041,-11,19.286831664668966,22.275984818053352
1.050276594021131,1.1732210648769112,1041,-11,19.286831664668966,22.275984818053352
1.0620058155339114,1.1732093354216597,1041,-11,19.286831664668966,22.275984818053352
1.0737349196141122,1.173197606083872,1041,-11,19.286831664668966,22.275984818053352
1.0854639062758287,1.1731858768635324,1041,-11,19.286831664668966,22.275984818053352
1.0971927755321622,1.173174147760625,1041,-11,19.286831664668966,22.275984818053352
1.1089215273952955,1.1731624187751362,1041,-11,19.286831664668966,22.275984818053352
1.1206501618765654,1.1731506899070527,1041,-11,19.286831664668966,22.275984818053352
1.1323786789865251,1.1731389611563625,1041,-11,19.286831664668966,22.275984818053352
1.1441070787350074,1.1731272325230542,1041,-11,19.286831664668966,22.275984818053352
1.1558353611311778,1.173115504007117,1041,-11,19.286831664668966,22.275984818053352
1.167563526183587,1.1731037756085414,1041,-11,19.286831664668966,22.275984818053352
1.179291573900218,1.173092047327318,1041,-11,19.286831664668966,22.275984818053352
1.1910195042885305,1.1730803191634387,1041,-11,19.286831664668966,22.275984818053352
1.2027473173554992,1.1730685911168948,1041,-11,19.286831664668966,22.275984818053352
1.2144750131076527,1.1730568631876792,1041,-11,19.286831664668966,22.275984818053352
1.2262025915511083,1.1730451353757851,1041,-11,19.286831664668966,22.275984818053352
1.2379300526916013,1.1730334076812057,1041,-11,19.286831664668966,22.275984818053352
1.2496573965345177,1.173021680103935,1041,-11,19.286831664668966,22.275984818053352
1.2613846230849182,1.1730099526439675,1041,-11,19.286831664668966,22.275984818053352
1.2731117323475636,1.1729982253012972,1041,-11,19.286831664668966,22.275984818053352
1.2848387243269401,1.1729864980759195,1041,-11,19.286831664668966,22.275984818053352
1.2965655990272782,1.1729747709678295,1041,-11,19.286831664668966,22.275984818053352
1.308292356452573,1.172963043977023,1041,-11,19.286831664668966,22.275984818053352
1.3200189966066025,1.1729513171034953,1041,-11,19.286831664668966,22.275984818053352
1.331745519492944,1.1729395903472428,1041,-11,19.286831664668966,22.275984818053352
1.34347192511499,1.1729278637082614,1041,-11,19.286831664668966,22.275984818053352
1.355198213475962,1.1729161371865477,1041,-11,19.286831664668966,22.275984818053352
1.366924384578924,1.1729044107820983,1041,-11,19.286831664668966,22.275984818053352
1.3786504384267944,1.1728926844949101,1041,-11,19.286831664668966,22.275984818053352
1.3903763750223563,1.1728809583249797,1041,-11,19.286831664668966,22.275984818053352
1.4021021943682703,1.1728692322723044,1041,-11,19.286831664668966,22.275984818053352
1.4138278964670816,1.1728575063368816,1041,-11,19.286831664668966,22.275984818053352
1.42555348132123,1.1728457805187082,1041,-11,19.286831664668966,22.275984818053352
1.4372789489330575,1.172834054817782,1041,-11,19.286831664668966,22.275984818053352
1.4490042993048171,1.1728223292341005,1041,-11,19.286831664668966,22.275984818053352
1.4607295324386762,1.172810603767661,1041,-11,19.286831664668966,22.275984818053352
1.472454648336728,1.172798878418462,1041,-11,19.286831664668966,22.275984818053352
1.4841796470009943,1.1727871531865006,1041,-11,19.286831664668966,22.275984818053352
1.4959045284334305,1.1727754280717753,1041,-11,19.286831664668966,22.275984818053352
1.507629292635933,1.1727637030742835,1041,-11,19.286831664668966,22.275984818053352
1.5193539396103408,1.1727519781940234,1041,-11,19.286831664668966,22.275984818053352
1.5310784693584436,1.1727402534309934,1041,-11,19.286831664668966,22.275984818053352
1.5428028818819817,1.1727285287851916,1041,-11,19.286831664668966,22.275984818053352
1.5545271771826528,1.1727168042566158,1041,-11,19.286831664668966,22.275984818053352
1.5662513552621145,1.172705079845265,1041,-11,19.286831664668966,22.275984818053352
1.5779754161219854,1.1726933555511367,1041,-11,19.286831664668966,22.275984818053352
1.589699359763851,1.1726816313742296,1041,-11,19.286831664668966,22.275984818053352
1.601423186189265,1.1726699073145421,1041,-11,19.286831664668966,22.275984818053352
1.6131468953997503,1.1726581833720728,1041,-11,19.286831664668966,22.275984818053352
1.6248704873968045,1.1726464595468198,1041,-11,19.286831664668966,22.275984818053352
1.6365939621819001,1.1726347358387816,1041,-11,19.286831664668966,22.275984818053352
1.6483173197564847,1.172623012247957,1041,-11,19.286831664668966,22.275984818053352
1.6600405601219859,1.1726112887743443,1041,-11,19.286831664668966,22.275984818053352
1.6717636832798117,1.172599565417942,1041,-11,19.286831664668966,22.275984818053352
1.6834866892313514,1.1725878421787488,1041,-11,19.286831664668966,22.275984818053352
1.695209577977978,1.1725761190567634,1041,-11,19.286831664668966,22.275984818053352
1.7069323495210493,1.1725643960519843,1041,-11,19.286831664668966,22.275984818053352
1.7186550038619077,1.1725526731644098,1041,-11,19.286831664668966,22.275984818053352
1.7303775410018831,1.1725409503940392,1041,-11,19.286831664668966,22.275984818053352
1.7420999609422931,1.1725292277408705,1041,-11,19.286831664668966,22.275984818053352
1.7538222636844443,1.1725175052049028,1041,-11,19.286831664668966,22.275984818053352
1.7655444492296328,1.1725057827861347,1041,-11,19.286831664668966,22.275984818053352
1.7772665175791449,1.1724940604845648,1041,-11,19.286831664668966,22.275984818053352
1.788988468734258,1.1724823383001919,1041,-11,19.286831664668966,22.275984818053352
1.8007103026962423,1.1724706162330145,1041,-11,19.286831664668966,22.275984818053352
1.8124320194663595,1.1724588942830316,1041,-11,19.286831664668966,22.275984818053352
1.8241536190458638,1.1724471724502419,1041,-11,19.286831664668966,22.275984818053352
1.8358751014360049,1.172435450734644,1041,-11,19.286831664668966,22.275984818053352
1.8475964666380245,1.1724237291362367,1041,-11,19.286831664668966,22.275984818053352
1.8593177146531596,1.1724120076550186,1041,-11,19.286831664668966,22.275984818053352
1.8710388454826432,1.1724002862909888,1041,-11,19.286831664668966,22.275984818053352
1.8827598591277024,1.172388565044146,1041,-11,19.286831664668966,22.275984818053352
1.8944807555895598,1.1723768439144884,1041,-11,19.286831664668966,22.275984818053352
1.9062015348694348,1.1723651229020156,1041,-11,19.286831664668966,22.275984818053352
1.9179221969685427,1.1723534020067259,1041,-11,19.286831664668966,22.275984818053352
1.9296427418880964,1.172341681228618,1041,-11,19.286831664668966,22.275984818053352
1.9413631696293043,1.172329960567691,1041,-11,19.286831664668966,22.275984818053352
1.9530834801933716,1.1723182400239436,1041,-11,19.286831664668966,22.275984818053352
1.9648036735815029,1.1723065195973743,1041,-11,19.286831664668966,22.275984818053352
1.9765237497948984,1.1722947992879824,1041,-11,19.286831664668966,22.275984818053352
1.988243708834757,1.1722830790957663,1041,-11,19.286831664668966,22.275984818053352
1.9999635507022755,1.172271359020725,1041,-11,19.286831664668966,22.275984818053352
2.011683275398648,1.172259639062857,1041,-11,19.286831664668966,22.275984818053352
2.0234028829250676,1.1722479192221615,1041,-11,19.286831664668966,22.275984818053352
2.035122373282725,1.1722361994986372,1041,-11,19.286831664668966,22.275984818053352
2.046841746472811,1.1722244798922827,1041,-11,19.286831664668966,22.275984818053352
2.058561002496512,1.172212760403097,1041,-11,19.286831664668966,22.275984818053352
2.0702801413550165,1.172201041031079,1041,-11,19.286831664668966,22.275984818053352
2.081999163049509,1.1721893217762271,1041,-11,19.286831664668966,22.275984818053352
2.0937180675811757,1.1721776026385406,1041,-11,19.286831664668966,22.275984818053352
2.105436854951198,1.172165883618018,1041,-11,19.286831664668966,22.275984818053352
2.11715552516076,1.1721541647146583,1041,-11,19.286831664668966,22.275984818053352
2.128874078211043,1.1721424459284602,1041,-11,19.286831664668966,22.275984818053352
2.140592514103228,1.1721307272594226,1041,-11,19.286831664668966,22.275984818053352
2.1523108328384937,1.1721190087075442,1041,-11,19.286831664668966,22.275984818053352
2.1640290344180224,1.1721072902728238,1041,-11,19.286831664668966,22.275984818053352
2.1757471188429913,1.1720955719552604,1041,-11,19.286831664668966,22.275984818053352
2.1874650861145777,1.1720838537548526,1041,-11,19.286831664668966,22.275984818053352
2.1991829362339614,1.1720721356715995,1041,-11,19.286831664668966,22.275984818053352
2.210900669202318,1.1720604177054998,1041,-11,19.286831664668966,22.275984818053352
2.222618285020825,1.1720486998565522,1041,-11,19.286831664668966,22.275984818053352
2.2343357836906588,1.1720369821247556,1041,-11,19.286831664668966,22.275984818053352
2.2460531652129943,1.172025264510109,1041,-11,19.286831664668966,22.275984818053352
2.2577704295890086,1.172013547012611,1041,-11,19.286831664668966,22.275984818053352
2.2694875768198757,1.1720018296322603,1041,-11,19.286831664668966,22.275984818053352
2.2812046069067704,1.171990112369056,1041,-11,19.286831664668966,22.275984818053352
2.2929215198508675,1.171978395222997,1041,-11,19.286831664668966,22.275984818053352
2.3046383156533405,1.1719666781940816,1041,-11,19.286831664668966,22.275984818053352
2.316354994315365,1.1719549612823092,1041,-11,19.286831664668966,22.275984818053352
2.3280715558381138,1.1719432444876785,1041,-11,19.286831664668966,22.275984818053352
2.339788000222761,1.1719315278101883,1041,-11,19.286831664668966,22.275984818053352
2.3515043274704794,1.1719198112498372,1041,-11,19.286831664668966,22.275984818053352
2.363220537582442,1.1719080948066243,1041,-11,19.286831664668966,22.275984818053352
2.374936630559823,1.171896378480548,1041,-11,19.286831664668966,22.275984818053352
2.386652606403794,1.171884662271608,1041,-11,19.286831664668966,22.275984818053352
2.3983684651155284,1.171872946179802,1041,-11,19.286831664668966,22.275984818053352
2.4100842066961987,1.1718612302051297,1041,-11,19.286831664668966,22.275984818053352
2.421799831146977,1.1718495143475895,1041,-11,19.286831664668966,22.275984818053352
2.433515338469036,1.1718377986071806,1041,-11,19.286831664668966,22.275984818053352
2.4452307286635477,1.1718260829839013,1041,-11,19.286831664668966,22.275984818053352
2.456946001731684,1.1718143674777508,1041,-11,19.286831664668966,22.275984818053352
2.4686611576746174,1.171802652088728,1041,-11,19.286831664668966,22.275984818053352
2.4803761964935194,1.1717909368168313,1041,-11,19.286831664668966,22.275984818053352
2.4920911181895624,1.17177922166206,1041,-11,19.286831664668966,22.275984818053352
2.5038059227639176,1.1717675066244124,1041,-11,19.286831664668966,22.275984818053352
2.5155206102177563,1.171755791703888,1041,-11,19.286831664668966,22.275984818053352
2.5272351805522515,1.1717440769004852,1041,-11,19.286831664668966,22.275984818053352
2.538949633768573,1.1717323622142028,1041,-11,19.286831664668966,22.275984818053352
2.5506639698678937,1.1717206476450397,1041,-11,19.286831664668966,22.275984818053352
2.562378188851384,1.1717089331929949,1041,-11,19.286831664668966,22.275984818053352
2.5740922907202166,1.171697218858067,1041,-11,19.286831664668966,22.275984818053352
2.5858062754755617,1.171685504640255,1041,-11,19.286831664668966,22.275984818053352
2.5975201431185915,1.1716737905395576,1041,-11,19.286831664668966,22.275984818053352
2.6092338936504755,1.1716620765559738,1041,-11,19.286831664668966,22.275984818053352
2.6209475270723868,1.171650362689502,1041,-11,19.286831664668966,22.275984818053352
2.632661043385496,1.1716386489401416,1041,-11,19.286831664668966,22.275984818053352
2.6443744425909737,1.171626935307891,1041,-11,19.286831664668966,22.275984818053352
2.656087724689992,1.1716152217927494,1041,-11,19.286831664668966,22.275984818053352
2.6678008896837206,1.1716035083947152,1041,-11,19.286831664668966,22.275984818053352
2.679513937573331,1.1715917951137875,1041,-11,19.286831664668966,22.275984818053352
2.691226868359995,1.171580081949965,1041,-11,19.286831664668966,22.275984818053352
2.702939682044883,1.171568368903247,1041,-11,19.286831664668966,22.275984818053352
2.7146523786291654,1.1715566559736315,1041,-11,19.286831664668966,22.275984818053352
