Vout,Iout,Irradiance,Temperature,MaxVoltage,MaxPower
0.0023146977432909298,0.46294399999999997,391,17,21.32747308169078,9.418751978220532
0.00694405042892074,0.46294399999999997,391,17,21.32747308169078,9.418751978220532
0.011573309000971602,0.4629416390078567,391,17,21.32747308169078,9.418751978220532
0.016202456646083805,0.46293700965517104,391,17,21.32747308169078,9.418751978220532
0.02083148786935969,0.4629323803968351,391,17,21.32747308169078,9.418751978220532
0.025460408068535403,0.4629277512496529,391,17,21.32747308169078,9.418751978220532
0.030089222226226182,0.4629231222188926,391,17,21.32747308169078,9.418751978220532
0.03471793494176392,0.4629184932991563,391,17,21.32747308169078,9.418751978220532
0.03934655046063629,0.4629138644854615,391,17,21.32747308169078,9.418751978220532
0.043975072701712054,0.46290923577320886,391,17,21.32747308169078,9.418751978220532
0.04860350528237165,0.4629046071581529,391,17,21.32747308169078,9.418751978220532
0.05323185154170418,0.46289997863637466,391,17,21.32747308169078,9.418751978220532
0.05786011456191954,0.4628953502042569,391,17,21.32747308169078,9.418751978220532
0.06248829718811318,0.4628907218584604,391,17,21.32747308169078,9.418751978220532
0.06711640204651,0.46288609359590305,391,17,21.32747308169078,9.418751978220532
0.07174443156130463,0.46288146541373965,391,17,21.32747308169078,9.418751978220532
0.07637238797020594,0.4628768373093441,391,17,21.32747308169078,9.418751978220532
0.08100027333878554,0.4628722092802921,391,17,21.32747308169078,9.418751978220532
0.08562808957372231,0.462867581324346,391,17,21.32747308169078,9.418751978220532
0.09025583843502784,0.46286295343944023,391,17,21.32747308169078,9.418751978220532
0.09488352154733128,0.46285832562366813,391,17,21.32747308169078,9.418751978220532
0.09951114041029581,0.4628536978752696,391,17,21.32747308169078,9.418751978220532
0.10413869640823377,0.46284907019262006,391,17,21.32747308169078,9.418751978220532
0.10876619081898187,0.46284444257421986,391,17,21.32747308169078,9.418751978220532
0.11339362482209371,0.4628398150186847,391,17,21.32747308169078,9.418751978220532
0.11802099950640173,0.46283518752473674,391,17,21.32747308169078,9.418751978220532
0.12264831587699747,0.4628305600911964,391,17,21.32747308169078,9.418751978220532
0.12727557486167476,0.4628259327169748,391,17,21.32747308169078,9.418751978220532
0.13190277731687705,0.462821305401067,391,17,21.32747308169078,9.418751978220532
0.1365299240331873,0.462816678142545,391,17,21.32747308169078,9.418751978220532
0.14115701574039538,0.46281205094055256,391,17,21.32747308169078,9.418751978220532
0.1457840531121755,0.46280742379429896,391,17,21.32747308169078,9.418751978220532
0.1504110367704039,0.46280279670305446,391,17,21.32747308169078,9.418751978220532
0.15503796728914437,0.4627981696661454,391,17,21.32747308169078,9.418751978220532
0.15966484519832674,0.46279354268294987,391,17,21.32747308169078,9.418751978220532
0.16429167098714292,0.4627889157528939,391,17,21.32747308169078,9.418751978220532
0.1689184451071812,0.46278428887544737,391,17,21.32747308169078,9.418751978220532
0.1735451679753194,0.4627796620501212,391,17,21.32747308169078,9.418751978220532
0.1781718399763959,0.4627750352764639,391,17,21.32747308169078,9.418751978220532
0.18279846146567433,0.46277040855405843,391,17,21.32747308169078,9.418751978220532
0.1874250327711196,0.46276578188252004,391,17,21.32747308169078,9.418751978220532
0.19205155419549794,0.4627611552614934,391,17,21.32747308169078,9.418751978220532
0.1966780260183158,0.46275652869065065,391,17,21.32747308169078,9.418751978220532
0.20130444849760967,0.4627519021696889,391,17,21.32747308169078,9.418751978220532
0.20593082187159778,0.4627472756983288,391,17,21.32747308169078,9.418751978220532
0.2105571463602051,0.46274264927631215,391,17,21.32747308169078,9.418751978220532
0.21518342216647082,0.4627380229034008,391,17,21.32747308169078,9.418751978220532
0.21980964947784748,0.46273339657937484,391,17,21.32747308169078,9.418751978220532
0.2244358284674003,0.4627287703040312,391,17,21.32747308169078,9.418751978220532
0.22906195929491419,0.4627241440771825,391,17,21.32747308169078,9.418751978220532
0.2336880421079157,0.46271951789865556,391,17,21.32747308169078,9.418751978220532
0.23831407704261573,0.46271489176829067,391,17,21.32747308169078,9.418751978220532
0.24294006422478065,0.46271026568594026,391,17,21.32747308169078,9.418751978220532
0.2475660037705357,0.46270563965146816,391,17,21.32747308169078,9.418751978220532
0.25219189578710677,0.46270101366474864,391,17,21.32747308169078,9.418751978220532
0.25681774037350547,0.46269638772566546,391,17,21.32747308169078,9.418751978220532
0.26144353762116046,0.4626917618341115,391,17,21.32747308169078,9.418751978220532
0.2660692876145016,0.4626871359899877,391,17,21.32747308169078,9.418751978220532
0.27069499043149803,0.4626825101932026,391,17,21.32747308169078,9.418751978220532
0.2753206461441554,0.46267788444367186,391,17,21.32747308169078,9.418751978220532
0.27994625481897495,0.46267325874131743,391,17,21.32747308169078,9.418751978220532
0.2845718165173763,0.46266863308606737,391,17,21.32747308169078,9.418751978220532
0.2891973312960891,0.46266400747785513,391,17,21.32747308169078,9.418751978220532
0.2938227992075141,0.46265938191661926,391,17,21.32747308169078,9.418751978220532
0.2984482203000553,0.46265475640230314,391,17,21.32747308169078,9.418751978220532
0.30307359461842814,0.46265013093485424,391,17,21.32747308169078,9.418751978220532
0.3076989222039434,0.4626455055142243,391,17,21.32747308169078,9.418751978220532
0.3123242030947685,0.46264088014036847,391,17,21.32747308169078,9.418751978220532
0.3169494373261701,0.4626362548132455,391,17,21.32747308169078,9.418751978220532
0.3215746249307368,0.46263162953281717,391,17,21.32747308169078,9.418751978220532
0.3261997659385853,0.4626270042990483,391,17,21.32747308169078,9.418751978220532
0.3308248603775508,0.4626223791119063,391,17,21.32747308169078,9.418751978220532
0.33544990827336235,0.46261775397136096,391,17,21.32747308169078,9.418751978220532
0.34007490964980475,0.4626131288773845,391,17,21.32747308169078,9.418751978220532
0.3446998645288686,0.4626085038299512,391,17,21.32747308169078,9.418751978220532
0.34932477293088776,0.46260387882903725,391,17,21.32747308169078,9.418751978220532
0.3539496348746674,0.4625992538746207,391,17,21.32747308169078,9.418751978220532
0.3585744503776013,0.4625946289666812,391,17,21.32747308169078,9.418751978220532
0.3631992194557803,0.4625900041051999,391,17,21.32747308169078,9.418751978220532
0.36782394212409314,0.46258537929015947,391,17,21.32747308169078,9.418751978220532
0.37244861839631815,0.4625807545215438,391,17,21.32747308169078,9.418751978220532
0.3770732482852093,0.46257612979933793,391,17,21.32747308169078,9.418751978220532
0.38169783180257477,0.4625715051235282,391,17,21.32747308169078,9.418751978220532
0.3863223689593498,0.4625668804941018,391,17,21.32747308169078,9.418751978220532
0.39094685976566385,0.4625622559110469,391,17,21.32747308169078,9.418751978220532
0.39557130423090237,0.4625576313743526,391,17,21.32747308169078,9.418751978220532
0.40019570236376445,0.4625530068840087,391,17,21.32747308169078,9.418751978220532
0.4048200541723154,0.4625483824400059,391,17,21.32747308169078,9.418751978220532
0.4094443596640353,0.4625437580423355,391,17,21.32747308169078,9.418751978220532
0.41406861884586466,0.4625391336909894,391,17,21.32747308169078,9.418751978220532
0.41869283172424515,0.46253450938596014,391,17,21.32747308169078,9.418751978220532
0.42331699830515856,0.46252988512724075,391,17,21.32747308169078,9.418751978220532
0.42794111859416195,0.46252526091482477,391,17,21.32747308169078,9.418751978220532
0.43256519259642057,0.4625206367487063,391,17,21.32747308169078,9.418751978220532
0.43718922031673724,0.4625160126288797,391,17,21.32747308169078,9.418751978220532
0.4418132017595814,0.46251138855533985,391,17,21.32747308169078,9.418751978220532
0.44643713692911396,0.462506764528082,391,17,21.32747308169078,9.418751978220532
0.45106102582921115,0.46250214054710154,391,17,21.32747308169078,9.418751978220532
0.45568486846348655,0.4624975166123944,391,17,21.32747308169078,9.418751978220532
0.4603086648353114,0.4624928927239567,391,17,21.32747308169078,9.418751978220532
0.4649324149478329,0.4624882688817848,391,17,21.32747308169078,9.418751978220532
0.4695561188039918,0.46248364508587536,391,17,21.32747308169078,9.418751978220532
0.474179776406538,0.46247902133622526,391,17,21.32747308169078,9.418751978220532
0.4788033877580456,0.4624743976328315,391,17,21.32747308169078,9.418751978220532
0.4834269528609259,0.4624697739756913,391,17,21.32747308169078,9.418751978220532
0.4880504717174405,0.4624651503648022,391,17,21.32747308169078,9.418751978220532
0.4926739443297124,0.46246052680016164,391,17,21.32747308169078,9.418751978220532
0.4972973706997369,0.4624559032817675,391,17,21.32747308169078,9.418751978220532
0.501920750829391,0.4624512798096176,391,17,21.32747308169078,9.418751978220532
0.5065440847204435,0.4624466563837099,391,17,21.32747308169078,9.418751978220532
0.511167372374562,0.4624420330040426,391,17,21.32747308169078,9.418751978220532
0.5157906137933215,0.46243740967061386,391,17,21.32747308169078,9.418751978220532
0.5204138089782118,0.4624327863834221,391,17,21.32747308169078,9.418751978220532
0.525036957930643,0.46242816314246565,391,17,21.32747308169078,9.418751978220532
0.5296600606519528,0.4624235399477431,391,17,21.32747308169078,9.418751978220532
0.5342831171434111,0.462418916799253,391,17,21.32747308169078,9.418751978220532
0.5389061274062257,0.462414293696994,391,17,21.32747308169078,9.418751978220532
0.5435290914415474,0.4624096706409649,391,17,21.32747308169078,9.418751978220532
0.5481520092504736,0.46240504763116436,391,17,21.32747308169078,9.418751978220532
0.5527748808340529,0.46240042466759135,391,17,21.32747308169078,9.418751978220532
0.5573977061932889,0.46239580175024475,391,17,21.32747308169078,9.418751978220532
0.5620204853291434,0.46239117887912345,391,17,21.32747308169078,9.418751978220532
0.5666432182425398,0.4623865560542265,391,17,21.32747308169078,9.418751978220532
0.5712659049343662,0.46238193327555294,391,17,21.32747308169078,9.418751978220532
0.5758885454054774,0.4623773105431018,391,17,21.32747308169078,9.418751978220532
0.5805111396566984,0.4623726878568723,391,17,21.32747308169078,9.418751978220532
0.5851336876888262,0.4623680652168634,391,17,21.32747308169078,9.418751978220532
0.589756189502632,0.4623634426230745,391,17,21.32747308169078,9.418751978220532
0.5943786450988632,0.4623588200755046,391,17,21.32747308169078,9.418751978220532
0.599001054478245,0.4623541975741531,391,17,21.32747308169078,9.418751978220532
0.6036234176414828,0.4623495751190191,391,17,21.32747308169078,9.418751978220532
0.6082457345892629,0.46234495271010195,391,17,21.32747308169078,9.418751978220532
0.6128680053222546,0.46234033034740096,391,17,21.32747308169078,9.418751978220532
0.6174902298411111,0.46233570803091545,391,17,21.32747308169078,9.418751978220532
0.622112408146471,0.4623310857606447,391,17,21.32747308169078,9.418751978220532
0.6267345402389589,0.4623264635365881,391,17,21.32747308169078,9.418751978220532
0.6313566261191876,0.46232184135874493,391,17,21.32747308169078,9.418751978220532
0.6359786657877577,0.46231721922711466,391,17,21.32747308169078,9.418751978220532
0.6406006592452593,0.46231259714169665,391,17,21.32747308169078,9.418751978220532
0.6452226064922727,0.4623079751024903,391,17,21.32747308169078,9.418751978220532
0.6498445075293692,0.462303353109495,391,17,21.32747308169078,9.418751978220532
0.6544663623571115,0.4622987311627102,391,17,21.32747308169078,9.418751978220532
0.6590881709760544,0.46229410926213527,391,17,21.32747308169078,9.418751978220532
0.6637099333867458,0.46228948740776976,391,17,21.32747308169078,9.418751978220532
0.6683316495897272,0.46228486559961296,391,17,21.32747308169078,9.418751978220532
0.6729533195855333,0.4622802438376645,391,17,21.32747308169078,9.418751978220532
0.677574943374694,0.4622756221219237,391,17,21.32747308169078,9.418751978220532
0.6821965209577334,0.46227100045239006,391,17,21.32747308169078,9.418751978220532
0.6868180523351711,0.4622663788290631,391,17,21.32747308169078,9.418751978220532
0.6914395375075216,0.4622617572519422,391,17,21.32747308169078,9.418751978220532
0.6960609764752965,0.4622571357210269,391,17,21.32747308169078,9.418751978220532
0.7006823692390027,0.46225251423631675,391,17,21.32747308169078,9.418751978220532
0.7053037157991442,0.4622478927978111,391,17,21.32747308169078,9.418751978220532
0.7099250161562212,0.4622432714055095,391,17,21.32747308169078,9.418751978220532
0.714546270310731,0.46223865005941156,391,17,21.32747308169078,9.418751978220532
0.719167478263169,0.4622340287595166,391,17,21.32747308169078,9.418751978220532
0.7237886400140268,0.46222940750582425,391,17,21.32747308169078,9.418751978220532
0.7284097555637945,0.4622247862983339,391,17,21.32747308169078,9.418751978220532
0.73303082491296,0.46222016513704517,391,17,21.32747308169078,9.418751978220532
0.737651848062009,0.4622155440219575,391,17,21.32747308169078,9.418751978220532
0.7422728250114252,0.4622109229530705,391,17,21.32747308169078,9.418751978220532
0.7468937557616913,0.46220630193038353,391,17,21.32747308169078,9.418751978220532
0.7515146403132872,0.46220168095389624,391,17,21.32747308169078,9.418751978220532
0.7561354786666924,0.4621970600236081,391,17,21.32747308169078,9.418751978220532
0.760756270822385,0.4621924391395186,391,17,21.32747308169078,9.418751978220532
0.7653770167808415,0.46218781830162725,391,17,21.32747308169078,9.418751978220532
0.7699977165425373,0.46218319750993364,391,17,21.32747308169078,9.418751978220532
0.7746183701079469,0.4621785767644373,391,17,21.32747308169078,9.418751978220532
0.7792389774775436,0.46217395606513767,391,17,21.32747308169078,9.418751978220532
0.7838595386518001,0.46216933541203437,391,17,21.32747308169078,9.418751978220532
0.7884800536311881,0.46216471480512683,391,17,21.32747308169078,9.418751978220532
0.7931005224161786,0.4621600942444146,391,17,21.32747308169078,9.418751978220532
0.7977209450072418,0.4621554737298973,391,17,21.32747308169078,9.418751978220532
0.8023413214048472,0.46215085326157435,391,17,21.32747308169078,9.418751978220532
0.806961651609464,0.46214623283944534,391,17,21.32747308169078,9.418751978220532
0.8115819356215607,0.4621416124635098,391,17,21.32747308169078,9.418751978220532
0.8162021734416047,0.46213699213376724,391,17,21.32747308169078,9.418751978220532
0.8208223650700642,0.46213237185021716,391,17,21.32747308169078,9.418751978220532
0.8254425105074058,0.46212775161285913,391,17,21.32747308169078,9.418751978220532
0.8300626097540962,0.4621231314216927,391,17,21.32747308169078,9.418751978220532
0.8346826628106017,0.4621185112767174,391,17,21.32747308169078,9.418751978220532
0.8393026696773881,0.4621138911779327,391,17,21.32747308169078,9.418751978220532
0.843922630354921,0.46210927112533823,391,17,21.32747308169078,9.418751978220532
0.8485425448436654,0.46210465111893345,391,17,21.32747308169078,9.418751978220532
0.8531624131440867,0.46210003115871795,391,17,21.32747308169078,9.418751978220532
0.8577822352566495,0.46209541124469117,391,17,21.32747308169078,9.418751978220532
0.8624020111818184,0.46209079137685277,391,17,21.32747308169078,9.418751978220532
0.8670217409200576,0.4620861715552022,391,17,21.32747308169078,9.418751978220532
0.8716414244718311,0.46208155177973903,391,17,21.32747308169078,9.418751978220532
0.8762610618376031,0.46207693205046274,391,17,21.32747308169078,9.418751978220532
0.8808806530178374,0.46207231236737295,391,17,21.32747308169078,9.418751978220532
0.8855001980129972,0.46206769273046916,391,17,21.32747308169078,9.418751978220532
0.8901196968235459,0.46206307313975087,391,17,21.32747308169078,9.418751978220532
0.8947391494499473,0.4620584535952177,391,17,21.32747308169078,9.418751978220532
0.899358555892664,0.4620538340968691,391,17,21.32747308169078,9.418751978220532
0.9039779161521595,0.46204921464470466,391,17,21.32747308169078,9.418751978220532
0.9085972302288965,0.4620445952387239,391,17,21.32747308169078,9.418751978220532
0.9132164981233382,0.46203997587892637,391,17,21.32747308169078,9.418751978220532
0.9178357198359469,0.46203535656531153,391,17,21.32747308169078,9.418751978220532
0.9224548953671854,0.462030737297879,391,17,21.32747308169078,9.418751978220532
0.9270740247175165,0.46202611807662836,391,17,21.32747308169078,9.418751978220532
0.9316931078874028,0.462021498901559,391,17,21.32747308169078,9.418751978220532
0.9363121448773065,0.46201687977267064,391,17,21.32747308169078,9.418751978220532
0.9409311356876902,0.46201226068996265,391,17,21.32747308169078,9.418751978220532
0.945550080319016,0.46200764165343466,391,17,21.32747308169078,9.418751978220532
0.9501689787717462,0.4620030226630862,391,17,21.32747308169078,9.418751978220532
0.9547878310463433,0.46199840371891676,391,17,21.32747308169078,9.418751978220532
0.9594066371432692,0.46199378482092596,391,17,21.32747308169078,9.418751978220532
0.9640253970629865,0.46198916596911327,391,17,21.32747308169078,9.418751978220532
0.9686441108059566,0.4619845471634782,391,17,21.32747308169078,9.418751978220532
0.9732627783726421,0.46197992840402036,391,17,21.32747308169078,9.418751978220532
0.9778813997635049,0.4619753096907393,391,17,21.32747308169078,9.418751978220532
0.9824999749790067,0.46197069102363447,391,17,21.32747308169078,9.418751978220532
0.98711850401961,0.4619660724027055,391,17,21.32747308169078,9.418751978220532
0.9917369868857763,0.46196145382795184,391,17,21.32747308169078,9.418751978220532
0.9963554235779677,0.4619568352993731,391,17,21.32747308169078,9.418751978220532
1.0009738140966458,0.4619522168169688,391,17,21.32747308169078,9.418751978220532
1.005592158442273,0.46194759838073846,391,17,21.32747308169078,9.418751978220532
1.010210456615311,0.4619429799906816,391,17,21.32747308169078,9.418751978220532
1.014828708616221,0.46193836164679786,391,17,21.32747308169078,9.418751978220532
1.0194469144454652,0.46193374334908666,391,17,21.32747308169078,9.418751978220532
1.0240650741035058,0.4619291250975476,391,17,21.32747308169078,9.418751978220532
1.0286831875908038,0.4619245068921802,391,17,21.32747308169078,9.418751978220532
1.033301254907821,0.46191988873298395,391,17,21.32747308169078,9.418751978220532
1.03791927605502,0.46191527061995846,391,17,21.32747308169078,9.418751978220532
1.0425372510328617,0.46191065255310326,391,17,21.32747308169078,9.418751978220532
1.0471551798418082,0.4619060345324179,391,17,21.32747308169078,9.418751978220532
1.0517730624823207,0.46190141655790184,391,17,21.32747308169078,9.418751978220532
1.0563908989548616,0.4618967986295547,391,17,21.32747308169078,9.418751978220532
1.0610086892598918,0.461892180747376,391,17,21.32747308169078,9.418751978220532
1.0656264333978736,0.46188756291136523,391,17,21.32747308169078,9.418751978220532
1.0702441313692677,0.461882945121522,391,17,21.32747308169078,9.418751978220532
1.074861783174537,0.4618783273778458,391,17,21.32747308169078,9.418751978220532
1.0794793888141418,0.4618737096803362,391,17,21.32747308169078,9.418751978220532
1.084096948288545,0.4618690920289927,391,17,21.32747308169078,9.418751978220532
1.0887144615982074,0.46186447442381484,391,17,21.32747308169078,9.418751978220532
1.0933319287435905,0.46185985686480224,391,17,21.32747308169078,9.418751978220532
1.0979493497251565,0.4618552393519543,391,17,21.32747308169078,9.418751978220532
1.1025667245433661,0.4618506218852707,391,17,21.32747308169078,9.418751978220532
1.1071840531986819,0.4618460044647509,391,17,21.32747308169078,9.418751978220532
1.1118013356915648,0.4618413870903944,391,17,21.32747308169078,9.418751978220532
