Vout,Iout,Irradiance,Temperature,MaxVoltage,MaxPower
0.009022493245257257,1.8045159999999998,1561,3,20.316266046349657,36.24899765583355
0.027067312901332213,1.8045159999999998,1561,3,20.316266046349657,36.24899765583355
0.045111765710749624,1.8045067970551545,1561,3,20.316266046349657,36.24899765583355
0.0631557861364756,1.8044887522354984,1561,3,20.316266046349657,36.24899765583355
0.08119935275987046,1.8044707077836093,1561,3,20.316266046349657,36.24899765583355
0.09924248662084666,1.804452663764988,1561,3,20.316266046349657,36.24899765583355
0.11728520714121096,1.804434620200169,1561,3,20.316266046349657,36.24899765583355
0.13532753224876456,1.8044165770681126,1561,3,20.316266046349657,36.24899765583355
0.1533694784920542,1.8043985343493965,1561,3,20.316266046349657,36.24899765583355
0.17141106114649426,1.8043804920260933,1561,3,20.316266046349657,36.24899765583355
0.18945229431232324,1.8043624500816542,1561,3,20.316266046349657,36.24899765583355
0.20749319100502403,1.804344408500804,1561,3,20.316266046349657,36.24899765583355
0.22553376323878652,1.8043263672694425,1561,3,20.316266046349657,36.24899765583355
0.24357402210354862,1.8043083263745539,1561,3,20.316266046349657,36.24899765583355
0.2616139778361098,1.8042902858041243,1561,3,20.316266046349657,36.24899765583355
0.27965363988577263,1.8042722455470637,1561,3,20.316266046349657,36.24899765583355
0.29769301697493444,1.8042542055931352,1561,3,20.316266046349657,36.24899765583355
0.31573211715501626,1.8042361659328894,1561,3,20.316266046349657,36.24899765583355
0.3337709478580887,1.8042181265576043,1561,3,20.316266046349657,36.24899765583355
0.35180951594452603,1.804200087459228,1561,3,20.316266046349657,36.24899765583355
0.36984782774699304,1.804182048630329,1561,3,20.316266046349657,36.24899765583355
0.38788588911104843,1.8041640100640466,1561,3,20.316266046349657,36.24899765583355
0.40592370543262296,1.804145971754048,1561,3,20.316266046349657,36.24899765583355
0.42396128169261454,1.8041279336944878,1561,3,20.316266046349657,36.24899765583355
0.4419986224888218,1.80410989587997,1561,3,20.316266046349657,36.24899765583355
0.46003573206542026,1.8040918583055139,1561,3,20.316266046349657,36.24899765583355
0.47807261434017045,1.8040738209665215,1561,3,20.316266046349657,36.24899765583355
0.4961092729295331,1.8040557838587485,1561,3,20.316266046349657,36.24899765583355
0.5141457111718516,1.8040377469782776,1561,3,20.316266046349657,36.24899765583355
0.5321819321487502,1.8040197103214919,1561,3,20.316266046349657,36.24899765583355
0.5502179387048871,1.8040016738850533,1561,3,20.316266046349657,36.24899765583355
0.568253733466187,1.80398363766588,1561,3,20.316266046349657,36.24899765583355
0.5862893188566699,1.8039656016611274,1561,3,20.316266046349657,36.24899765583355
0.6043246971139868,1.8039475658681698,1561,3,20.316266046349657,36.24899765583355
0.6223598703037596,1.803929530284583,1561,3,20.316266046349657,36.24899765583355
0.6403948403328159,1.8039114949081292,1561,3,20.316266046349657,36.24899765583355
0.6584296089614081,1.803893459736743,1561,3,20.316266046349657,36.24899765583355
0.6764641778144903,1.8038754247685176,1561,3,20.316266046349657,36.24899765583355
0.6944985483921291,1.8038573900016923,1561,3,20.316266046349657,36.24899765583355
0.7125327220791126,1.8038393554346428,1561,3,20.316266046349657,36.24899765583355
0.730566700153819,1.8038213210658687,1561,3,20.316266046349657,36.24899765583355
0.7486004837964052,1.803803286893985,1561,3,20.316266046349657,36.24899765583355
0.7666340740963636,1.8037852529177139,1561,3,20.316266046349657,36.24899765583355
0.7846674720594983,1.8037672191358747,1561,3,20.316266046349657,36.24899765583355
0.8027006786143637,1.8037491855473782,1561,3,20.316266046349657,36.24899765583355
0.8207336946182082,1.8037311521512183,1561,3,20.316266046349657,36.24899765583355
0.8387665208624607,1.8037131189464668,1561,3,20.316266046349657,36.24899765583355
0.8567991580777959,1.8036950859322665,1561,3,20.316266046349657,36.24899765583355
0.874831606938807,1.8036770531078254,1561,3,20.316266046349657,36.24899765583355
0.892863868068322,1.8036590204724134,1561,3,20.316266046349657,36.24899765583355
0.910895942041386,1.8036409880253557,1561,3,20.316266046349657,36.24899765583355
0.9289278293889379,1.8036229557660295,1561,3,20.316266046349657,36.24899765583355
0.9469595306012044,1.8036049236938596,1561,3,20.316266046349657,36.24899765583355
0.9649910461308314,1.8035868918083153,1561,3,20.316266046349657,36.24899765583355
0.9830223763957768,1.8035688601089062,1561,3,20.316266046349657,36.24899765583355
1.0010535217819785,1.8035508285951798,1561,3,20.316266046349657,36.24899765583355
1.0190844826458179,1.803532797266718,1561,3,20.316266046349657,36.24899765583355
1.0371152593163957,1.803514766123135,1561,3,20.316266046349657,36.24899765583355
1.0551458520976287,1.8034967351640743,1561,3,20.316266046349657,36.24899765583355
1.073176261270189,1.8034787043892069,1561,3,20.316266046349657,36.24899765583355
1.0912064870932916,1.8034606737982286,1561,3,20.316266046349657,36.24899765583355
1.1092365298063462,1.8034426433908592,1561,3,20.316266046349657,36.24899765583355
1.1272663896304802,1.8034246131668392,1561,3,20.316266046349657,36.24899765583355
1.1452960667699463,1.8034065831259292,1561,3,20.316266046349657,36.24899765583355
1.163325561413419,1.803388553267908,1561,3,20.316266046349657,36.24899765583355
1.1813548737351969,1.8033705235925714,1561,3,20.316266046349657,36.24899765583355
1.1993840038963042,1.803352494099731,1561,3,20.316266046349657,36.24899765583355
1.2174129520455146,1.8033344647892122,1561,3,20.316266046349657,36.24899765583355
1.235441718320295,1.803316435660854,1561,3,20.316266046349657,36.24899765583355
1.2534703028476724,1.8032984067145077,1561,3,20.316266046349657,36.24899765583355
1.2714987057450398,1.803280377950036,1561,3,20.316266046349657,36.24899765583355
1.2895269271208958,1.8032623493673114,1561,3,20.316266046349657,36.24899765583355
1.30755496707553,1.803244320966217,1561,3,20.316266046349657,36.24899765583355
1.325582825701654,1.803226292746644,1561,3,20.316266046349657,36.24899765583355
1.3436105030849848,1.8032082647084922,1561,3,20.316266046349657,36.24899765583355
1.3616379993047827,1.8031902368516688,1561,3,20.316266046349657,36.24899765583355
1.3796653144343478,1.8031722091760882,1561,3,20.316266046349657,36.24899765583355
1.3976924485414803,1.8031541816816714,1561,3,20.316266046349657,36.24899765583355
1.4157194016889008,1.8031361543683446,1561,3,20.316266046349657,36.24899765583355
1.4337461739346429,1.8031181272360401,1561,3,20.316266046349657,36.24899765583355
1.4517727653324157,1.8031001002846954,1561,3,20.316266046349657,36.24899765583355
1.4697991759319315,1.8030820735142523,1561,3,20.316266046349657,36.24899765583355
1.4878254057792182,1.8030640469246573,1561,3,20.316266046349657,36.24899765583355
1.5058514549169,1.8030460205158605,1561,3,20.316266046349657,36.24899765583355
1.5238773233844611,1.8030279942878158,1561,3,20.316266046349657,36.24899765583355
1.5419030112184848,1.8030099682404808,1561,3,20.316266046349657,36.24899765583355
1.55992851845288,1.8029919423738159,1561,3,20.316266046349657,36.24899765583355
1.577953845119084,1.8029739166877845,1561,3,20.316266046349657,36.24899765583355
1.5959789912462539,1.8029558911823527,1561,3,20.316266046349657,36.24899765583355
1.6140039568614426,1.802937865857489,1561,3,20.316266046349657,36.24899765583355
1.6320287419897594,1.8029198407131644,1561,3,20.316266046349657,36.24899765583355
1.6500533466545213,1.8029018157493517,1561,3,20.316266046349657,36.24899765583355
1.6680777708773895,1.802883790966026,1561,3,20.316266046349657,36.24899765583355
1.6861020146784962,1.8028657663631638,1561,3,20.316266046349657,36.24899765583355
1.7041260780765641,1.8028477419407434,1561,3,20.316266046349657,36.24899765583355
1.7221499610890136,1.8028297176987447,1561,3,20.316266046349657,36.24899765583355
1.7401736637320637,1.802811693637149,1561,3,20.316266046349657,36.24899765583355
1.758197186020824,1.802793669755939,1561,3,20.316266046349657,36.24899765583355
1.77622052796938,1.8027756460550983,1561,3,20.316266046349657,36.24899765583355
1.7942436895908715,1.802757622534612,1561,3,20.316266046349657,36.24899765583355
1.812266670897567,1.8027395991944657,1561,3,20.316266046349657,36.24899765583355
1.830289471900929,1.8027215760346467,1561,3,20.316266046349657,36.24899765583355
1.8483120926116765,1.8027035530551423,1561,3,20.316266046349657,36.24899765583355
1.8663345330398424,1.8026855302559412,1561,3,20.316266046349657,36.24899765583355
1.8843567931948275,1.8026675076370329,1561,3,20.316266046349657,36.24899765583355
1.9023788730854454,1.802649485198407,1561,3,20.316266046349657,36.24899765583355
1.9204007727199723,1.8026314629400542,1561,3,20.316266046349657,36.24899765583355
1.9384224921061854,1.8026134408619658,1561,3,20.316266046349657,36.24899765583355
1.9564440312514018,1.8025954189641336,1561,3,20.316266046349657,36.24899765583355
1.974465390162515,1.8025773972465495,1561,3,20.316266046349657,36.24899765583355
1.9924865688460256,1.8025593757092064,1561,3,20.316266046349657,36.24899765583355
2.010507567308074,1.8025413543520976,1561,3,20.316266046349657,36.24899765583355
2.028528385554465,1.8025233331752162,1561,3,20.316266046349657,36.24899765583355
2.046549023590697,1.8025053121785564,1561,3,20.316266046349657,36.24899765583355
2.0645694814219833,1.802487291362112,1561,3,20.316266046349657,36.24899765583355
2.082589759053274,1.8024692707258778,1561,3,20.316266046349657,36.24899765583355
2.1006098564892777,1.8024512502698486,1561,3,20.316266046349657,36.24899765583355
2.118629773734479,1.8024332299940193,1561,3,20.316266046349657,36.24899765583355
2.136649510793156,1.8024152098983854,1561,3,20.316266046349657,36.24899765583355
2.1546690676693965,1.8023971899829423,1561,3,20.316266046349657,36.24899765583355
2.172688444367112,1.8023791702476857,1561,3,20.316266046349657,36.24899765583355
2.1907076408900514,1.8023611506926114,1561,3,20.316266046349657,36.24899765583355
2.2087266572418143,1.8023431313177156,1561,3,20.316266046349657,36.24899765583355
2.2267454934258613,1.8023251121229946,1561,3,20.316266046349657,36.24899765583355
2.244764149445526,1.8023070931084448,1561,3,20.316266046349657,36.24899765583355
2.2627826253040237,1.8022890742740627,1561,3,20.316266046349657,36.24899765583355
2.28080092100446,1.802271055619845,1561,3,20.316266046349657,36.24899765583355
2.2988190365498427,1.8022530371457883,1561,3,20.316266046349657,36.24899765583355
2.3168369719430837,1.8022350188518899,1561,3,20.316266046349657,36.24899765583355
2.334854727187011,1.8022170007381462,1561,3,20.316266046349657,36.24899765583355
2.3528723022843727,1.8021989828045548,1561,3,20.316266046349657,36.24899765583355
2.3708896972378453,1.8021809650511127,1561,3,20.316266046349657,36.24899765583355
2.3889069120500372,1.8021629474778171,1561,3,20.316266046349657,36.24899765583355
2.4069239467234933,1.8021449300846655,1561,3,20.316266046349657,36.24899765583355
2.4249408012607048,1.802126912871655,1561,3,20.316266046349657,36.24899765583355
2.442957475664106,1.8021088958387832,1561,3,20.316266046349657,36.24899765583355
2.4609739699360844,1.8020908789860477,1561,3,20.316266046349657,36.24899765583355
2.4789902840789813,1.802072862313446,1561,3,20.316266046349657,36.24899765583355
2.4970064180950984,1.8020548458209757,1561,3,20.316266046349657,36.24899765583355
2.5150223719866953,1.8020368295086346,1561,3,20.316266046349657,36.24899765583355
2.5330381457560005,1.8020188133764201,1561,3,20.316266046349657,36.24899765583355
2.5510537394052073,1.8020007974243302,1561,3,20.316266046349657,36.24899765583355
2.5690691529364775,1.8019827816523624,1561,3,20.316266046349657,36.24899765583355
2.587084386351948,1.801964766060515,1561,3,20.316266046349657,36.24899765583355
2.6050994396537273,1.8019467506487852,1561,3,20.316266046349657,36.24899765583355
2.623114312843902,1.8019287354171711,1561,3,20.316266046349657,36.24899765583355
2.641129005924536,1.801910720365671,1561,3,20.316266046349657,36.24899765583355
2.659143518897673,1.8018927054942824,1561,3,20.316266046349657,36.24899765583355
2.677157851765337,1.8018746908030032,1561,3,20.316266046349657,36.24899765583355
2.6951720045295366,1.8018566762918315,1561,3,20.316266046349657,36.24899765583355
2.7131859771922637,1.8018386619607654,1561,3,20.316266046349657,36.24899765583355
2.7311997697554937,1.8018206478098027,1561,3,20.316266046349657,36.24899765583355
2.749213382221192,1.8018026338389412,1561,3,20.316266046349657,36.24899765583355
2.767226814591308,1.8017846200481795,1561,3,20.316266046349657,36.24899765583355
2.7852400668677815,1.8017666064375153,1561,3,20.316266046349657,36.24899765583355
2.803253139052541,1.8017485930069466,1561,3,20.316266046349657,36.24899765583355
2.821266031147505,1.8017305797564713,1561,3,20.316266046349657,36.24899765583355
2.8392787431545834,1.801712566686088,1561,3,20.316266046349657,36.24899765583355
2.8572912750756765,1.8016945537957942,1561,3,20.316266046349657,36.24899765583355
2.8753036269126784,1.8016765410855886,1561,3,20.316266046349657,36.24899765583355
2.8933157986674756,1.8016585285554687,1561,3,20.316266046349657,36.24899765583355
2.9113277903419474,1.801640516205433,1561,3,20.316266046349657,36.24899765583355
2.929339601937967,1.8016225040354794,1561,3,20.316266046349657,36.24899765583355
2.9473512334574035,1.8016044920456062,1561,3,20.316266046349657,36.24899765583355
2.9653626849021175,1.8015864802358115,1561,3,20.316266046349657,36.24899765583355
2.9833739562739683,1.801568468606093,1561,3,20.316266046349657,36.24899765583355
3.001385047574809,1.8015504571564496,1561,3,20.316266046349657,36.24899765583355
3.0193959588064887,1.8015324458868789,1561,3,20.316266046349657,36.24899765583355
3.037406689970853,1.8015144347973793,1561,3,20.316266046349657,36.24899765583355
3.055417241069743,1.8014964238879487,1561,3,20.316266046349657,36.24899765583355
3.0734276121049993,1.8014784131585855,1561,3,20.316266046349657,36.24899765583355
3.0914378030784553,1.8014604026092877,1561,3,20.316266046349657,36.24899765583355
3.1094478139919453,1.8014423922400535,1561,3,20.316266046349657,36.24899765583355
3.1274576448473,1.801424382050881,1561,3,20.316266046349657,36.24899765583355
3.145467295646348,1.8014063720417686,1561,3,20.316266046349657,36.24899765583355
3.1634767663909145,1.8013883622127143,1561,3,20.316266046349657,36.24899765583355
3.1814860570828234,1.8013703525637161,1561,3,20.316266046349657,36.24899765583355
3.199495167723897,1.8013523430947727,1561,3,20.316266046349657,36.24899765583355
3.2175040983159557,1.8013343338058818,1561,3,20.316266046349657,36.24899765583355
3.2355128488608185,1.8013163246970416,1561,3,20.316266046349657,36.24899765583355
3.253521419360302,1.8012983157682505,1561,3,20.316266046349657,36.24899765583355
3.2715298098162227,1.8012803070195065,1561,3,20.316266046349657,36.24899765583355
3.2895380202303954,1.801262298450808,1561,3,20.316266046349657,36.24899765583355
3.307546050604634,1.8012442900621528,1561,3,20.316266046349657,36.24899765583355
3.3255539009407498,1.8012262818535396,1561,3,20.316266046349657,36.24899765583355
3.343561571240556,1.8012082738249662,1561,3,20.316266046349657,36.24899765583355
3.361569061505862,1.801190265976431,1561,3,20.316266046349657,36.24899765583355
3.379576371738478,1.801172258307932,1561,3,20.316266046349657,36.24899765583355
3.397583501940214,1.8011542508194673,1561,3,20.316266046349657,36.24899765583355
3.4155904521128764,1.8011362435110354,1561,3,20.316266046349657,36.24899765583355
3.4335972222582747,1.8011182363826346,1561,3,20.316266046349657,36.24899765583355
3.451603812378215,1.8011002294342626,1561,3,20.316266046349657,36.24899765583355
3.4696102224745036,1.8010822226659178,1561,3,20.316266046349657,36.24899765583355
3.4876164525489473,1.8010642160775987,1561,3,20.316266046349657,36.24899765583355
3.5056225026033503,1.801046209669303,1561,3,20.316266046349657,36.24899765583355
3.523628372639518,1.8010282034410292,1561,3,20.316266046349657,36.24899765583355
3.541634062659255,1.8010101973927755,1561,3,20.316266046349657,36.24899765583355
3.5596395726643664,1.80099219152454,1561,3,20.316266046349657,36.24899765583355
3.5776449026566546,1.8009741858363209,1561,3,20.316266046349657,36.24899765583355
3.595650052637924,1.8009561803281162,1561,3,20.316266046349657,36.24899765583355
3.6136550226099766,1.8009381749999245,1561,3,20.316266046349657,36.24899765583355
3.631659812574617,1.8009201698517439,1561,3,20.316266046349657,36.24899765583355
3.6496644225336463,1.8009021648835724,1561,3,20.316266046349657,36.24899765583355
3.6676688524888674,1.8008841600954082,1561,3,20.316266046349657,36.24899765583355
3.6856731024420832,1.8008661554872496,1561,3,20.316266046349657,36.24899765583355
3.703677172395096,1.800848151059095,1561,3,20.316266046349657,36.24899765583355
3.7216810623497056,1.8008301468109422,1561,3,20.316266046349657,36.24899765583355
3.7396847723077147,1.8008121427427897,1561,3,20.316266046349657,36.24899765583355
3.757688302270925,1.8007941388546354,1561,3,20.316266046349657,36.24899765583355
3.775691652241137,1.8007761351464777,1561,3,20.316266046349657,36.24899765583355
3.7936948222201523,1.800758131618315,1561,3,20.316266046349657,36.24899765583355
3.811697812209771,1.8007401282701452,1561,3,20.316266046349657,36.24899765583355
3.8297006222117944,1.8007221251019665,1561,3,20.316266046349657,36.24899765583355
3.847703252228023,1.8007041221137772,1561,3,20.316266046349657,36.24899765583355
3.865705702260258,1.8006861193055754,1561,3,20.316266046349657,36.24899765583355
3.8837079723103,1.8006681166773595,1561,3,20.316266046349657,36.24899765583355
3.901710062379948,1.8006501142291276,1561,3,20.316266046349657,36.24899765583355
3.9197119724710037,1.800632111960878,1561,3,20.316266046349657,36.24899765583355
3.9377137025852655,1.8006141098726085,1561,3,20.316266046349657,36.24899765583355
3.9557152527245365,1.8005961079643176,1561,3,20.316266046349657,36.24899765583355
3.9737166228906142,1.8005781062360036,1561,3,20.316266046349657,36.24899765583355
3.991717813085299,1.8005601046876645,1561,3,20.316266046349657,36.24899765583355
4.009718823310392,1.8005421033192985,1561,3,20.316266046349657,36.24899765583355
4.027719653567691,1.800524102130904,1561,3,20.316266046349657,36.24899765583355
4.045720303858998,1.800506101122479,1561,3,20.316266046349657,36.24899765583355
4.063720774186111,1.8004881002940218,1561,3,20.316266046349657,36.24899765583355
4.0817210645508295,1.8004700996455307,1561,3,20.316266046349657,36.24899765583355
4.099721174954954,1.8004520991770037,1561,3,20.316266046349657,36.24899765583355
4.1177211054002845,1.800434098888439,1561,3,20.316266046349657,36.24899765583355
4.1357208558886205,1.800416098779835,1561,3,20.316266046349657,36.24899765583355
4.153720426421761,1.8003980988511896,1561,3,20.316266046349657,36.24899765583355
4.171719817001504,1.8003800991025012,1561,3,20.316266046349657,36.24899765583355
4.18971902762965,1.8003620995337681,1561,3,20.316266046349657,36.24899765583355
4.207718058308,1.8003441001449885,1561,3,20.316266046349657,36.24899765583355
4.2257169090383515,1.8003261009361602,1561,3,20.316266046349657,36.24899765583355
4.2437155798225055,1.8003081019072817,1561,3,20.316266046349657,36.24899765583355
4.261714070662257,1.8002901030583514,1561,3,20.316266046349657,36.24899765583355
4.27971238155941,1.800272104389367,1561,3,20.316266046349657,36.24899765583355
4.297710512515761,1.8002541059003272,1561,3,20.316266046349657,36.24899765583355
4.315708463533109,1.8002361075912299,1561,3,20.316266046349657,36.24899765583355
4.333706234613255,1.8002181094620735,1561,3,20.316266046349657,36.24899765583355
