Vout,Iout,Irradiance,Temperature,MaxVoltage,MaxPower
0.0024241766906087443,0.48484,391,45,22.826043822686433,10.5325199072676
0.007272485246504831,0.48484,391,45,22.826043822686433,10.5325199072676
0.012120695237504045,0.4848375273393094,391,45,22.826043822686433,10.5325199072676
0.0169687890550202,0.4848326790307535,391,45,22.826043822686433,10.5325199072676
0.021816760944261847,0.4848278308210098,391,45,22.826043822686433,10.5325199072676
0.026664616558263438,0.48482298272767704,391,45,22.826043822686433,10.5325199072676
0.031512361115304456,0.48481813475627267,391,45,22.826043822686433,10.5325199072676
0.036359999432252765,0.48481328690114345,391,45,22.826043822686433,10.5325199072676
0.04120753595539613,0.4848084391570712,391,45,22.826043822686433,10.5325199072676
0.046054974788955205,0.4848035915192391,391,45,22.826043822686433,10.5325199072676
0.05090231972140276,0.48479874398320066,391,45,22.826043822686433,10.5325199072676
0.055749574249757766,0.4847938965448519,391,45,22.826043822686433,10.5325199072676
0.06059674160201033,0.48478904920040417,391,45,22.826043822686433,10.5325199072676
0.06544382475782125,0.48478420194636057,391,45,22.826043822686433,10.5325199072676
0.07029082646762871,0.4847793547794931,391,45,22.826043822686433,10.5325199072676
0.07513774927028526,0.48477450769682195,391,45,22.826043822686433,10.5325199072676
0.0799845955093373,0.4847696606955969,391,45,22.826043822686433,10.5325199072676
0.08483136734805241,0.48476481377327896,391,45,22.826043822686433,10.5325199072676
0.08967806678329025,0.4847599669275246,391,45,22.826043822686433,10.5325199072676
0.09452469565830618,0.48475512015617056,391,45,22.826043822686433,10.5325199072676
0.09937125567456992,0.48475027345722,391,45,22.826043822686433,10.5325199072676
0.10421774840267466,0.48474542682882965,391,45,22.826043822686433,10.5325199072676
0.10906417529240695,0.48474058026929806,391,45,22.826043822686433,10.5325199072676
0.11391053768204179,0.48473573377705464,391,45,22.826043822686433,10.5325199072676
0.11875683680692242,0.48473088735064956,391,45,22.826043822686433,10.5325199072676
0.12360307380738017,0.48472604098874456,391,45,22.826043822686433,10.5325199072676
0.12844924973604466,0.48472119469010433,391,45,22.826043822686433,10.5325199072676
0.13329536556459182,0.4847163484535885,391,45,22.826043822686433,10.5325199072676
0.1381414221899726,0.48471150227814447,391,45,22.826043822686433,10.5325199072676
0.1429874204401624,0.48470665616280056,391,45,22.826043822686433,10.5325199072676
0.14783336107946818,0.4847018101066598,391,45,22.826043822686433,10.5325199072676
0.15267924481342707,0.48469696410889423,391,45,22.826043822686433,10.5325199072676
0.1575250722933284,0.4846921181687395,391,45,22.826043822686433,10.5325199072676
0.16237084412038766,0.48468727228549013,391,45,22.826043822686433,10.5325199072676
0.16721656084959896,0.48468242645849485,391,45,22.826043822686433,10.5325199072676
0.17206222299329163,0.4846775806871524,391,45,22.826043822686433,10.5325199072676
0.1769078310244127,0.48467273497090774,391,45,22.826043822686433,10.5325199072676
0.18175338537955749,0.48466788930924865,391,45,22.826043822686433,10.5325199072676
0.18659888646176592,0.4846630437017021,391,45,22.826043822686433,10.5325199072676
0.19144433464310487,0.4846581981478315,391,45,22.826043822686433,10.5325199072676
0.19628973026705088,0.48465335264723386,391,45,22.826043822686433,10.5325199072676
0.2011350736506904,0.48464850719953706,391,45,22.826043822686433,10.5325199072676
0.20598036508674966,0.48464366180439766,391,45,22.826043822686433,10.5325199072676
0.21082560484546958,0.4846388164614986,391,45,22.826043822686433,10.5325199072676
0.21567079317633547,0.4846339711705471,391,45,22.826043822686433,10.5325199072676
0.2205159303096742,0.4846291259312729,391,45,22.826043822686433,10.5325199072676
0.22536101645812817,0.48462428074342656,391,45,22.826043822686433,10.5325199072676
0.23020605181801584,0.4846194356067777,391,45,22.826043822686433,10.5325199072676
0.23505103657058807,0.4846145905211138,391,45,22.826043822686433,10.5325199072676
0.23989597088318715,0.4846097454862384,391,45,22.826043822686433,10.5325199072676
0.24474085491031708,0.48460490050197036,391,45,22.826043822686433,10.5325199072676
0.24958568879463128,0.4846000555681423,391,45,22.826043822686433,10.5325199072676
0.2544304726678446,0.48459521068459965,391,45,22.826043822686433,10.5325199072676
0.2592752066515745,0.4845903658511998,391,45,22.826043822686433,10.5325199072676
0.2641198908581186,0.48458552106781105,391,45,22.826043822686433,10.5325199072676
0.2689645253911712,0.48458067633431184,391,45,22.826043822686433,10.5325199072676
0.27380911034648553,0.48457583165058976,391,45,22.826043822686433,10.5325199072676
0.2786536458124847,0.48457098701654117,391,45,22.826043822686433,10.5325199072676
0.28349813187082556,0.48456614243207036,391,45,22.826043822686433,10.5325199072676
0.28834256859691954,0.4845612978970888,391,45,22.826043822686433,10.5325199072676
0.29318695606041284,0.48455645341151493,391,45,22.826043822686433,10.5325199072676
0.2980312943256304,0.4845516089752733,391,45,22.826043822686433,10.5325199072676
0.3028755834519851,0.48454676458829427,391,45,22.826043822686433,10.5325199072676
0.3077198234943559,0.48454192025051346,391,45,22.826043822686433,10.5325199072676
0.3125640145034362,0.48453707596187157,391,45,22.826043822686433,10.5325199072676
0.3174081565260564,0.48453223172231363,391,45,22.826043822686433,10.5325199072676
0.32225224960548116,0.484527387531789,391,45,22.826043822686433,10.5325199072676
0.32709629378168315,0.48452254339025075,391,45,22.826043822686433,10.5325199072676
0.331940289091597,0.48451769929765576,391,45,22.826043822686433,10.5325199072676
0.3367842355693526,0.484512855253964,391,45,22.826043822686433,10.5325199072676
0.3416281332464913,0.48450801125913845,391,45,22.826043822686433,10.5325199072676
0.3464719821521645,0.48450316731314513,391,45,22.826043822686433,10.5325199072676
0.3513157823133185,0.4844983234159524,391,45,22.826043822686433,10.5325199072676
0.3561595337548629,0.4844934795675311,391,45,22.826043822686433,10.5325199072676
0.3610032364998283,0.48448863576785434,391,45,22.826043822686433,10.5325199072676
0.36584689056951053,0.4844837920168972,391,45,22.826043822686433,10.5325199072676
0.37069049598360404,0.4844789483146366,391,45,22.826043822686433,10.5325199072676
0.37553405276032537,0.4844741046610513,391,45,22.826043822686433,10.5325199072676
0.3803775609165263,0.48446926105612154,391,45,22.826043822686433,10.5325199072676
0.38522102046779994,0.4844644174998292,391,45,22.826043822686433,10.5325199072676
0.39006443142857605,0.4844595739921574,391,45,22.826043822686433,10.5325199072676
0.3949077938122121,0.48445473053309046,391,45,22.826043822686433,10.5325199072676
0.3997511076310746,0.484449887122614,391,45,22.826043822686433,10.5325199072676
0.40459437289661604,0.48444504376071473,391,45,22.826043822686433,10.5325199072676
0.40943758961944493,0.48444020044738023,391,45,22.826043822686433,10.5325199072676
0.41428075780939067,0.484435357182599,391,45,22.826043822686433,10.5325199072676
0.4191238774755639,0.4844305139663605,391,45,22.826043822686433,10.5325199072676
0.4239669486264111,0.4844256707986549,391,45,22.826043822686433,10.5325199072676
0.4288099712697665,0.48442082767947303,391,45,22.826043822686433,10.5325199072676
0.4336529454128986,0.4844159846088065,391,45,22.826043822686433,10.5325199072676
0.4384958710625539,0.48441114158664744,391,45,22.826043822686433,10.5325199072676
0.4433387482249971,0.4844062986129886,391,45,22.826043822686433,10.5325199072676
0.44818157690604793,0.4844014556878233,391,45,22.826043822686433,10.5325199072676
0.453024357111116,0.48439661281114516,391,45,22.826043822686433,10.5325199072676
0.4578670888452315,0.48439176998294836,391,45,22.826043822686433,10.5325199072676
0.46270977211307507,0.48438692720322757,391,45,22.826043822686433,10.5325199072676
0.46755240691900435,0.4843820844719778,391,45,22.826043822686433,10.5325199072676
0.4723949932670791,0.4843772417891942,391,45,22.826043822686433,10.5325199072676
0.4772375311610838,0.48437239915487257,391,45,22.826043822686433,10.5325199072676
0.48208002060454896,0.48436755656900876,391,45,22.826043822686433,10.5325199072676
0.48692246160077085,0.484362714031599,391,45,22.826043822686433,10.5325199072676
0.4917648541528291,0.48435787154263976,391,45,22.826043822686433,10.5325199072676
0.4966071982636039,0.4843530291021278,391,45,22.826043822686433,10.5325199072676
0.5014494939357907,0.48434818671006,391,45,22.826043822686433,10.5325199072676
0.5062917411719154,0.4843433443664335,391,45,22.826043822686433,10.5325199072676
0.5111339399743462,0.4843385020712455,391,45,22.826043822686433,10.5325199072676
0.5159760903453067,0.48433365982449367,391,45,22.826043822686433,10.5325199072676
0.5208181922868862,0.48432881762617547,391,45,22.826043822686433,10.5325199072676
0.5256602458010511,0.4843239754762887,391,45,22.826043822686433,10.5325199072676
0.5305022508896532,0.48431913337483135,391,45,22.826043822686433,10.5325199072676
0.5353442075544395,0.48431429132180137,391,45,22.826043822686433,10.5325199072676
0.5401861157970593,0.484309449317197,391,45,22.826043822686433,10.5325199072676
0.5450279756190729,0.48430460736101644,391,45,22.826043822686433,10.5325199072676
0.549869787021957,0.484299765453258,391,45,22.826043822686433,10.5325199072676
0.5547115500071123,0.4842949235939202,391,45,22.826043822686433,10.5325199072676
0.5595532645758693,0.4842900817830015,391,45,22.826043822686433,10.5325199072676
0.5643949307294929,0.4842852400205005,391,45,22.826043822686433,10.5325199072676
0.5692365484691878,0.48428039830641595,391,45,22.826043822686433,10.5325199072676
0.5740781177961035,0.4842755566407465,391,45,22.826043822686433,10.5325199072676
0.5789196387113387,0.48427071502349095,391,45,22.826043822686433,10.5325199072676
0.583761111215944,0.4842658734546482,391,45,22.826043822686433,10.5325199072676
0.5886025353109267,0.48426103193421716,391,45,22.826043822686433,10.5325199072676
0.593443910997254,0.4842561904621967,391,45,22.826043822686433,10.5325199072676
0.598285238275856,0.48425134903858585,391,45,22.826043822686433,10.5325199072676
0.6031265171476278,0.4842465076633837,391,45,22.826043822686433,10.5325199072676
0.6079677476134336,0.4842416663365892,391,45,22.826043822686433,10.5325199072676
0.612808929674108,0.4842368250582016,391,45,22.826043822686433,10.5325199072676
0.6176500633304586,0.4842319838282199,391,45,22.826043822686433,10.5325199072676
0.6224911485832682,0.4842271426466434,391,45,22.826043822686433,10.5325199072676
0.6273321854332964,0.4842223015134712,391,45,22.826043822686433,10.5325199072676
0.6321731738812818,0.48421746042870245,391,45,22.826043822686433,10.5325199072676
0.6370141139279435,0.48421261939233656,391,45,22.826043822686433,10.5325199072676
0.6418550055739821,0.4842077784043727,391,45,22.826043822686433,10.5325199072676
0.6466958488200819,0.48420293746481013,391,45,22.826043822686433,10.5325199072676
0.6515366436669112,0.48419809657364815,391,45,22.826043822686433,10.5325199072676
0.6563773901151251,0.4841932557308862,391,45,22.826043822686433,10.5325199072676
0.6612180881653645,0.4841884149365234,391,45,22.826043822686433,10.5325199072676
0.666058737818259,0.4841835741905593,391,45,22.826043822686433,10.5325199072676
0.6708993390744262,0.4841787334929931,391,45,22.826043822686433,10.5325199072676
0.6757398919344741,0.48417389284382434,391,45,22.826043822686433,10.5325199072676
0.6805803963990009,0.48416905224305223,391,45,22.826043822686433,10.5325199072676
0.685420852468596,0.48416421169067625,391,45,22.826043822686433,10.5325199072676
0.69026126014384,0.4841593711866958,391,45,22.826043822686433,10.5325199072676
0.6951016194253076,0.48415453073111026,391,45,22.826043822686433,10.5325199072676
0.699941930313565,0.484149690323919,391,45,22.826043822686433,10.5325199072676
0.7047821928091731,0.48414484996512164,391,45,22.826043822686433,10.5325199072676
0.7096224069126859,0.4841400096547174,391,45,22.826043822686433,10.5325199072676
0.7144625726246526,0.48413516939270584,391,45,22.826043822686433,10.5325199072676
0.7193026899456175,0.4841303291790863,391,45,22.826043822686433,10.5325199072676
0.7241427588761201,0.4841254890138584,391,45,22.826043822686433,10.5325199072676
0.7289827794166951,0.48412064889702144,391,45,22.826043822686433,10.5325199072676
0.733822751567874,0.48411580882857497,391,45,22.826043822686433,10.5325199072676
0.7386626753301843,0.4841109688085184,391,45,22.826043822686433,10.5325199072676
0.74350255070415,0.4841061288368512,391,45,22.826043822686433,10.5325199072676
0.7483423776902921,0.4841012889135729,391,45,22.826043822686433,10.5325199072676
0.753182156289129,0.484096449038683,391,45,22.826043822686433,10.5325199072676
0.7580218865011762,0.4840916092121808,391,45,22.826043822686433,10.5325199072676
0.7628615683269465,0.484086769434066,391,45,22.826043822686433,10.5325199072676
0.7677012017669508,0.4840819297043379,391,45,22.826043822686433,10.5325199072676
0.7725407868216979,0.4840770900229961,391,45,22.826043822686433,10.5325199072676
0.7773803234916948,0.4840722503900401,391,45,22.826043822686433,10.5325199072676
0.782219811777446,0.4840674108054693,391,45,22.826043822686433,10.5325199072676
0.7870592516794556,0.48406257126928326,391,45,22.826043822686433,10.5325199072676
0.7918986431982248,0.4840577317814815,391,45,22.826043822686433,10.5325199072676
0.796737986334254,0.4840528923420634,391,45,22.826043822686433,10.5325199072676
0.8015772810880428,0.4840480529510286,391,45,22.826043822686433,10.5325199072676
0.8064165274600893,0.4840432136083765,391,45,22.826043822686433,10.5325199072676
0.8112557254508898,0.4840383743141067,391,45,22.826043822686433,10.5325199072676
0.8160948750609405,0.48403353506821856,391,45,22.826043822686433,10.5325199072676
0.8209339762907362,0.4840286958707117,391,45,22.826043822686433,10.5325199072676
0.8257730291407708,0.48402385672158554,391,45,22.826043822686433,10.5325199072676
0.8306120336115379,0.48401901762083965,391,45,22.826043822686433,10.5325199072676
0.8354509897035297,0.48401417856847356,391,45,22.826043822686433,10.5325199072676
0.8402898974172383,0.4840093395644867,391,45,22.826043822686433,10.5325199072676
0.8451287567531544,0.4840045006088786,391,45,22.826043822686433,10.5325199072676
0.8499675677117691,0.4839996617016488,391,45,22.826043822686433,10.5325199072676
0.8548063302935722,0.48399482284279677,391,45,22.826043822686433,10.5325199072676
0.8596450444990533,0.4839899840323221,391,45,22.826043822686433,10.5325199072676
0.8644837103287015,0.4839851452702241,391,45,22.826043822686433,10.5325199072676
0.8693223277830057,0.48398030655650254,391,45,22.826043822686433,10.5325199072676
0.8741608968624539,0.48397546789115675,391,45,22.826043822686433,10.5325199072676
0.8789994175675341,0.4839706292741863,391,45,22.826043822686433,10.5325199072676
0.883837889898734,0.48396579070559076,391,45,22.826043822686433,10.5325199072676
0.8886763138565408,0.48396095218536955,391,45,22.826043822686433,10.5325199072676
0.8935146894414414,0.4839561137135222,391,45,22.826043822686433,10.5325199072676
0.8983530166539229,0.4839512752900482,391,45,22.826043822686433,10.5325199072676
0.9031912954944712,0.48394643691494715,391,45,22.826043822686433,10.5325199072676
0.9080295259635731,0.48394159858821856,391,45,22.826043822686433,10.5325199072676
0.9128677080617141,0.4839367603098618,391,45,22.826043822686433,10.5325199072676
0.9177058417893807,0.48393192207987656,391,45,22.826043822686433,10.5325199072676
0.922543927147058,0.4839270838982622,391,45,22.826043822686433,10.5325199072676
0.9273819641352319,0.4839222457650184,391,45,22.826043822686433,10.5325199072676
0.9322199527543876,0.4839174076801445,391,45,22.826043822686433,10.5325199072676
0.9370578930050105,0.4839125696436402,391,45,22.826043822686433,10.5325199072676
0.9418957848875855,0.4839077316555048,391,45,22.826043822686433,10.5325199072676
0.9467336284025979,0.483902893715738,391,45,22.826043822686433,10.5325199072676
0.951571423550532,0.48389805582433926,391,45,22.826043822686433,10.5325199072676
0.9564091703318727,0.483893217981308,391,45,22.826043822686433,10.5325199072676
0.9612468687471047,0.4838883801866439,391,45,22.826043822686433,10.5325199072676
0.966084518796713,0.4838835424403463,391,45,22.826043822686433,10.5325199072676
0.9709221204811813,0.48387870474241484,391,45,22.826043822686433,10.5325199072676
0.9757596738009947,0.483873867092849,391,45,22.826043822686433,10.5325199072676
0.9805971787566369,0.48386902949164834,391,45,22.826043822686433,10.5325199072676
0.9854346353485927,0.4838641919388123,391,45,22.826043822686433,10.5325199072676
0.9902720435773463,0.4838593544343404,391,45,22.826043822686433,10.5325199072676
0.9951094034433814,0.48385451697823223,391,45,22.826043822686433,10.5325199072676
0.9999467149471827,0.4838496795704872,391,45,22.826043822686433,10.5325199072676
1.0047839780892334,0.4838448422111049,391,45,22.826043822686433,10.5325199072676
1.0096211928700183,0.48384000490008483,391,45,22.826043822686433,10.5325199072676
1.014458359290021,0.4838351676374265,391,45,22.826043822686433,10.5325199072676
1.0192954773497254,0.4838303304231295,391,45,22.826043822686433,10.5325199072676
1.0241325470496156,0.4838254932571932,391,45,22.826043822686433,10.5325199072676
1.028969568390175,0.4838206561396172,391,45,22.826043822686433,10.5325199072676
1.0338065413718878,0.48381581907040105,391,45,22.826043822686433,10.5325199072676
1.0386434659952377,0.4838109820495442,391,45,22.826043822686433,10.5325199072676
1.0434803422607084,0.4838061450770462,391,45,22.826043822686433,10.5325199072676
1.0483171701687837,0.48380130815290656,391,45,22.826043822686433,10.5325199072676
1.0531539497199471,0.4837964712771248,391,45,22.826043822686433,10.5325199072676
1.0579906809146824,0.4837916344497004,391,45,22.826043822686433,10.5325199072676
1.0628273637534735,0.48378679767063293,391,45,22.826043822686433,10.5325199072676
1.0676639982368037,0.4837819609399219,391,45,22.826043822686433,10.5325199072676
1.0725005843651567,0.48377712425756675,391,45,22.826043822686433,10.5325199072676
1.0773371221390162,0.4837722876235671,391,45,22.826043822686433,10.5325199072676
1.0821736115588656,0.4837674510379224,391,45,22.826043822686433,10.5325199072676
1.0870100526251887,0.48376261450063224,391,45,22.826043822686433,10.5325199072676
1.0918464453384689,0.483757778011696,391,45,22.826043822686433,10.5325199072676
1.0966827896991895,0.48375294157111337,391,45,22.826043822686433,10.5325199072676
1.1015190857078345,0.4837481051788837,391,45,22.826043822686433,10.5325199072676
1.1063553333648872,0.4837432688350066,391,45,22.826043822686433,10.5325199072676
1.111191532670831,0.4837384325394816,391,45,22.826043822686433,10.5325199072676
1.1160276836261498,0.4837335962923082,391,45,22.826043822686433,10.5325199072676
1.1208637862313264,0.4837287600934859,391,45,22.826043822686433,10.5325199072676
1.1256998404868446,0.4837239239430142,391,45,22.826043822686433,10.5325199072676
1.1305358463931876,0.4837190878408927,391,45,22.826043822686433,10.5325199072676
1.1353718039508396,0.48371425178712074,391,45,22.826043822686433,10.5325199072676
1.1402077131602832,0.483709415781698,391,45,22.826043822686433,10.5325199072676
1.1450435740220022,0.48370457982462395,391,45,22.826043822686433,10.5325199072676
1.14987938653648,0.48369974391589815,391,45,22.826043822686433,10.5325199072676
1.1547151507041997,0.48369490805552,391,45,22.826043822686433,10.5325199072676
1.1595508665256453,0.48369007224348914,391,45,22.826043822686433,10.5325199072676
1.1643865340012995,0.483685236479805,391,45,22.826043822686433,10.5325199072676
