Vout,Iout,Irradiance,Temperature,MaxVoltage,MaxPower
0.0008213621022874781,0.164274,131,52,22.795833597174795,3.2212429195223886
0.0024640711190997743,0.164274,131,52,22.795833597174795,3.2212429195223886
0.0041067467400497885,0.1642731622104977,131,52,22.795833597174795,3.2212429195223886
0.005749382998977783,0.16427151950148092,131,52,22.795833597174795,3.2212429195223886
0.007391977946039251,0.16426987682594374,131,52,22.795833597174795,3.2212429195223886
0.009034533496601289,0.16426823418984907,131,52,22.795833597174795,3.2212429195223886
0.010677051418726847,0.1642665915950663,131,52,22.795833597174795,3.2212429195223886
0.012319533344472177,0.16426494903967997,131,52,22.795833597174795,3.2212429195223886
0.013961980780333193,0.16426330652192211,131,52,22.795833597174795,3.2212429195223886
0.015604395116906254,0.16426166404016063,131,52,22.795833597174795,3.2212429195223886
0.01724677763780571,0.16426002159288902,131,52,22.795833597174795,3.2212429195223886
0.018889129527895197,0.1642583791787167,131,52,22.795833597174795,3.2212429195223886
0.02053145188088575,0.16425673679636005,131,52,22.795833597174795,3.2212429195223886
0.02217374570634916,0.16425509444463418,131,52,22.795833597174795,3.2212429195223886
0.023816011936191817,0.16425345212244544,131,52,22.795833597174795,3.2212429195223886
0.025458251430630397,0.1642518098287842,131,52,22.795833597174795,3.2212429195223886
0.027100464983707773,0.1642501675627186,131,52,22.795833597174795,3.2212429195223886
0.028742653328384545,0.16424852532338838,131,52,22.795833597174795,3.2212429195223886
0.030384817141238803,0.16424688310999955,131,52,22.795833597174795,3.2212429195223886
0.032026957046804284,0.16424524092181908,131,52,22.795833597174795,3.2212429195223886
0.033669073621574744,0.16424359875817046,131,52,22.795833597174795,3.2212429195223886
0.035311167397700224,0.1642419566184291,131,52,22.795833597174795,3.2212429195223886
0.03695323886639894,0.16424031450201856,131,52,22.795833597174795,3.2212429195223886
0.038595288481106625,0.16423867240840664,131,52,22.795833597174795,3.2212429195223886
0.04023731666038359,0.16423703033710216,131,52,22.795833597174795,3.2212429195223886
0.041879323790598076,0.16423538828765166,131,52,22.795833597174795,3.2212429195223886
0.04352131022840319,0.16423374625963658,131,52,22.795833597174795,3.2212429195223886
0.04516327630302319,0.16423210425267057,131,52,22.795833597174795,3.2212429195223886
0.04680522231836395,0.16423046226639698,131,52,22.795833597174795,3.2212429195223886
0.04844714855496093,0.16422882030048655,131,52,22.795833597174795,3.2212429195223886
0.05008905527177742,0.1642271783546354,131,52,22.795833597174795,3.2212429195223886
0.05173094270786431,0.16422553642856302,131,52,22.795833597174795,3.2212429195223886
0.05337281108389211,0.1642238945220104,131,52,22.795833597174795,3.2212429195223886
0.05501466060356526,0.1642222526347385,131,52,22.795833597174795,3.2212429195223886
0.05665649145492747,0.16422061076652666,131,52,22.795833597174795,3.2212429195223886
0.05829830381156669,0.16421896891717117,131,52,22.795833597174795,3.2212429195223886
0.05994009783372739,0.164217327086484,131,52,22.795833597174795,3.2212429195223886
0.0615818736693372,0.16421568527429153,131,52,22.795833597174795,3.2212429195223886
0.06322363145495455,0.16421404348043356,131,52,22.795833597174795,3.2212429195223886
0.0648653713166435,0.16421240170476215,131,52,22.795833597174795,3.2212429195223886
0.06650709337078117,0.1642107599471407,131,52,22.795833597174795,3.2212429195223886
0.0681487977248031,0.1642091182074432,131,52,22.795833597174795,3.2212429195223886
0.06979048447789114,0.16420747648555323,131,52,22.795833597174795,3.2212429195223886
0.07143215372160855,0.16420583478136339,131,52,22.795833597174795,3.2212429195223886
0.07307380554048626,0.16420419309477446,131,52,22.795833597174795,3.2212429195223886
0.07471544001256385,0.16420255142569493,131,52,22.795833597174795,3.2212429195223886
0.07635705720988899,0.1642009097740402,131,52,22.795833597174795,3.2212429195223886
0.07799865719897854,0.1641992681397323,131,52,22.795833597174795,3.2212429195223886
0.07964024004124416,0.16419762652269915,131,52,22.795833597174795,3.2212429195223886
0.08128180579338484,0.1641959849228742,131,52,22.795833597174795,3.2212429195223886
0.08292335450774989,0.16419434334019611,131,52,22.795833597174795,3.2212429195223886
0.0845648862326732,0.16419270177460812,131,52,22.795833597174795,3.2212429195223886
0.08620640101278261,0.16419106022605792,131,52,22.795833597174795,3.2212429195223886
0.08784789888928465,0.16418941869449716,131,52,22.795833597174795,3.2212429195223886
0.08948937990022812,0.1641877771798812,131,52,22.795833597174795,3.2212429195223886
0.09113084408074681,0.16418613568216886,131,52,22.795833597174795,3.2212429195223886
0.09277229146328396,0.16418449420132206,131,52,22.795833597174795,3.2212429195223886
0.09441372207779916,0.16418285273730568,131,52,22.795833597174795,3.2212429195223886
0.09605513595195948,0.1641812112900873,131,52,22.795833597174795,3.2212429195223886
0.09769653311131588,0.16417956985963694,131,52,22.795833597174795,3.2212429195223886
0.09933791357946598,0.1641779284459269,131,52,22.795833597174795,3.2212429195223886
0.10097927737820446,0.1641762870489317,131,52,22.795833597174795,3.2212429195223886
0.10262062452766159,0.1641746456686277,131,52,22.795833597174795,3.2212429195223886
0.10426195504643151,0.1641730043049931,131,52,22.795833597174795,3.2212429195223886
0.10590326895169028,0.16417136295800777,131,52,22.795833597174795,3.2212429195223886
0.107544566259305,0.16416972162765314,131,52,22.795833597174795,3.2212429195223886
0.10918584698393462,0.16416808031391203,131,52,22.795833597174795,3.2212429195223886
0.11082711113912272,0.16416643901676853,131,52,22.795833597174795,3.2212429195223886
0.11246835873738356,0.16416479773620804,131,52,22.795833597174795,3.2212429195223886
0.11410958979028107,0.164163156472217,131,52,22.795833597174795,3.2212429195223886
0.11575080430850211,0.16416151522478284,131,52,22.795833597174795,3.2212429195223886
0.11739200230192381,0.16415987399389406,131,52,22.795833597174795,3.2212429195223886
0.11903318377967605,0.16415823277953998,131,52,22.795833597174795,3.2212429195223886
0.12067434875019883,0.16415659158171067,131,52,22.795833597174795,3.2212429195223886
0.1223154972212954,0.16415495040039704,131,52,22.795833597174795,3.2212429195223886
0.12395662920018115,0.16415330923559066,131,52,22.795833597174795,3.2212429195223886
0.12559774469352908,0.16415166808728368,131,52,22.795833597174795,3.2212429195223886
0.12723884370751123,0.1641500269554689,131,52,22.795833597174795,3.2212429195223886
0.12887992624783745,0.16414838584013966,131,52,22.795833597174795,3.2212429195223886
0.13052099231979092,0.1641467447412898,131,52,22.795833597174795,3.2212429195223886
0.13216204192826084,0.16414510365891358,131,52,22.795833597174795,3.2212429195223886
0.13380307507777287,0.16414346259300575,131,52,22.795833597174795,3.2212429195223886
0.13544409177251712,0.16414182154356138,131,52,22.795833597174795,3.2212429195223886
0.13708509201637398,0.16414018051057597,131,52,22.795833597174795,3.2212429195223886
0.13872607581293778,0.16413853949404533,131,52,22.795833597174795,3.2212429195223886
0.14036704316553894,0.16413689849396557,131,52,22.795833597174795,3.2212429195223886
0.14200799407726428,0.16413525751033312,131,52,22.795833597174795,3.2212429195223886
0.14364892855097575,0.16413361654314462,131,52,22.795833597174795,3.2212429195223886
0.1452898465893277,0.16413197559239698,131,52,22.795833597174795,3.2212429195223886
0.14693074819478286,0.16413033465808738,131,52,22.795833597174795,3.2212429195223886
0.14857163336962706,0.1641286937402131,131,52,22.795833597174795,3.2212429195223886
0.15021250211598294,0.16412705283877174,131,52,22.795833597174795,3.2212429195223886
0.1518533544358224,0.164125411953761,131,52,22.795833597174795,3.2212429195223886
0.15349419033097822,0.16412377108517873,131,52,22.795833597174795,3.2212429195223886
0.15513500980315484,0.164122130233023,131,52,22.795833597174795,3.2212429195223886
0.15677581285393805,0.16412048939729193,131,52,22.795833597174795,3.2212429195223886
0.1584165994848044,0.1641188485779838,131,52,22.795833597174795,3.2212429195223886
0.1600573696971294,0.1641172077750971,131,52,22.795833597174795,3.2212429195223886
0.16169812349219526,0.16411556698863033,131,52,22.795833597174795,3.2212429195223886
0.16333886087119823,0.1641139262185821,131,52,22.795833597174795,3.2212429195223886
0.16497958183525507,0.1641122854649511,131,52,22.795833597174795,3.2212429195223886
0.16662028638540943,0.16411064472773618,131,52,22.795833597174795,3.2212429195223886
0.16826097452263702,0.1641090040069362,131,52,22.795833597174795,3.2212429195223886
0.16990164624785117,0.16410736330255013,131,52,22.795833597174795,3.2212429195223886
0.17154230156190767,0.16410572261457695,131,52,22.795833597174795,3.2212429195223886
0.17318294046560892,0.16410408194301582,131,52,22.795833597174795,3.2212429195223886
0.17482356295970836,0.16410244128786583,131,52,22.795833597174795,3.2212429195223886
0.17646416904491388,0.1641008006491262,131,52,22.795833597174795,3.2212429195223886
0.17810475872189166,0.16409916002679617,131,52,22.795833597174795,3.2212429195223886
0.17974533199126927,0.16409751942087503,131,52,22.795833597174795,3.2212429195223886
0.18138588885363852,0.16409587883136212,131,52,22.795833597174795,3.2212429195223886
0.18302642930955823,0.16409423825825678,131,52,22.795833597174795,3.2212429195223886
0.18466695335955707,0.16409259770155848,131,52,22.795833597174795,3.2212429195223886
0.18630746100413545,0.16409095716126662,131,52,22.795833597174795,3.2212429195223886
0.18794795224376795,0.1640893166373807,131,52,22.795833597174795,3.2212429195223886
0.18958842707890528,0.16408767612990016,131,52,22.795833597174795,3.2212429195223886
0.19122888550997602,0.16408603563882457,131,52,22.795833597174795,3.2212429195223886
0.1928693275373885,0.1640843951641535,131,52,22.795833597174795,3.2212429195223886
0.19450975316153213,0.16408275470588646,131,52,22.795833597174795,3.2212429195223886
0.196150162382779,0.1640811142640231,131,52,22.795833597174795,3.2212429195223886
0.19779055520148522,0.164079473838563,131,52,22.795833597174795,3.2212429195223886
0.19943093161799205,0.1640778334295058,131,52,22.795833597174795,3.2212429195223886
0.2010712916326273,0.16407619303685114,131,52,22.795833597174795,3.2212429195223886
0.20271163524570593,0.16407455266059867,131,52,22.795833597174795,3.2212429195223886
0.20435196245753137,0.16407291230074808,131,52,22.795833597174795,3.2212429195223886
0.20599227326839634,0.16407127195729904,131,52,22.795833597174795,3.2212429195223886
0.20763256767858365,0.16406963163025123,131,52,22.795833597174795,3.2212429195223886
0.209272845688367,0.16406799131960442,131,52,22.795833597174795,3.2212429195223886
0.21091310729801147,0.16406635102535827,131,52,22.795833597174795,3.2212429195223886
0.21255335250777452,0.1640647107475125,131,52,22.795833597174795,3.2212429195223886
0.2141935813179065,0.1640630704860669,131,52,22.795833597174795,3.2212429195223886
0.21583379372865086,0.16406143024102116,131,52,22.795833597174795,3.2212429195223886
0.21747398974024512,0.16405979001237506,131,52,22.795833597174795,3.2212429195223886
0.219114169352921,0.16405814980012834,131,52,22.795833597174795,3.2212429195223886
0.22075433256690516,0.16405650960428075,131,52,22.795833597174795,3.2212429195223886
0.22239447938241924,0.1640548694248321,131,52,22.795833597174795,3.2212429195223886
0.22403460979968073,0.16405322926178215,131,52,22.795833597174795,3.2212429195223886
0.2256747238189026,0.16405158911513065,131,52,22.795833597174795,3.2212429195223886
0.2273148214402945,0.1640499489848774,131,52,22.795833597174795,3.2212429195223886
0.22895490266406213,0.1640483088710222,131,52,22.795833597174795,3.2212429195223886
0.2305949674904083,0.1640466687735648,131,52,22.795833597174795,3.2212429195223886
0.23223501591953258,0.16404502869250506,131,52,22.795833597174795,3.2212429195223886
0.233875047951632,0.1640433886278427,131,52,22.795833597174795,3.2212429195223886
0.23551506358690094,0.1640417485795776,131,52,22.795833597174795,3.2212429195223886
0.23715506282553142,0.1640401085477095,131,52,22.795833597174795,3.2212429195223886
0.2387950456677133,0.16403846853223825,131,52,22.795833597174795,3.2212429195223886
0.24043501211363455,0.16403682853316362,131,52,22.795833597174795,3.2212429195223886
0.24207496216348118,0.16403518855048543,131,52,22.795833597174795,3.2212429195223886
0.24371489581743752,0.16403354858420352,131,52,22.795833597174795,3.2212429195223886
0.24535481307568635,0.16403190863431766,131,52,22.795833597174795,3.2212429195223886
0.246994713938409,0.1640302687008277,131,52,22.795833597174795,3.2212429195223886
0.24863459840578536,0.16402862878373345,131,52,22.795833597174795,3.2212429195223886
0.25027446647799423,0.1640269888830347,131,52,22.795833597174795,3.2212429195223886
0.2519143181552132,0.16402534899873134,131,52,22.795833597174795,3.2212429195223886
0.2535541534376187,0.16402370913082312,131,52,22.795833597174795,3.2212429195223886
0.25519397232538654,0.1640220692793099,131,52,22.795833597174795,3.2212429195223886
0.2568337748186912,0.16402042944419148,131,52,22.795833597174795,3.2212429195223886
0.2584735609177065,0.16401878962546768,131,52,22.795833597174795,3.2212429195223886
0.26011333062260567,0.16401714982313836,131,52,22.795833597174795,3.2212429195223886
0.26175308393356084,0.16401551003720333,131,52,22.795833597174795,3.2212429195223886
0.26339282085074395,0.16401387026766243,131,52,22.795833597174795,3.2212429195223886
0.265032541374326,0.16401223051451544,131,52,22.795833597174795,3.2212429195223886
0.26667224550447755,0.16401059077776223,131,52,22.795833597174795,3.2212429195223886
0.2683119332413686,0.16400895105740262,131,52,22.795833597174795,3.2212429195223886
0.26995160458516876,0.16400731135343644,131,52,22.795833597174795,3.2212429195223886
0.2715912595360473,0.16400567166586352,131,52,22.795833597174795,3.2212429195223886
0.27323089809417267,0.1640040319946837,131,52,22.795833597174795,3.2212429195223886
0.2748705202597134,0.1640023923398968,131,52,22.795833597174795,3.2212429195223886
0.27651012603283753,0.16400075270150263,131,52,22.795833597174795,3.2212429195223886
0.27814971541371253,0.16399911307950105,131,52,22.795833597174795,3.2212429195223886
0.27978928840250594,0.1639974734738919,131,52,22.795833597174795,3.2212429195223886
0.28142884499938486,0.16399583388467498,131,52,22.795833597174795,3.2212429195223886
0.2830683852045162,0.16399419431185014,131,52,22.795833597174795,3.2212429195223886
0.28470790901806653,0.16399255475541724,131,52,22.795833597174795,3.2212429195223886
0.2863474164402023,0.16399091521537607,131,52,22.795833597174795,3.2212429195223886
0.28798690747108974,0.16398927569172647,131,52,22.795833597174795,3.2212429195223886
0.2896263821108949,0.16398763618446827,131,52,22.795833597174795,3.2212429195223886
0.29126584035978365,0.16398599669360134,131,52,22.795833597174795,3.2212429195223886
0.2929052822179217,0.1639843572191255,131,52,22.795833597174795,3.2212429195223886
0.29454470768547464,0.16398271776104056,131,52,22.795833597174795,3.2212429195223886
0.2961841167626079,0.16398107831934636,131,52,22.795833597174795,3.2212429195223886
0.2978235094494868,0.16397943889404276,131,52,22.795833597174795,3.2212429195223886
0.2994628857462766,0.16397779948512956,131,52,22.795833597174795,3.2212429195223886
0.3011022456531422,0.16397616009260663,131,52,22.795833597174795,3.2212429195223886
0.30274158917024885,0.16397452071647378,131,52,22.795833597174795,3.2212429195223886
0.3043809162977613,0.16397288135673085,131,52,22.795833597174795,3.2212429195223886
0.30602022703584447,0.16397124201337768,131,52,22.795833597174795,3.2212429195223886
0.3076595213846632,0.1639696026864141,131,52,22.795833597174795,3.2212429195223886
0.3092987993443819,0.16396796337583996,131,52,22.795833597174795,3.2212429195223886
0.31093806091516546,0.16396632408165507,131,52,22.795833597174795,3.2212429195223886
0.31257730609717826,0.16396468480385928,131,52,22.795833597174795,3.2212429195223886
0.31421653489058504,0.16396304554245242,131,52,22.795833597174795,3.2212429195223886
0.31585574729554994,0.16396140629743433,131,52,22.795833597174795,3.2212429195223886
0.3174949433122376,0.16395976706880486,131,52,22.795833597174795,3.2212429195223886
0.31913412294081217,0.16395812785656383,131,52,22.795833597174795,3.2212429195223886
0.32077328618143813,0.16395648866071105,131,52,22.795833597174795,3.2212429195223886
0.32241243303427974,0.16395484948124642,131,52,22.795833597174795,3.2212429195223886
0.3240515634995012,0.1639532103181697,131,52,22.795833597174795,3.2212429195223886
0.3256906775772668,0.16395157117148076,131,52,22.795833597174795,3.2212429195223886
0.3273297752677406,0.16394993204117947,131,52,22.795833597174795,3.2212429195223886
0.32896885657108677,0.16394829292726562,131,52,22.795833597174795,3.2212429195223886
0.3306079214874696,0.16394665382973905,131,52,22.795833597174795,3.2212429195223886
0.33224697001705294,0.16394501474859963,131,52,22.795833597174795,3.2212429195223886
0.3338860021600011,0.16394337568384715,131,52,22.795833597174795,3.2212429195223886
0.33552501791647793,0.16394173663548148,131,52,22.795833597174795,3.2212429195223886
0.3371640172866476,0.16394009760350242,131,52,22.795833597174795,3.2212429195223886
0.338803000270674,0.16393845858790987,131,52,22.795833597174795,3.2212429195223886
0.3404419668687213,0.1639368195887036,131,52,22.795833597174795,3.2212429195223886
0.34208091708095356,0.16393518060588347,131,52,22.795833597174795,3.2212429195223886
0.3437198509075345,0.16393354163944932,131,52,22.795833597174795,3.2212429195223886
0.3453587683486282,0.163931902689401,131,52,22.795833597174795,3.2212429195223886
0.3469976694043986,0.1639302637557383,131,52,22.795833597174795,3.2212429195223886
0.3486365540750097,0.1639286248384611,131,52,22.795833597174795,3.2212429195223886
0.35027542236062525,0.16392698593756924,131,52,22.795833597174795,3.2212429195223886
0.3519142742614095,0.1639253470530625,131,52,22.795833597174795,3.2212429195223886
0.353553109777526,0.1639237081849408,131,52,22.795833597174795,3.2212429195223886
0.3551919289091388,0.16392206933320388,131,52,22.795833597174795,3.2212429195223886
0.35683073165641166,0.16392043049785165,131,52,22.795833597174795,3.2212429195223886
0.35846951801950877,0.16391879167888393,131,52,22.795833597174795,3.2212429195223886
0.3601082879985938,0.16391715287630054,131,52,22.795833597174795,3.2212429195223886
0.36174704159383053,0.16391551409010133,131,52,22.795833597174795,3.2212429195223886
0.3633857788053829,0.16391387532028612,131,52,22.795833597174795,3.2212429195223886
0.36502449963341477,0.16391223656685477,131,52,22.795833597174795,3.2212429195223886
0.3666632040780901,0.16391059782980708,131,52,22.795833597174795,3.2212429195223886
0.36830189213957254,0.16390895910914294,131,52,22.795833597174795,3.2212429195223886
0.36994056381802604,0.16390732040486214,131,52,22.795833597174795,3.2212429195223886
0.37157921911361436,0.1639056817169645,131,52,22.795833597174795,3.2212429195223886
0.3732178580265015,0.16390404304544995,131,52,22.795833597174795,3.2212429195223886
0.3748564805568509,0.16390240439031822,131,52,22.795833597174795,3.2212429195223886
0.37649508670482684,0.1639007657515692,131,52,22.795833597174795,3.2212429195223886
0.3781336764705928,0.1638991271292027,131,52,22.795833597174795,3.2212429195223886
0.37977224985431285,0.16389748852321862,131,52,22.795833597174795,3.2212429195223886
0.3814108068561505,0.1638958499336167,131,52,22.795833597174795,3.2212429195223886
