Vout,Iout,Irradiance,Temperature,MaxVoltage,MaxPower
0.008913224295920232,1.7826619999999997,1561,-4,19.805873544083788,34.915600169796456
0.026739508073807428,1.7826619999999997,1561,-4,19.805873544083788,34.915600169796456
0.04456542944781666,1.7826529085095038,1561,-4,19.805873544083788,34.915600169796456
0.06239092367461516,1.782635082225726,1561,-4,19.805873544083788,34.915600169796456
0.08021596959495855,1.7826172563052611,1561,-4,19.805873544083788,34.915600169796456
0.0980405879939506,1.7825994308128168,1561,-4,19.805873544083788,34.915600169796456
0.11586479805818593,1.7825816057686792,1561,-4,19.805873544083788,34.915600169796456
0.13368861749834704,1.7825637811520627,1561,-4,19.805873544083788,34.915600169796456
0.15151206266256573,1.782545956943781,1561,-4,19.805873544083788,34.915600169796456
0.16933514864125992,1.7825281331261233,1561,-4,19.805873544083788,34.915600169796456
0.18715788936390412,1.7825103096827415,1561,-4,19.805873544083788,34.915600169796456
0.20498029768835424,1.7824924865985452,1561,-4,19.805873544083788,34.915600169796456
0.22280238548329956,1.782474663859605,1561,-4,19.805873544083788,34.915600169796456
0.24062416370437079,1.7824568414530628,1561,-4,19.805873544083788,34.915600169796456
0.2584456424643923,1.78243901936705,1561,-4,19.805873544083788,34.915600169796456
0.27626683109822886,1.7824211975906112,1561,-4,19.805873544083788,34.915600169796456
0.29408773822264306,1.7824033761136333,1561,-4,19.805873544083788,34.915600169796456
0.31190837179154735,1.7823855549267817,1561,-4,19.805873544083788,34.915600169796456
0.32972873914700473,1.7823677340214394,1561,-4,19.805873544083788,34.915600169796456
0.3475488470663052,1.7823499133896528,1561,-4,19.805873544083788,34.915600169796456
0.3653687018054207,1.7823320930240794,1561,-4,19.805873544083788,34.915600169796456
0.38318830913911567,1.7823142729179422,1561,-4,19.805873544083788,34.915600169796456
0.40100767439797214,1.782296453064985,1561,-4,19.805873544083788,34.915600169796456
0.4188268025025658,1.7822786334594334,1561,-4,19.805873544083788,34.915600169796456
0.4366456979950128,1.7822608140959564,1561,-4,19.805873544083788,34.915600169796456
0.45446436506808846,1.782242994969634,1561,-4,19.805873544083788,34.915600169796456
0.47228280759210645,1.7822251760759233,1561,-4,19.805873544083788,34.915600169796456
0.4901010291397294,1.782207357410632,1561,-4,19.805873544083788,34.915600169796456
0.5079190330088709,1.78218953896989,1561,-4,19.805873544083788,34.915600169796456
0.5257368222438348,1.7821717207501242,1561,-4,19.805873544083788,34.915600169796456
0.5435543996548281,1.782153902748037,1561,-4,19.805873544083788,34.915600169796456
0.5613717678359738,1.7821360849605838,1561,-4,19.805873544083788,34.915600169796456
0.5791889291819353,1.7821182673849547,1561,-4,19.805873544083788,34.915600169796456
0.5970058859032642,1.7821004500185553,1561,-4,19.805873544083788,34.915600169796456
0.6148226400405655,1.7820826328589912,1561,-4,19.805873544083788,34.915600169796456
0.6326391934775746,1.7820648159040515,1561,-4,19.805873544083788,34.915600169796456
0.6504555479532252,1.7820469991516958,1561,-4,19.805873544083788,34.915600169796456
0.6682717050727927,1.7820291826000405,1561,-4,19.805873544083788,34.915600169796456
0.6860876663181766,1.7820113662473467,1561,-4,19.805873544083788,34.915600169796456
0.7039034330573937,1.7819935500920088,1561,-4,19.805873544083788,34.915600169796456
0.7217190065533405,1.7819757341325448,1561,-4,19.805873544083788,34.915600169796456
0.7395343879718816,1.7819579183675873,1561,-4,19.805873544083788,34.915600169796456
0.7573495783893149,1.781940102795873,1561,-4,19.805873544083788,34.915600169796456
0.7751645787992631,1.781922287416236,1561,-4,19.805873544083788,34.915600169796456
0.7929793901190348,1.7819044722276,1561,-4,19.805873544083788,34.915600169796456
0.8107940131954969,1.7818866572289718,1561,-4,19.805873544083788,34.915600169796456
0.8286084488104942,1.7818688424194336,1561,-4,19.805873544083788,34.915600169796456
0.8464226976858512,1.7818510277981385,1561,-4,19.805873544083788,34.915600169796456
0.8642367604879918,1.7818332133643051,1561,-4,19.805873544083788,34.915600169796456
0.8820506378322014,1.7818153991172112,1561,-4,19.805873544083788,34.915600169796456
0.8998643302865604,1.7817975850561905,1561,-4,19.805873544083788,34.915600169796456
0.9176778383755783,1.7817797711806276,1561,-4,19.805873544083788,34.915600169796456
0.935491162583544,1.7817619574899546,1561,-4,19.805873544083788,34.915600169796456
0.953304303357622,1.781744143983647,1561,-4,19.805873544083788,34.915600169796456
0.9711172611107083,1.7817263306612205,1561,-4,19.805873544083788,34.915600169796456
0.9889300362240666,1.7817085175222278,1561,-4,19.805873544083788,34.915600169796456
1.006742629049763,1.781690704566256,1561,-4,19.805873544083788,34.915600169796456
1.0245550399129117,1.7816728917929239,1561,-4,19.805873544083788,34.915600169796456
1.042367269113749,1.7816550792018795,1561,-4,19.805873544083788,34.915600169796456
1.0601793169295484,1.7816372667927975,1561,-4,19.805873544083788,34.915600169796456
1.0779911836163854,1.781619454565378,1561,-4,19.805873544083788,34.915600169796456
1.0958028694107695,1.7816016425193435,1561,-4,19.805873544083788,34.915600169796456
1.113614374531151,1.7815838306544378,1561,-4,19.805873544083788,34.915600169796456
1.1314256991793088,1.7815660189704248,1561,-4,19.805873544083788,34.915600169796456
1.1492368435416325,1.7815482074670854,1561,-4,19.805873544083788,34.915600169796456
1.1670478077903088,1.7815303961442186,1561,-4,19.805873544083788,34.915600169796456
1.1848585920844128,1.7815125850016373,1561,-4,19.805873544083788,34.915600169796456
1.2026691965709166,1.7814947740391698,1561,-4,19.805873544083788,34.915600169796456
1.2204796213856217,1.781476963256657,1561,-4,19.805873544083788,34.915600169796456
1.2382898666540172,1.7814591526539514,1561,-4,19.805873544083788,34.915600169796456
1.2560999324920739,1.7814413422309179,1561,-4,19.805873544083788,34.915600169796456
1.2739098190069766,1.7814235319874305,1561,-4,19.805873544083788,34.915600169796456
1.2917195262978003,1.7814057219233734,1561,-4,19.805873544083788,34.915600169796456
1.3095290544561338,1.7813879120386396,1561,-4,19.805873544083788,34.915600169796456
1.3273384035666558,1.7813701023331296,1561,-4,19.805873544083788,34.915600169796456
1.3451475737076675,1.7813522928067524,1561,-4,19.805873544083788,34.915600169796456
1.3629565649515805,1.781334483459423,1561,-4,19.805873544083788,34.915600169796456
1.3807653773653736,1.7813166742910629,1561,-4,19.805873544083788,34.915600169796456
1.3985740110110083,1.7812988653015998,1561,-4,19.805873544083788,34.915600169796456
1.4163824659458162,1.781281056490967,1561,-4,19.805873544083788,34.915600169796456
1.4341907422228541,1.7812632478591022,1561,-4,19.805873544083788,34.915600169796456
1.451998839891234,1.7812454394059483,1561,-4,19.805873544083788,34.915600169796456
1.4698067589964257,1.781227631131452,1561,-4,19.805873544083788,34.915600169796456
1.4876144995805372,1.7812098230355646,1561,-4,19.805873544083788,34.915600169796456
1.5054220616825738,1.78119201511824,1561,-4,19.805873544083788,34.915600169796456
1.523229445338677,1.781174207379437,1561,-4,19.805873544083788,34.915600169796456
1.5410366505823438,1.7811563998191156,1561,-4,19.805873544083788,34.915600169796456
1.558843677444632,1.7811385924372403,1561,-4,19.805873544083788,34.915600169796456
1.5766505259543449,1.7811207852337774,1561,-4,19.805873544083788,34.915600169796456
1.5944571961382077,1.7811029782086958,1561,-4,19.805873544083788,34.915600169796456
1.6122636880210264,1.7810851713619669,1561,-4,19.805873544083788,34.915600169796456
1.6300700016258347,1.7810673646935637,1561,-4,19.805873544083788,34.915600169796456
1.6478761369740307,1.7810495582034616,1561,-4,19.805873544083788,34.915600169796456
1.6656820940855046,1.7810317518916374,1561,-4,19.805873544083788,34.915600169796456
1.6834878729787517,1.7810139457580698,1561,-4,19.805873544083788,34.915600169796456
1.7012934736709808,1.780996139802739,1561,-4,19.805873544083788,34.915600169796456
1.7190988961782159,1.7809783340256264,1561,-4,19.805873544083788,34.915600169796456
1.7369041405153822,1.7809605284267147,1561,-4,19.805873544083788,34.915600169796456
1.7547092066963947,1.7809427230059882,1561,-4,19.805873544083788,34.915600169796456
1.7725140947342355,1.7809249177634314,1561,-4,19.805873544083788,34.915600169796456
1.790318804641023,1.780907112699031,1561,-4,19.805873544083788,34.915600169796456
1.808123336428081,1.7808893078127737,1561,-4,19.805873544083788,34.915600169796456
1.8259276901059995,1.7808715031046474,1561,-4,19.805873544083788,34.915600169796456
1.8437318656846897,1.7808536985746408,1561,-4,19.805873544083788,34.915600169796456
1.8615358631734376,1.7808358942227434,1561,-4,19.805873544083788,34.915600169796456
1.8793396825809516,1.7808180900489452,1561,-4,19.805873544083788,34.915600169796456
1.8971433239154067,1.7808002860532368,1561,-4,19.805873544083788,34.915600169796456
1.9149467871844856,1.7807824822356098,1561,-4,19.805873544083788,34.915600169796456
1.9327500723954179,1.7807646785960558,1561,-4,19.805873544083788,34.915600169796456
1.9505531795550124,1.780746875134567,1561,-4,19.805873544083788,34.915600169796456
1.968356108669692,1.7807290718511364,1561,-4,19.805873544083788,34.915600169796456
1.9861588597455215,1.7807112687457571,1561,-4,19.805873544083788,34.915600169796456
2.0039614327882367,1.7806934658184228,1561,-4,19.805873544083788,34.915600169796456
2.021763827803269,1.7806756630691274,1561,-4,19.805873544083788,34.915600169796456
2.039566044795768,1.780657860497865,1561,-4,19.805873544083788,34.915600169796456
2.057368083770624,1.7806400581046302,1561,-4,19.805873544083788,34.915600169796456
2.075169944732489,1.780622255889418,1561,-4,19.805873544083788,34.915600169796456
2.092971627685794,1.7806044538522232,1561,-4,19.805873544083788,34.915600169796456
2.1107731326347636,1.7805866519930416,1561,-4,19.805873544083788,34.915600169796456
2.128574459583437,1.7805688503118686,1561,-4,19.805873544083788,34.915600169796456
2.1463756085356778,1.7805510488086997,1561,-4,19.805873544083788,34.915600169796456
2.164176579495191,1.7805332474835314,1561,-4,19.805873544083788,34.915600169796456
2.181977372465531,1.7805154463363593,1561,-4,19.805873544083788,34.915600169796456
2.1997779874501173,1.78049764536718,1561,-4,19.805873544083788,34.915600169796456
2.217578424452243,1.7804798445759895,1561,-4,19.805873544083788,34.915600169796456
2.235378683475084,1.7804620439627852,1561,-4,19.805873544083788,34.915600169796456
2.253178764521709,1.7804442435275631,1561,-4,19.805873544083788,34.915600169796456
2.270978667595088,1.7804264432703203,1561,-4,19.805873544083788,34.915600169796456
2.288778392698099,1.7804086431910537,1561,-4,19.805873544083788,34.915600169796456
2.3065779398335358,1.7803908432897604,1561,-4,19.805873544083788,34.915600169796456
2.324377309004113,1.7803730435664373,1561,-4,19.805873544083788,34.915600169796456
2.3421765002124744,1.780355244021082,1561,-4,19.805873544083788,34.915600169796456
2.359975513461196,1.7803374446536913,1561,-4,19.805873544083788,34.915600169796456
2.3777743487527943,1.780319645464263,1561,-4,19.805873544083788,34.915600169796456
2.3955730060897285,1.780301846452794,1561,-4,19.805873544083788,34.915600169796456
2.413371485474403,1.7802840476192825,1561,-4,19.805873544083788,34.915600169796456
2.431169786909177,1.7802662489637253,1561,-4,19.805873544083788,34.915600169796456
2.4489679103963646,1.7802484504861207,1561,-4,19.805873544083788,34.915600169796456
2.4667658559382373,1.7802306521864657,1561,-4,19.805873544083788,34.915600169796456
2.4845636235370296,1.7802128540647584,1561,-4,19.805873544083788,34.915600169796456
2.5023612131949418,1.7801950561209963,1561,-4,19.805873544083788,34.915600169796456
2.5201586249141403,1.7801772583551774,1561,-4,19.805873544083788,34.915600169796456
2.537955858696762,1.7801594607672993,1561,-4,19.805873544083788,34.915600169796456
2.5557529145449163,1.7801416633573597,1561,-4,19.805873544083788,34.915600169796456
2.5735497924606885,1.780123866125357,1561,-4,19.805873544083788,34.915600169796456
2.591346492446138,1.7801060690712884,1561,-4,19.805873544083788,34.915600169796456
2.609143014503304,1.7800882721951525,1561,-4,19.805873544083788,34.915600169796456
2.6269393586342056,1.7800704754969467,1561,-4,19.805873544083788,34.915600169796456
2.6447355248408426,1.7800526789766693,1561,-4,19.805873544083788,34.915600169796456
2.6625315131251983,1.780034882634318,1561,-4,19.805873544083788,34.915600169796456
2.6803273234892417,1.780017086469891,1561,-4,19.805873544083788,34.915600169796456
2.6981229559349247,1.7799992904833863,1561,-4,19.805873544083788,34.915600169796456
2.715918410464187,1.7799814946748018,1561,-4,19.805873544083788,34.915600169796456
2.733713687078956,1.7799636990441359,1561,-4,19.805873544083788,34.915600169796456
2.7515087857811467,1.779945903591386,1561,-4,19.805873544083788,34.915600169796456
2.7693037065726647,1.7799281083165508,1561,-4,19.805873544083788,34.915600169796456
2.787098449455406,1.7799103132196283,1561,-4,19.805873544083788,34.915600169796456
2.8048930144312565,1.7798925183006162,1561,-4,19.805873544083788,34.915600169796456
2.822687401502094,1.779874723559513,1561,-4,19.805873544083788,34.915600169796456
2.84048161066979,1.7798569289963166,1561,-4,19.805873544083788,34.915600169796456
2.8582756419362068,1.7798391346110254,1561,-4,19.805873544083788,34.915600169796456
2.8760694953032027,1.7798213404036372,1561,-4,19.805873544083788,34.915600169796456
2.8938631707726263,1.7798035463741502,1561,-4,19.805873544083788,34.915600169796456
2.911656668346325,1.7797857525225624,1561,-4,19.805873544083788,34.915600169796456
2.9294499880261387,1.7797679588488724,1561,-4,19.805873544083788,34.915600169796456
2.9472431298139012,1.779750165353078,1561,-4,19.805873544083788,34.915600169796456
2.9650360937114444,1.7797323720351776,1561,-4,19.805873544083788,34.915600169796456
2.9828288797205946,1.7797145788951694,1561,-4,19.805873544083788,34.915600169796456
3.000621487843176,1.779696785933051,1561,-4,19.805873544083788,34.915600169796456
3.018413918081007,1.7796789931488213,1561,-4,19.805873544083788,34.915600169796456
3.0362061704359045,1.779661200542478,1561,-4,19.805873544083788,34.915600169796456
3.0539982449096823,1.7796434081140193,1561,-4,19.805873544083788,34.915600169796456
3.071790141504152,1.7796256158634438,1561,-4,19.805873544083788,34.915600169796456
3.0895818602211205,1.7796078237907493,1561,-4,19.805873544083788,34.915600169796456
3.107373401062394,1.779590031895934,1561,-4,19.805873544083788,34.915600169796456
3.1251647640297775,1.7795722401789962,1561,-4,19.805873544083788,34.915600169796456
3.1429559491250716,1.7795544486399342,1561,-4,19.805873544083788,34.915600169796456
3.1607469563500765,1.7795366572787459,1561,-4,19.805873544083788,34.915600169796456
3.178537785706591,1.7795188660954298,1561,-4,19.805873544083788,34.915600169796456
3.1963284371964114,1.779501075089984,1561,-4,19.805873544083788,34.915600169796456
3.2141189108213335,1.7794832842624067,1561,-4,19.805873544083788,34.915600169796456
3.231909206583151,1.779465493612696,1561,-4,19.805873544083788,34.915600169796456
3.2496993244836565,1.77944770314085,1561,-4,19.805873544083788,34.915600169796456
3.2674892645246434,1.7794299128468671,1561,-4,19.805873544083788,34.915600169796456
3.2852790267079004,1.7794121227307458,1561,-4,19.805873544083788,34.915600169796456
3.3030686110352176,1.7793943327924837,1561,-4,19.805873544083788,34.915600169796456
3.3208580175083835,1.7793765430320796,1561,-4,19.805873544083788,34.915600169796456
3.338647246129186,1.7793587534495312,1561,-4,19.805873544083788,34.915600169796456
3.3564362968994126,1.779340964044837,1561,-4,19.805873544083788,34.915600169796456
3.37422516982085,1.7793231748179952,1561,-4,19.805873544083788,34.915600169796456
3.3920138648952824,1.779305385769004,1561,-4,19.805873544083788,34.915600169796456
3.409802382124497,1.7792875968978614,1561,-4,19.805873544083788,34.915600169796456
3.4275907215102768,1.779269808204566,1561,-4,19.805873544083788,34.915600169796456
3.4453788830544068,1.7792520196891155,1561,-4,19.805873544083788,34.915600169796456
3.463166866758669,1.7792342313515086,1561,-4,19.805873544083788,34.915600169796456
3.480954672624849,1.7792164431917434,1561,-4,19.805873544083788,34.915600169796456
3.4987423006547274,1.779198655209818,1561,-4,19.805873544083788,34.915600169796456
3.516529750850088,1.7791808674057306,1561,-4,19.805873544083788,34.915600169796456
3.534317023212713,1.7791630797794795,1561,-4,19.805873544083788,34.915600169796456
3.5521041177443817,1.7791452923310629,1561,-4,19.805873544083788,34.915600169796456
3.5698910344468775,1.7791275050604791,1561,-4,19.805873544083788,34.915600169796456
3.587677773321981,1.7791097179677262,1561,-4,19.805873544083788,34.915600169796456
3.605464334371472,1.7790919310528024,1561,-4,19.805873544083788,34.915600169796456
3.623250717597132,1.7790741443157059,1561,-4,19.805873544083788,34.915600169796456
3.6410369230007413,1.7790563577564351,1561,-4,19.805873544083788,34.915600169796456
3.65882295058408,1.779038571374988,1561,-4,19.805873544083788,34.915600169796456
3.6766088003489275,1.7790207851713633,1561,-4,19.805873544083788,34.915600169796456
3.694394472297065,1.7790029991455585,1561,-4,19.805873544083788,34.915600169796456
3.7121799664302704,1.7789852132975723,1561,-4,19.805873544083788,34.915600169796456
3.7299652827503245,1.7789674276274028,1561,-4,19.805873544083788,34.915600169796456
3.747750421259005,1.7789496421350481,1561,-4,19.805873544083788,34.915600169796456
3.7655353819580917,1.7789318568205066,1561,-4,19.805873544083788,34.915600169796456
3.7833201648493637,1.7789140716837766,1561,-4,19.805873544083788,34.915600169796456
3.801104769934601,1.778896286724856,1561,-4,19.805873544083788,34.915600169796456
3.8188891972155803,1.7788785019437432,1561,-4,19.805873544083788,34.915600169796456
3.8366734466940824,1.7788607173404365,1561,-4,19.805873544083788,34.915600169796456
3.8544575183718837,1.778842932914934,1561,-4,19.805873544083788,34.915600169796456
3.8722414122507636,1.778825148667234,1561,-4,19.805873544083788,34.915600169796456
3.8900251283325007,1.7788073645973346,1561,-4,19.805873544083788,34.915600169796456
3.9078086666188727,1.778789580705234,1561,-4,19.805873544083788,34.915600169796456
3.9255920271116596,1.7787717969909307,1561,-4,19.805873544083788,34.915600169796456
3.943375209812637,1.7787540134544229,1561,-4,19.805873544083788,34.915600169796456
3.9611582147235844,1.7787362300957084,1561,-4,19.805873544083788,34.915600169796456
3.97894104184628,1.7787184469147859,1561,-4,19.805873544083788,34.915600169796456
3.9967236911825017,1.7787006639116532,1561,-4,19.805873544083788,34.915600169796456
4.014506162734027,1.7786828810863087,1561,-4,19.805873544083788,34.915600169796456
4.032288456502634,1.7786650984387509,1561,-4,19.805873544083788,34.915600169796456
4.0500705724901005,1.7786473159689775,1561,-4,19.805873544083788,34.915600169796456
4.067852510698202,1.7786295336769873,1561,-4,19.805873544083788,34.915600169796456
4.085634271128721,1.778611751562778,1561,-4,19.805873544083788,34.915600169796456
4.103415853783432,1.7785939696263482,1561,-4,19.805873544083788,34.915600169796456
4.121197258664113,1.7785761878676958,1561,-4,19.805873544083788,34.915600169796456
4.138978485772542,1.7785584062868194,1561,-4,19.805873544083788,34.915600169796456
4.1567595351104965,1.7785406248837168,1561,-4,19.805873544083788,34.915600169796456
4.1745404066797525,1.7785228436583866,1561,-4,19.805873544083788,34.915600169796456
