Vout,Iout,Irradiance,Temperature,MaxVoltage,MaxPower
0.006162660743646696,1.2325439999999999,1041,17,21.346771251897025,25.85566458659745
0.01848786827751021,1.2325439999999999,1041,17,21.346771251897025,25.85566458659745
0.030812825242996014,1.2325377140848561,1041,17,21.346771251897025,25.85566458659745
0.0431374868761464,1.2325253888773224,1041,17,21.346771251897025,25.85566458659745
0.05546183854732339,1.2325130639209854,1041,17,21.346771251897025,25.85566458659745
0.06778589462748173,1.232500739260585,1041,17,21.346771251897025,25.85566458659745
0.08010966838235667,1.232488414910146,1041,17,21.346771251897025,25.85566458659745
0.09243317205722827,1.2324760908552985,1041,17,21.346771251897025,25.85566458659745
0.10475641695530023,1.232463767082776,1041,17,21.346771251897025,25.85566458659745
0.11707941351018483,1.2324514435803335,1041,17,21.346771251897025,25.85566458659745
0.1294021713528105,1.2324391203366678,1041,17,21.346771251897025,25.85566458659745
0.14172469937318172,1.2324267973413454,1041,17,21.346771251897025,25.85566458659745
0.15404700577738678,1.232414474584735,1041,17,21.346771251897025,25.85566458659745
0.16636909814021944,1.232402152057947,1041,17,21.346771251897025,25.85566458659745
0.17869098345375165,1.2323898297527751,1041,17,21.346771251897025,25.85566458659745
0.19101266817216908,1.2323775076616443,1041,17,21.346771251897025,25.85566458659745
0.20333415825315693,1.232365185777563,1041,17,21.346771251897025,25.85566458659745
0.21565545919610157,1.2323528640940768,1041,17,21.346771251897025,25.85566458659745
0.2279765760773527,1.232340542605228,1041,17,21.346771251897025,25.85566458659745
0.24029751358277232,1.2323282213055173,1041,17,21.346771251897025,25.85566458659745
0.25261827603777964,1.2323159001898683,1041,17,21.346771251897025,25.85566458659745
0.26493886743508416,1.232303579253595,1041,17,21.346771251897025,25.85566458659745
0.27725929146028466,1.232291258492372,1041,17,21.346771251897025,25.85566458659745
0.28957955151549897,1.2322789379022068,1041,17,21.346771251897025,25.85566458659745
0.3018996507411752,1.2322666174794137,1041,17,21.346771251897025,25.85566458659745
0.31421959203622557,1.2322542972205905,1041,17,21.346771251897025,25.85566458659745
0.3265393780766096,1.232241977122597,1041,17,21.346771251897025,25.85566458659745
0.3388590113324895,1.232229657182534,1041,17,21.346771251897025,25.85566458659745
0.351178494084064,1.2322173373977254,1041,17,21.346771251897025,25.85566458659745
0.3634978284361842,1.2322050177657016,1041,17,21.346771251897025,25.85566458659745
0.37581701633184555,1.232192698284182,1041,17,21.346771251897025,25.85566458659745
0.38813605956464126,1.232180378951062,1041,17,21.346771251897025,25.85566458659745
0.4004549597902571,1.2321680597643982,1041,17,21.346771251897025,25.85566458659745
0.41277371853708267,1.2321557407223973,1041,17,21.346771251897025,25.85566458659745
0.42509233721600564,1.2321434218234035,1041,17,21.346771251897025,25.85566458659745
0.4374108171294523,1.2321311030658888,1041,17,21.346771251897025,25.85566458659745
0.4497291594797332,1.2321187844484416,1041,17,21.346771251897025,25.85566458659745
0.4620473653767458,1.23210646596976,1041,17,21.346771251897025,25.85566458659745
0.47436543584508495,1.2320941476286418,1041,17,21.346771251897025,25.85566458659745
0.4866833718306063,1.2320818294239766,1041,17,21.346771251897025,25.85566458659745
0.4990011742064849,1.23206951135474,1041,17,21.346771251897025,25.85566458659745
0.5113188437788068,1.2320571934199862,1041,17,21.346771251897025,25.85566458659745
0.5236363812917311,1.2320448756188422,1041,17,21.346771251897025,25.85566458659745
0.5359537874322553,1.2320325579505018,1041,17,21.346771251897025,25.85566458659745
0.5482710628346122,1.2320202404142206,1041,17,21.346771251897025,25.85566458659745
0.5605882080843315,1.2320079230093117,1041,17,21.346771251897025,25.85566458659745
0.5729052237219852,1.231995605735141,1041,17,21.346771251897025,25.85566458659745
0.5852221102466477,1.2319832885911233,1041,17,21.346771251897025,25.85566458659745
0.5975388681190889,1.2319709715767173,1041,17,21.346771251897025,25.85566458659745
0.6098554977647207,1.2319586546914243,1041,17,21.346771251897025,25.85566458659745
0.6221719995763177,1.2319463379347837,1041,17,21.346771251897025,25.85566458659745
0.6344883739165293,1.2319340213063696,1041,17,21.346771251897025,25.85566458659745
0.646804621120196,1.2319217048057898,1041,17,21.346771251897025,25.85566458659745
0.6591207414964901,1.2319093884326813,1041,17,21.346771251897025,25.85566458659745
0.6714367353308904,1.231897072186709,1041,17,21.346771251897025,25.85566458659745
0.6837526028870057,1.2318847560675645,1041,17,21.346771251897025,25.85566458659745
0.6960683444082559,1.2318724400749617,1041,17,21.346771251897025,25.85566458659745
0.7083839601194277,1.2318601242086373,1041,17,21.346771251897025,25.85566458659745
0.7206994502281062,1.2318478084683475,1041,17,21.346771251897025,25.85566458659745
0.7330148149259997,1.231835492853868,1041,17,21.346771251897025,25.85566458659745
0.7453300543901611,1.2318231773649908,1041,17,21.346771251897025,25.85566458659745
0.7576451687841145,1.2318108620015247,1041,17,21.346771251897025,25.85566458659745
0.7699601582588973,1.231798546763292,1041,17,21.346771251897025,25.85566458659745
0.7822750229540211,1.2317862316501296,1041,17,21.346771251897025,25.85566458659745
0.7945897629983569,1.2317739166618862,1041,17,21.346771251897025,25.85566458659745
0.8069043785109559,1.2317616017984228,1041,17,21.346771251897025,25.85566458659745
0.819218869601803,1.2317492870596098,1041,17,21.346771251897025,25.85566458659745
0.8315332363725165,1.2317369724453286,1041,17,21.346771251897025,25.85566458659745
0.8438474789169897,1.2317246579554693,1041,17,21.346771251897025,25.85566458659745
0.8561615973219869,1.2317123435899302,1041,17,21.346771251897025,25.85566458659745
0.8684755916676912,1.231700029348617,1041,17,21.346771251897025,25.85566458659745
0.8807894620282108,1.2316877152314436,1041,17,21.346771251897025,25.85566458659745
0.8931032084720466,1.2316754012383293,1041,17,21.346771251897025,25.85566458659745
0.9054168310625237,1.2316630873692,1041,17,21.346771251897025,25.85566458659745
0.9177303298581897,1.2316507736239877,1041,17,21.346771251897025,25.85566458659745
0.930043704913182,1.2316384600026287,1041,17,21.346771251897025,25.85566458659745
0.9423569562775671,1.2316261465050644,1041,17,21.346771251897025,25.85566458659745
0.9546700839976545,1.2316138331312407,1041,17,21.346771251897025,25.85566458659745
0.9669830881162849,1.2316015198811077,1041,17,21.346771251897025,25.85566458659745
0.9792959686730971,1.2315892067546188,1041,17,21.346771251897025,25.85566458659745
0.9916087257047753,1.2315768937517315,1041,17,21.346771251897025,25.85566458659745
1.0039213592452758,1.231564580872406,1041,17,21.346771251897025,25.85566458659745
1.0162338693260364,1.2315522681166058,1041,17,21.346771251897025,25.85566458659745
1.0285462559761716,1.2315399554842965,1041,17,21.346771251897025,25.85566458659745
1.0408585192226492,1.231527642975447,1041,17,21.346771251897025,25.85566458659745
1.0531706590904584,1.2315153305900282,1041,17,21.346771251897025,25.85566458659745
1.0654826756027587,1.231503018328013,1041,17,21.346771251897025,25.85566458659745
1.0777945687810233,1.2314907061893763,1041,17,21.346771251897025,25.85566458659745
1.090106338645168,1.2314783941740952,1041,17,21.346771251897025,25.85566458659745
1.1024179852136697,1.2314660822821482,1041,17,21.346771251897025,25.85566458659745
1.1147295085036804,1.2314537705135153,1041,17,21.346771251897025,25.85566458659745
1.1270409085311253,1.231441458868178,1041,17,21.346771251897025,25.85566458659745
1.1393521853107993,1.2314291473461192,1041,17,21.346771251897025,25.85566458659745
1.1516633388564543,1.2314168359473228,1041,17,21.346771251897025,25.85566458659745
1.1639743691808784,1.2314045246717744,1041,17,21.346771251897025,25.85566458659745
1.17628527629597,1.2313922135194597,1041,17,21.346771251897025,25.85566458659745
1.1885960602128074,1.2313799024903664,1041,17,21.346771251897025,25.85566458659745
1.2009067209417106,1.2313675915844826,1041,17,21.346771251897025,25.85566458659745
1.2132172584923009,1.231355280801797,1041,17,21.346771251897025,25.85566458659745
1.2255276728735534,1.231342970142299,1041,17,21.346771251897025,25.85566458659745
1.2378379640938468,1.2313306596059794,1041,17,21.346771251897025,25.85566458659745
1.2501481321610115,1.2313183491928292,1041,17,21.346771251897025,25.85566458659745
1.2624581770823686,1.23130603890284,1041,17,21.346771251897025,25.85566458659745
1.2747680988647714,1.231293728736004,1041,17,21.346771251897025,25.85566458659745
1.2870778975146393,1.2312814186923136,1041,17,21.346771251897025,25.85566458659745
1.2993875730379942,1.2312691087717622,1041,17,21.346771251897025,25.85566458659745
1.3116971254404879,1.2312567989743433,1041,17,21.346771251897025,25.85566458659745
1.3240065547274324,1.231244489300051,1041,17,21.346771251897025,25.85566458659745
1.3363158609038266,1.2312321797488794,1041,17,21.346771251897025,25.85566458659745
1.3486250439743779,1.2312198703208235,1041,17,21.346771251897025,25.85566458659745
1.3609341039435274,1.2312075610158781,1041,17,21.346771251897025,25.85566458659745
1.373243040815468,1.2311952518340386,1041,17,21.346771251897025,25.85566458659745
1.3855518545941654,1.2311829427753003,1041,17,21.346771251897025,25.85566458659745
1.3978605452833752,1.2311706338396593,1041,17,21.346771251897025,25.85566458659745
1.4101691128866576,1.2311583250271114,1041,17,21.346771251897025,25.85566458659745
1.422477557407394,1.231146016337653,1041,17,21.346771251897025,25.85566458659745
1.434785878848801,1.2311337077712807,1041,17,21.346771251897025,25.85566458659745
1.4470940772139411,1.2311213993279908,1041,17,21.346771251897025,25.85566458659745
1.4594021525057368,1.2311090910077802,1041,17,21.346771251897025,25.85566458659745
1.4717101047269796,1.231096782810646,1041,17,21.346771251897025,25.85566458659745
1.4840179338803419,1.231084474736585,1041,17,21.346771251897025,25.85566458659745
1.4963256399683844,1.2310721667855946,1041,17,21.346771251897025,25.85566458659745
1.5086332229935653,1.231059858957672,1041,17,21.346771251897025,25.85566458659745
1.5209406829582486,1.2310475512528147,1041,17,21.346771251897025,25.85566458659745
1.533248019864711,1.2310352436710204,1041,17,21.346771251897025,25.85566458659745
1.5455552337151484,1.2310229362122864,1041,17,21.346771251897025,25.85566458659745
1.5578623245116827,1.2310106288766107,1041,17,21.346771251897025,25.85566458659745
1.5701692922563673,1.230998321663991,1041,17,21.346771251897025,25.85566458659745
1.582476136951192,1.2309860145744254,1041,17,21.346771251897025,25.85566458659745
1.5947828585980885,1.2309737076079112,1041,17,21.346771251897025,25.85566458659745
1.6070894571989336,1.2309614007644472,1041,17,21.346771251897025,25.85566458659745
1.6193959327555554,1.230949094044031,1041,17,21.346771251897025,25.85566458659745
1.6317022852697356,1.2309367874466608,1041,17,21.346771251897025,25.85566458659745
1.644008514743213,1.230924480972335,1041,17,21.346771251897025,25.85566458659745
1.6563146211776876,1.2309121746210514,1041,17,21.346771251897025,25.85566458659745
1.668620604574823,1.2308998683928085,1041,17,21.346771251897025,25.85566458659745
1.6809264649362505,1.2308875622876048,1041,17,21.346771251897025,25.85566458659745
1.6932322022635689,1.2308752563054381,1041,17,21.346771251897025,25.85566458659745
1.7055378165583492,1.2308629504463073,1041,17,21.346771251897025,25.85566458659745
1.717843307822137,1.2308506447102108,1041,17,21.346771251897025,25.85566458659745
1.7301486760564526,1.2308383390971465,1041,17,21.346771251897025,25.85566458659745
1.7424539212627945,1.2308260336071133,1041,17,21.346771251897025,25.85566458659745
1.75475904344264,1.2308137282401095,1041,17,21.346771251897025,25.85566458659745
1.767064042597448,1.2308014229961337,1041,17,21.346771251897025,25.85566458659745
1.779368918728659,1.2307891178751844,1041,17,21.346771251897025,25.85566458659745
1.7916736718376982,1.23077681287726,1041,17,21.346771251897025,25.85566458659745
1.803978301925975,1.2307645080023595,1041,17,21.346771251897025,25.85566458659745
1.8162828089948855,1.230752203250481,1041,17,21.346771251897025,25.85566458659745
1.8285871930458126,1.2307398986216231,1041,17,21.346771251897025,25.85566458659745
1.8408914540801276,1.2307275941157847,1041,17,21.346771251897025,25.85566458659745
1.8531955920991903,1.2307152897329643,1041,17,21.346771251897025,25.85566458659745
1.8654996071043521,1.2307029854731604,1041,17,21.346771251897025,25.85566458659745
1.8778034990969537,1.2306906813363716,1041,17,21.346771251897025,25.85566458659745
1.890107268078327,1.2306783773225969,1041,17,21.346771251897025,25.85566458659745
1.9024109140497978,1.2306660734318349,1041,17,21.346771251897025,25.85566458659745
1.914714437012682,1.2306537696640838,1041,17,21.346771251897025,25.85566458659745
1.9270178369682909,1.2306414660193428,1041,17,21.346771251897025,25.85566458659745
1.9393211139179285,1.2306291624976102,1041,17,21.346771251897025,25.85566458659745
1.9516242678628932,1.230616859098885,1041,17,21.346771251897025,25.85566458659745
1.963927298804479,1.2306045558231657,1041,17,21.346771251897025,25.85566458659745
1.9762302067439734,1.2305922526704511,1041,17,21.346771251897025,25.85566458659745
1.9885329916826608,1.2305799496407397,1041,17,21.346771251897025,25.85566458659745
2.0008356536218206,1.2305676467340305,1041,17,21.346771251897025,25.85566458659745
2.0131381925627285,1.2305553439503223,1041,17,21.346771251897025,25.85566458659745
2.0254406085066567,1.2305430412896134,1041,17,21.346771251897025,25.85566458659745
2.0377429014548745,1.2305307387519027,1041,17,21.346771251897025,25.85566458659745
2.0500450714086473,1.230518436337189,1041,17,21.346771251897025,25.85566458659745
2.062347118369239,1.230506134045471,1041,17,21.346771251897025,25.85566458659745
2.0746490423379096,1.2304938318767475,1041,17,21.346771251897025,25.85566458659745
2.0869508433159174,1.2304815298310172,1041,17,21.346771251897025,25.85566458659745
2.0992525213045186,1.2304692279082787,1041,17,21.346771251897025,25.85566458659745
2.111554076304966,1.230456926108531,1041,17,21.346771251897025,25.85566458659745
2.123855508318512,1.2304446244317726,1041,17,21.346771251897025,25.85566458659745
2.1361568173464085,1.2304323228780023,1041,17,21.346771251897025,25.85566458659745
2.1484580033899023,1.230420021447219,1041,17,21.346771251897025,25.85566458659745
2.160759066450241,1.2304077201394212,1041,17,21.346771251897025,25.85566458659745
2.173060006528671,1.2303954189546078,1041,17,21.346771251897025,25.85566458659745
2.185360823626437,1.2303831178927775,1041,17,21.346771251897025,25.85566458659745
2.197661517744781,1.2303708169539294,1041,17,21.346771251897025,25.85566458659745
2.2099620888849465,1.2303585161380617,1041,17,21.346771251897025,25.85566458659745
2.2222625370481746,1.2303462154451734,1041,17,21.346771251897025,25.85566458659745
2.234562862235705,1.2303339148752632,1041,17,21.346771251897025,25.85566458659745
2.2468630644487786,1.2303216144283302,1041,17,21.346771251897025,25.85566458659745
2.259163143688633,1.2303093141043726,1041,17,21.346771251897025,25.85566458659745
2.271463099956507,1.2302970139033897,1041,17,21.346771251897025,25.85566458659745
2.2837629332536373,1.2302847138253798,1041,17,21.346771251897025,25.85566458659745
2.2960626435812603,1.230272413870342,1041,17,21.346771251897025,25.85566458659745
2.3083622309406135,1.2302601140382747,1041,17,21.346771251897025,25.85566458659745
2.3206616953329315,1.2302478143291773,1041,17,21.346771251897025,25.85566458659745
2.3329610367594493,1.230235514743048,1041,17,21.346771251897025,25.85566458659745
2.3452602552214024,1.2302232152798855,1041,17,21.346771251897025,25.85566458659745
2.3575593507200248,1.230210915939689,1041,17,21.346771251897025,25.85566458659745
2.3698583232565498,1.230198616722457,1041,17,21.346771251897025,25.85566458659745
2.382157172832211,1.2301863176281882,1041,17,21.346771251897025,25.85566458659745
2.3944558994482423,1.2301740186568817,1041,17,21.346771251897025,25.85566458659745
2.4067545031058764,1.230161719808536,1041,17,21.346771251897025,25.85566458659745
2.4190529838063446,1.2301494210831498,1041,17,21.346771251897025,25.85566458659745
2.4313513415508807,1.230137122480722,1041,17,21.346771251897025,25.85566458659745
2.4436495763407162,1.2301248240012514,1041,17,21.346771251897025,25.85566458659745
2.4559476881770834,1.2301125256447367,1041,17,21.346771251897025,25.85566458659745
2.4682456770612133,1.2301002274111767,1041,17,21.346771251897025,25.85566458659745
2.4805435429943374,1.2300879293005702,1041,17,21.346771251897025,25.85566458659745
2.4928412859776876,1.230075631312916,1041,17,21.346771251897025,25.85566458659745
2.5051389060124936,1.2300633334482125,1041,17,21.346771251897025,25.85566458659745
2.5174364030999876,1.2300510357064591,1041,17,21.346771251897025,25.85566458659745
2.5297337772414004,1.230038738087654,1041,17,21.346771251897025,25.85566458659745
2.5420310284379615,1.2300264405917962,1041,17,21.346771251897025,25.85566458659745
2.554328156690903,1.2300141432188847,1041,17,21.346771251897025,25.85566458659745
2.5666251620014537,1.230001845968918,1041,17,21.346771251897025,25.85566458659745
2.578922044370845,1.2299895488418946,1041,17,21.346771251897025,25.85566458659745
2.5912188038003072,1.2299772518378138,1041,17,21.346771251897025,25.85566458659745
2.6035154402910696,1.2299649549566742,1041,17,21.346771251897025,25.85566458659745
2.615811953844363,1.2299526581984743,1041,17,21.346771251897025,25.85566458659745
2.6281083444614164,1.2299403615632134,1041,17,21.346771251897025,25.85566458659745
2.64040461214346,1.2299280650508897,1041,17,21.346771251897025,25.85566458659745
2.652700756891724,1.2299157686615023,1041,17,21.346771251897025,25.85566458659745
2.664996778707438,1.22990347239505,1041,17,21.346771251897025,25.85566458659745
2.677292677591831,1.2298911762515312,1041,17,21.346771251897025,25.85566458659745
2.6895884535461336,1.2298788802309453,1041,17,21.346771251897025,25.85566458659745
2.701884106571575,1.2298665843332903,1041,17,21.346771251897025,25.85566458659745
2.7141796366693844,1.2298542885585657,1041,17,21.346771251897025,25.85566458659745
2.726475043840791,1.2298419929067699,1041,17,21.346771251897025,25.85566458659745
2.7387703280870253,1.2298296973779017,1041,17,21.346771251897025,25.85566458659745
2.7510654894093145,1.2298174019719599,1041,17,21.346771251897025,25.85566458659745
2.76336052780889,1.229805106688943,1041,17,21.346771251897025,25.85566458659745
2.77565544328698,1.2297928115288503,1041,17,21.346771251897025,25.85566458659745
2.7879502358448143,1.2297805164916804,1041,17,21.346771251897025,25.85566458659745
2.800244905483622,1.2297682215774317,1041,17,21.346771251897025,25.85566458659745
2.812539452204631,1.2297559267861033,1041,17,21.346771251897025,25.85566458659745
2.8248338760090728,1.229743632117694,1041,17,21.346771251897025,25.85566458659745
2.8371281768981746,1.2297313375722025,1041,17,21.346771251897025,25.85566458659745
2.849422354873166,1.2297190431496277,1041,17,21.346771251897025,25.85566458659745
2.8617164099352763,1.229706748849968,1041,17,21.346771251897025,25.85566458659745
2.8740103420857346,1.2296944546732225,1041,17,21.346771251897025,25.85566458659745
2.8863041513257683,1.2296821606193897,1041,17,21.346771251897025,25.85566458659745
2.8985978376566086,1.2296698666884687,1041,17,21.346771251897025,25.85566458659745
2.910891401079483,1.229657572880458,1041,17,21.346771251897025,25.85566458659745
2.9231848415956216,1.2296452791953565,1041,17,21.346771251897025,25.85566458659745
