Vout,Iout,Irradiance,Temperature,MaxVoltage,MaxPower
0.00930041057297526,1.8600999999999996,1691,-25,18.255549272268556,33.62455108923395
0.027901059745531788,1.8600999999999996,1691,-25,18.255549272268556,33.62455108923395
0.04650133077155612,1.8600905135794266,1691,-25,18.255549272268556,33.62455108923395
0.0651011560952955,1.860071912930254,1691,-25,18.255549272268556,33.62455108923395
0.08370051363835791,1.8600533126601768,1691,-25,18.255549272268556,33.62455108923395
0.10229942508874228,1.860034712836713,1691,-25,18.255549272268556,33.62455108923395
0.12089791046649989,1.86001611348103,1691,-25,18.255549272268556,33.62455108923395
0.13949598825165696,1.8599975145714396,1691,-25,18.255549272268556,33.62455108923395
0.15809367550250042,1.8599789160879219,1691,-25,18.255549272268556,33.62455108923395
0.17669098796496896,1.8599603180119966,1691,-25,18.255549272268556,33.62455108923395
0.19528794017362683,1.8599417203266055,1691,-25,18.255549272268556,33.62455108923395
0.2138845455448692,1.859923123016003,1691,-25,18.255549272268556,33.62455108923395
0.2324808164629556,1.859904526065654,1691,-25,18.255549272268556,33.62455108923395
0.2510767643594242,1.8598859294621424,1691,-25,18.255549272268556,33.62455108923395
0.2696723997863958,1.8598673331930842,1691,-25,18.255549272268556,33.62455108923395
0.2882677324842372,1.8598487372470474,1691,-25,18.255549272268556,33.62455108923395
0.30686277144401913,1.85983014161348,1691,-25,18.255549272268556,33.62455108923395
0.3254575249651684,1.8598115462826417,1691,-25,18.255549272268556,33.62455108923395
0.34405200070868364,1.8597929512455416,1691,-25,18.255549272268556,33.62455108923395
0.3626462057462571,1.8597743564938798,1691,-25,18.255549272268556,33.62455108923395
0.3812401466056173,1.8597557620199958,1691,-25,18.255549272268556,33.62455108923395
0.39983382931238165,1.8597371678168177,1691,-25,18.255549272268556,33.62455108923395
0.41842725942869025,1.859718573877818,1691,-25,18.255549272268556,33.62455108923395
0.4370204420888663,1.8596999801969705,1691,-25,18.255549272268556,33.62455108923395
0.4556133820323333,1.8596813867687136,1691,-25,18.255549272268556,33.62455108923395
0.47420608363399863,1.8596627935879129,1691,-25,18.255549272268556,33.62455108923395
0.4927985509323007,1.8596442006498286,1691,-25,18.255549272268556,33.62455108923395
0.511390787655097,1.8596256079500864,1691,-25,18.255549272268556,33.62455108923395
0.5299827972435609,1.8596070154846474,1691,-25,18.255549272268556,33.62455108923395
0.5485745828742392,1.8595884232497837,1691,-25,18.255549272268556,33.62455108923395
0.5671661474794134,1.8595698312420545,1691,-25,18.255549272268556,33.62455108923395
0.5857574937658934,1.8595512394582832,1691,-25,18.255549272268556,33.62455108923395
0.6043486242323658,1.8595326478955372,1691,-25,18.255549272268556,33.62455108923395
0.622939541185408,1.85951405655111,1691,-25,18.255549272268556,33.62455108923395
0.6415302467542676,1.8594954654225024,1691,-25,18.255549272268556,33.62455108923395
0.6601207429045082,1.8594768745074086,1691,-25,18.255549272268556,33.62455108923395
0.6787110314506026,1.8594582838036988,1691,-25,18.255549272268556,33.62455108923395
0.6973011140675583,1.8594396933094077,1691,-25,18.255549272268556,33.62455108923395
0.7158909923016479,1.8594211030227206,1691,-25,18.255549272268556,33.62455108923395
0.7344806675803142,1.8594025129419627,1691,-25,18.255549272268556,33.62455108923395
0.7530701412213133,1.8593839230655878,1691,-25,18.255549272268556,33.62455108923395
0.7716594144411545,1.859365333392168,1691,-25,18.255549272268556,33.62455108923395
0.790248488362889,1.8593467439203861,1691,-25,18.255549272268556,33.62455108923395
0.8088373640233028,1.8593281546490252,1691,-25,18.255549272268556,33.62455108923395
0.8274260423795518,1.8593095655769623,1691,-25,18.255549272268556,33.62455108923395
0.8460145243152901,1.859290976703161,1691,-25,18.255549272268556,33.62455108923395
0.8646028106463255,1.8592723880266635,1691,-25,18.255549272268556,33.62455108923395
0.8831909021258384,1.8592537995465868,1691,-25,18.255549272268556,33.62455108923395
0.9017787994492019,1.8592352112621144,1691,-25,18.255549272268556,33.62455108923395
0.9203665032584288,1.8592166231724938,1691,-25,18.255549272268556,33.62455108923395
0.9389540141462771,1.8591980352770292,1691,-25,18.255549272268556,33.62455108923395
0.9575413326600403,1.859179447575079,1691,-25,18.255549272268556,33.62455108923395
0.9761284593050449,1.8591608600660499,1691,-25,18.255549272268556,33.62455108923395
0.9947153945478798,1.859142272749395,1691,-25,18.255549272268556,33.62455108923395
1.013302138819377,1.8591236856246085,1691,-25,18.255549272268556,33.62455108923395
1.0318886925173625,1.8591050986912245,1691,-25,18.255549272268556,33.62455108923395
1.050475056009195,1.8590865119488118,1691,-25,18.255549272268556,33.62455108923395
1.0690612296341127,1.8590679253969724,1691,-25,18.255549272268556,33.62455108923395
1.0876472137053936,1.8590493390353393,1691,-25,18.255549272268556,33.62455108923395
1.1062330085123553,1.859030752863573,1691,-25,18.255549272268556,33.62455108923395
1.1248186143221977,1.8590121668813604,1691,-25,18.255549272268556,33.62455108923395
1.1434040313817047,1.858993581088412,1691,-25,18.255549272268556,33.62455108923395
1.1619892599188146,1.8589749954844608,1691,-25,18.255549272268556,33.62455108923395
1.1805743001440718,1.85895641006926,1691,-25,18.255549272268556,33.62455108923395
1.1991591522519636,1.8589378248425812,1691,-25,18.255549272268556,33.62455108923395
1.2177438164221557,1.8589192398042145,1691,-25,18.255549272268556,33.62455108923395
1.2363282928206334,1.8589006549539653,1691,-25,18.255549272268556,33.62455108923395
1.2549125816007534,1.8588820702916535,1691,-25,18.255549272268556,33.62455108923395
1.2734966829042156,1.8588634858171136,1691,-25,18.255549272268556,33.62455108923395
1.2920805968619613,1.8588449015301918,1691,-25,18.255549272268556,33.62455108923395
1.3106643235949982,1.8588263174307469,1691,-25,18.255549272268556,33.62455108923395
1.3292478632151676,1.8588077335186475,1691,-25,18.255549272268556,33.62455108923395
1.3478312158258483,1.858789149793773,1691,-25,18.255549272268556,33.62455108923395
1.3664143815226075,1.8587705662560112,1691,-25,18.255549272268556,33.62455108923395
1.3849973603938028,1.8587519829052588,1691,-25,18.255549272268556,33.62455108923395
1.4035801525211355,1.8587333997414204,1691,-25,18.255549272268556,33.62455108923395
1.4221627579801646,1.8587148167644076,1691,-25,18.255549272268556,33.62455108923395
1.4407451768407762,1.8586962339741386,1691,-25,18.255549272268556,33.62455108923395
1.4593274091676258,1.8586776513705379,1691,-25,18.255549272268556,33.62455108923395
1.4779094550205334,1.8586590689535354,1691,-25,18.255549272268556,33.62455108923395
1.4964913144548617,1.8586404867230668,1691,-25,18.255549272268556,33.62455108923395
1.5150729875218558,1.8586219046790722,1691,-25,18.255549272268556,33.62455108923395
1.5336544742689602,1.8586033228214962,1691,-25,18.255549272268556,33.62455108923395
1.5522357747401125,1.8585847411502874,1691,-25,18.255549272268556,33.62455108923395
1.570816888976013,1.8585661596653984,1691,-25,18.255549272268556,33.62455108923395
1.5893978170143723,1.8585475783667855,1691,-25,18.255549272268556,33.62455108923395
1.6079785588901425,1.8585289972544077,1691,-25,18.255549272268556,33.62455108923395
1.6265591146357303,1.8585104163282273,1691,-25,18.255549272268556,33.62455108923395
1.6451394842811915,1.8584918355882099,1691,-25,18.255549272268556,33.62455108923395
1.663719667854411,1.8584732550343224,1691,-25,18.255549272268556,33.62455108923395
1.6822996653812732,1.858454674666535,1691,-25,18.255549272268556,33.62455108923395
1.7008794768858115,1.8584360944848197,1691,-25,18.255549272268556,33.62455108923395
1.7194591023903547,1.8584175144891508,1691,-25,18.255549272268556,33.62455108923395
1.7380385419156559,1.8583989346795045,1691,-25,18.255549272268556,33.62455108923395
1.7566177954810143,1.8583803550558577,1691,-25,18.255549272268556,33.62455108923395
1.7751968631043866,1.8583617756181905,1691,-25,18.255549272268556,33.62455108923395
1.7937757448024916,1.8583431963664832,1691,-25,18.255549272268556,33.62455108923395
1.8123544405909036,1.8583246173007177,1691,-25,18.255549272268556,33.62455108923395
1.830932950484143,1.8583060384208776,1691,-25,18.255549272268556,33.62455108923395
1.849511274495754,1.858287459726947,1691,-25,18.255549272268556,33.62455108923395
1.8680894126383834,1.8582688812189117,1691,-25,18.255549272268556,33.62455108923395
1.886667364923846,1.8582503028967579,1691,-25,18.255549272268556,33.62455108923395
1.905245131363191,1.8582317247604732,1691,-25,18.255549272268556,33.62455108923395
1.923822711966761,1.8582131468100456,1691,-25,18.255549272268556,33.62455108923395
1.9424001067442456,1.858194569045464,1691,-25,18.255549272268556,33.62455108923395
1.9609773157047306,1.8581759914667182,1691,-25,18.255549272268556,33.62455108923395
1.9795543388567465,1.8581574140737984,1691,-25,18.255549272268556,33.62455108923395
1.9981311762083107,1.8581388368666958,1691,-25,18.255549272268556,33.62455108923395
2.016707827766965,1.8581202598454014,1691,-25,18.255549272268556,33.62455108923395
2.035284293539816,1.8581016830099077,1691,-25,18.255549272268556,33.62455108923395
2.0538605735335635,1.8580831063602068,1691,-25,18.255549272268556,33.62455108923395
2.0724366677545385,1.8580645298962915,1691,-25,18.255549272268556,33.62455108923395
2.091012576208723,1.8580459536181555,1691,-25,18.255549272268556,33.62455108923395
2.1095882989017865,1.858027377525792,1691,-25,18.255549272268556,33.62455108923395
2.128163835839101,1.8580088016191956,1691,-25,18.255549272268556,33.62455108923395
2.14673918702577,1.85799022589836,1691,-25,18.255549272268556,33.62455108923395
2.1653143524666474,1.8579716503632804,1691,-25,18.255549272268556,33.62455108923395
2.183889332166356,1.8579530750139512,1691,-25,18.255549272268556,33.62455108923395
2.202464126129305,1.857934499850368,1691,-25,18.255549272268556,33.62455108923395
2.2210387343597082,1.8579159248725259,1691,-25,18.255549272268556,33.62455108923395
2.239613156861598,1.8578973500804203,1691,-25,18.255549272268556,33.62455108923395
2.2581873936388392,1.8578787754740473,1691,-25,18.255549272268556,33.62455108923395
2.2767614446951407,1.857860201053403,1691,-25,18.255549272268556,33.62455108923395
2.295335310034072,1.8578416268184832,1691,-25,18.255549272268556,33.62455108923395
2.313908989659068,1.8578230527692845,1691,-25,18.255549272268556,33.62455108923395
2.3324824835734423,1.8578044789058028,1691,-25,18.255549272268556,33.62455108923395
2.351055791780398,1.8577859052280352,1691,-25,18.255549272268556,33.62455108923395
2.3696289142830333,1.8577673317359784,1691,-25,18.255549272268556,33.62455108923395
2.3882018510843515,1.8577487584296288,1691,-25,18.255549272268556,33.62455108923395
2.4067746021872667,1.8577301853089834,1691,-25,18.255549272268556,33.62455108923395
2.425347167594613,1.8577116123740394,1691,-25,18.255549272268556,33.62455108923395
2.4439195473091484,1.857693039624794,1691,-25,18.255549272268556,33.62455108923395
2.4624917413335616,1.8576744670612437,1691,-25,18.255549272268556,33.62455108923395
2.4810637496704766,1.8576558946833865,1691,-25,18.255549272268556,33.62455108923395
2.4996355723224606,1.8576373224912193,1691,-25,18.255549272268556,33.62455108923395
2.5182072092920222,1.8576187504847397,1691,-25,18.255549272268556,33.62455108923395
2.536778660581624,1.857600178663945,1691,-25,18.255549272268556,33.62455108923395
2.5553499261936787,1.8575816070288327,1691,-25,18.255549272268556,33.62455108923395
2.5739210061305586,1.8575630355794002,1691,-25,18.255549272268556,33.62455108923395
2.5924919003945943,1.8575444643156453,1691,-25,18.255549272268556,33.62455108923395
2.611062608988081,1.8575258932375656,1691,-25,18.255549272268556,33.62455108923395
2.62963313191328,1.8575073223451586,1691,-25,18.255549272268556,33.62455108923395
2.648203469172421,1.8574887516384222,1691,-25,18.255549272268556,33.62455108923395
2.6667736207677053,1.8574701811173542,1691,-25,18.255549272268556,33.62455108923395
2.6853435867013067,1.857451610781952,1691,-25,18.255549272268556,33.62455108923395
2.703913366975377,1.857433040632214,1691,-25,18.255549272268556,33.62455108923395
2.7224829615920427,1.8574144706681373,1691,-25,18.255549272268556,33.62455108923395
2.7410523705534104,1.8573959008897203,1691,-25,18.255549272268556,33.62455108923395
2.759621593861568,1.8573773312969606,1691,-25,18.255549272268556,33.62455108923395
2.7781906315185845,1.8573587618898562,1691,-25,18.255549272268556,33.62455108923395
2.7967594835265124,1.857340192668405,1691,-25,18.255549272268556,33.62455108923395
2.81532814988739,1.857321623632605,1691,-25,18.255549272268556,33.62455108923395
2.833896630603241,1.8573030547824538,1691,-25,18.255549272268556,33.62455108923395
2.852464925676076,1.8572844861179498,1691,-25,18.255549272268556,33.62455108923395
2.8710330351078945,1.8572659176390909,1691,-25,18.255549272268556,33.62455108923395
2.8896009589006857,1.857247349345875,1691,-25,18.255549272268556,33.62455108923395
2.908168697056425,1.8572287812383,1691,-25,18.255549272268556,33.62455108923395
2.926736249577082,1.857210213316364,1691,-25,18.255549272268556,33.62455108923395
2.9453036164646167,1.857191645580065,1691,-25,18.255549272268556,33.62455108923395
2.963870797720979,1.8571730780294011,1691,-25,18.255549272268556,33.62455108923395
2.982437793348116,1.8571545106643705,1691,-25,18.255549272268556,33.62455108923395
3.0010046033479636,1.8571359434849708,1691,-25,18.255549272268556,33.62455108923395
3.019571227722454,1.8571173764912006,1691,-25,18.255549272268556,33.62455108923395
3.038137666473511,1.8570988096830574,1691,-25,18.255549272268556,33.62455108923395
3.056703919603056,1.8570802430605395,1691,-25,18.255549272268556,33.62455108923395
3.075269987113004,1.8570616766236452,1691,-25,18.255549272268556,33.62455108923395
3.093835869005263,1.8570431103723724,1691,-25,18.255549272268556,33.62455108923395
3.1124015652817416,1.857024544306719,1691,-25,18.255549272268556,33.62455108923395
3.1309670759443424,1.8570059784266832,1691,-25,18.255549272268556,33.62455108923395
3.149532400994963,1.8569874127322634,1691,-25,18.255549272268556,33.62455108923395
3.168097540435499,1.8569688472234576,1691,-25,18.255549272268556,33.62455108923395
3.186662494267843,1.8569502819002635,1691,-25,18.255549272268556,33.62455108923395
3.205227262493885,1.8569317167626793,1691,-25,18.255549272268556,33.62455108923395
3.2237918451155108,1.8569131518107036,1691,-25,18.255549272268556,33.62455108923395
3.242356242134605,1.856894587044334,1691,-25,18.255549272268556,33.62455108923395
3.2609204535530503,1.856876022463569,1691,-25,18.255549272268556,33.62455108923395
3.2794844793727274,1.8568574580684063,1691,-25,18.255549272268556,33.62455108923395
3.2980483195955124,1.8568388938588443,1691,-25,18.255549272268556,33.62455108923395
3.3166119742232842,1.856820329834881,1691,-25,18.255549272268556,33.62455108923395
3.3351754432579166,1.8568017659965148,1691,-25,18.255549272268556,33.62455108923395
3.3537387267012826,1.8567832023437434,1691,-25,18.255549272268556,33.62455108923395
3.3723018245552545,1.856764638876565,1691,-25,18.255549272268556,33.62455108923395
3.3908647368217033,1.856746075594978,1691,-25,18.255549272268556,33.62455108923395
3.4094274635024977,1.8567275124989806,1691,-25,18.255549272268556,33.62455108923395
3.427990004599507,1.8567089495885705,1691,-25,18.255549272268556,33.62455108923395
3.4465523601145973,1.8566903868637459,1691,-25,18.255549272268556,33.62455108923395
3.465114530049636,1.8566718243245053,1691,-25,18.255549272268556,33.62455108923395
3.483676514406489,1.8566532619708465,1691,-25,18.255549272268556,33.62455108923395
3.50223831318702,1.8566346998027676,1691,-25,18.255549272268556,33.62455108923395
3.5207999263930927,1.856616137820267,1691,-25,18.255549272268556,33.62455108923395
3.539361354026572,1.8565975760233426,1691,-25,18.255549272268556,33.62455108923395
3.5579225960893197,1.8565790144119927,1691,-25,18.255549272268556,33.62455108923395
3.5764836525831973,1.8565604529862154,1691,-25,18.255549272268556,33.62455108923395
3.5950445235100674,1.8565418917460088,1691,-25,18.255549272268556,33.62455108923395
3.6136052088717903,1.856523330691371,1691,-25,18.255549272268556,33.62455108923395
3.6321657086702266,1.8565047698223005,1691,-25,18.255549272268556,33.62455108923395
3.6507260229072367,1.8564862091387948,1691,-25,18.255549272268556,33.62455108923395
3.66928615158468,1.8564676486408525,1691,-25,18.255549272268556,33.62455108923395
3.6878460947044176,1.8564490883284714,1691,-25,18.255549272268556,33.62455108923395
3.7064058522683068,1.85643052820165,1691,-25,18.255549272268556,33.62455108923395
3.7249654242782055,1.8564119682603863,1691,-25,18.255549272268556,33.62455108923395
3.7435248107359747,1.8563934085046785,1691,-25,18.255549272268556,33.62455108923395
3.7620840116434717,1.8563748489345246,1691,-25,18.255549272268556,33.62455108923395
3.7806430270025526,1.8563562895499228,1691,-25,18.255549272268556,33.62455108923395
3.7992018568150776,1.8563377303508712,1691,-25,18.255549272268556,33.62455108923395
3.817760501082902,1.8563191713373681,1691,-25,18.255549272268556,33.62455108923395
3.8363189598078837,1.8563006125094115,1691,-25,18.255549272268556,33.62455108923395
3.8548772329918806,1.8562820538669995,1691,-25,18.255549272268556,33.62455108923395
3.873435320636748,1.8562634954101305,1691,-25,18.255549272268556,33.62455108923395
3.8919932227443446,1.8562449371388023,1691,-25,18.255549272268556,33.62455108923395
3.9105509393165248,1.8562263790530134,1691,-25,18.255549272268556,33.62455108923395
3.9291084703551467,1.8562078211527615,1691,-25,18.255549272268556,33.62455108923395
3.9476658158620666,1.8561892634380452,1691,-25,18.255549272268556,33.62455108923395
3.9662229758391394,1.8561707059088624,1691,-25,18.255549272268556,33.62455108923395
3.9847799502882224,1.8561521485652113,1691,-25,18.255549272268556,33.62455108923395
4.0033367392111705,1.85613359140709,1691,-25,18.255549272268556,33.62455108923395
4.021893342609839,1.8561150344344965,1691,-25,18.255549272268556,33.62455108923395
4.040449760486085,1.8560964776474294,1691,-25,18.255549272268556,33.62455108923395
4.059005992841763,1.8560779210458864,1691,-25,18.255549272268556,33.62455108923395
4.077562039678731,1.8560593646298658,1691,-25,18.255549272268556,33.62455108923395
4.096117900998841,1.8560408083993658,1691,-25,18.255549272268556,33.62455108923395
4.114673576803952,1.8560222523543843,1691,-25,18.255549272268556,33.62455108923395
4.133229067095916,1.85600369649492,1691,-25,18.255549272268556,33.62455108923395
4.15178437187659,1.8559851408209704,1691,-25,18.255549272268556,33.62455108923395
4.170339491147829,1.855966585332534,1691,-25,18.255549272268556,33.62455108923395
4.188894424911489,1.855948030029609,1691,-25,18.255549272268556,33.62455108923395
4.207449173169422,1.8559294749121933,1691,-25,18.255549272268556,33.62455108923395
4.226003735923488,1.8559109199802852,1691,-25,18.255549272268556,33.62455108923395
4.244558113175538,1.8558923652338828,1691,-25,18.255549272268556,33.62455108923395
4.263112304927427,1.8558738106729842,1691,-25,18.255549272268556,33.62455108923395
4.281666311181011,1.8558552562975876,1691,-25,18.255549272268556,33.62455108923395
4.300220131938146,1.8558367021076911,1691,-25,18.255549272268556,33.62455108923395
4.318773767200685,1.855818148103293,1691,-25,18.255549272268556,33.62455108923395
4.337327216970484,1.8557995942843912,1691,-25,18.255549272268556,33.62455108923395
4.355880481249397,1.855781040650984,1691,-25,18.255549272268556,33.62455108923395
4.374433560039278,1.8557624872030698,1691,-25,18.255549272268556,33.62455108923395
