Vout,Iout,Irradiance,Temperature,MaxVoltage,MaxPower
0.005725444947644735,1.1451,1041,-25,18.256189288518613,20.572283196602875
0.0171762289740382,1.1451,1041,-25,18.256189288518613,20.572283196602875
0.02862678020886454,1.1450941600450524,1041,-25,18.256189288518613,20.572283196602875
0.040077057063987356,1.145082709261026,1041,-25,18.256189288518613,20.572283196602875
0.051527045947682204,1.145071258710375,1041,-25,18.256189288518613,20.572283196602875
0.06297676021134284,1.145059808434665,1041,-25,18.256189288518613,20.572283196602875
0.07442621217955435,1.1450483584469264,1041,-25,18.256189288518613,20.572283196602875
0.08587541322884382,1.145036908733808,1041,-25,18.256189288518613,20.572283196602875
0.09732437386049851,1.1450254592829847,1041,-25,18.256189288518613,20.572283196602875
0.1087731037679082,1.1450140100830803,1041,-25,18.256189288518613,20.572283196602875
0.12022161189872597,1.1450025611235937,1041,-25,18.256189288518613,20.572283196602875
0.13166990651224655,1.144991112394831,1041,-25,18.256189288518613,20.572283196602875
0.14311799523236948,1.1449796638878451,1041,-25,18.256189288518613,20.572283196602875
0.15456588509648767,1.1449682155943766,1041,-25,18.256189288518613,20.572283196602875
0.16601358260061386,1.1449567675068013,1041,-25,18.256189288518613,20.572283196602875
0.17746109374103547,1.1449453196180819,1041,-25,18.256189288518613,20.572283196602875
0.1889084240527641,1.1449338719217226,1041,-25,18.256189288518613,20.572283196602875
0.2003555786450269,1.144922424411727,1041,-25,18.256189288518613,20.572283196602875
0.21180256223402708,1.14491097708256,1041,-25,18.256189288518613,20.572283196602875
0.22324937917318385,1.1448995299291125,1041,-25,18.256189288518613,20.572283196602875
0.2346960334810454,1.1448880829466683,1041,-25,18.256189288518613,20.572283196602875
0.24614252886705465,1.1448766361308738,1041,-25,18.256189288518613,20.572283196602875
0.25758886875533216,1.1448651894777107,1041,-25,18.256189288518613,20.572283196602875
0.26903505630662916,1.1448537429834693,1041,-25,18.256189288518613,20.572283196602875
0.280481094438592,1.1448422966447258,1041,-25,18.256189288518613,20.572283196602875
0.29192698584446636,1.1448308504583191,1041,-25,18.256189288518613,20.572283196602875
0.30337273301036377,1.1448194044213318,1041,-25,18.256189288518613,20.572283196602875
0.31481833823119815,1.1448079585310704,1041,-25,18.256189288518613,20.572283196602875
0.32626380362539736,1.1447965127850492,1041,-25,18.256189288518613,20.572283196602875
0.33770913114848206,1.144785067180973,1041,-25,18.256189288518613,20.572283196602875
0.34915432260559986,1.1447736217167233,1041,-25,18.256189288518613,20.572283196602875
0.3605993796630959,1.1447621763903448,1041,-25,18.256189288518613,20.572283196602875
0.37204430385919157,1.1447507312000322,1041,-25,18.256189288518613,20.572283196602875
0.3834890966138437,1.1447392861441192,1041,-25,18.256189288518613,20.572283196602875
0.3949337592378431,1.1447278412210677,1041,-25,18.256189288518613,20.572283196602875
0.40637829294121414,1.1447163964294575,1041,-25,18.256189288518613,20.572283196602875
0.41782269884096834,1.1447049517679782,1041,-25,18.256189288518613,20.572283196602875
0.42926697796826035,1.1446935072354192,1041,-25,18.256189288518613,20.572283196602875
0.44071113127499434,1.1446820628306638,1041,-25,18.256189288518613,20.572283196602875
0.45215515963992126,1.144670618552681,1041,-25,18.256189288518613,20.572283196602875
0.4635990638742679,1.1446591744005188,1041,-25,18.256189288518613,20.572283196602875
0.4750428447269318,1.1446477303732983,1041,-25,18.256189288518613,20.572283196602875
0.4864865028892771,1.1446362864702082,1041,-25,18.256189288518613,20.572283196602875
0.49793003899956134,1.1446248426905001,1041,-25,18.256189288518613,20.572283196602875
0.5093734536470215,1.1446133990334821,1041,-25,18.256189288518613,20.572283196602875
0.5208167473756459,1.144601955498516,1041,-25,18.256189288518613,20.572283196602875
0.5322599206876552,1.144590512085013,1041,-25,18.256189288518613,20.572283196602875
0.5437029740467166,1.1445790687924289,1041,-25,18.256189288518613,20.572283196602875
0.5551459078809103,1.144567625620261,1041,-25,18.256189288518613,20.572283196602875
0.566588722585467,1.1445561825680464,1041,-25,18.256189288518613,20.572283196602875
0.5780314185252955,1.1445447396353565,1041,-25,18.256189288518613,20.572283196602875
0.5894739960373163,1.1445332968217963,1041,-25,18.256189288518613,20.572283196602875
0.6009164554326148,1.1445218541270008,1041,-25,18.256189288518613,20.572283196602875
0.6123587969984287,1.144510411550633,1041,-25,18.256189288518613,20.572283196602875
0.6238010209999831,1.144498969092382,1041,-25,18.256189288518613,20.572283196602875
0.6352431276821847,1.1444875267519605,1041,-25,18.256189288518613,20.572283196602875
0.6466851172711842,1.144476084529103,1041,-25,18.256189288518613,20.572283196602875
0.6581269899758199,1.1444646424235652,1041,-25,18.256189288518613,20.572283196602875
0.6695687459889503,1.1444532004351204,1041,-25,18.256189288518613,20.572283196602875
0.6810103854886825,1.14444175856356,1041,-25,18.256189288518613,20.572283196602875
0.6924519086395079,1.1444303168086911,1041,-25,18.256189288518613,20.572283196602875
0.7038933155933494,1.1444188751703355,1041,-25,18.256189288518613,20.572283196602875
0.7153346064905295,1.1444074336483288,1041,-25,18.256189288518613,20.572283196602875
0.7267757814606612,1.144395992242519,1041,-25,18.256189288518613,20.572283196602875
0.7382168406234736,1.1443845509527661,1041,-25,18.256189288518613,20.572283196602875
0.7496577840895707,1.14437310977894,1041,-25,18.256189288518613,20.572283196602875
0.7610986119611348,1.1443616687209215,1041,-25,18.256189288518613,20.572283196602875
0.7725393243325748,1.1443502277785995,1041,-25,18.256189288518613,20.572283196602875
0.7839799212911225,1.144338786951872,1041,-25,18.256189288518613,20.572283196602875
0.7954204029173868,1.1443273462406447,1041,-25,18.256189288518613,20.572283196602875
0.8068607692858617,1.1443159056448302,1041,-25,18.256189288518613,20.572283196602875
0.8183010204653983,1.144304465164348,1041,-25,18.256189288518613,20.572283196602875
0.8297411565196375,1.1442930247991236,1041,-25,18.256189288518613,20.572283196602875
0.8411811775074121,1.1442815845490881,1041,-25,18.256189288518613,20.572283196602875
0.852621083483115,1.1442701444141778,1041,-25,18.256189288518613,20.572283196602875
0.8640608744970436,1.1442587043943342,1041,-25,18.256189288518613,20.572283196602875
0.8755005505957122,1.1442472644895025,1041,-25,18.256189288518613,20.572283196602875
0.8869401118221446,1.1442358246996325,1041,-25,18.256189288518613,20.572283196602875
0.8983795582161422,1.1442243850246778,1041,-25,18.256189288518613,20.572283196602875
0.9098188898145317,1.1442129454645953,1041,-25,18.256189288518613,20.572283196602875
0.9212581066513948,1.1442015060193453,1041,-25,18.256189288518613,20.572283196602875
0.9326972087582787,1.144190066688891,1041,-25,18.256189288518613,20.572283196602875
0.9441361961643909,1.144178627473198,1041,-25,18.256189288518613,20.572283196602875
0.9555750688967801,1.144167188372235,1041,-25,18.256189288518613,20.572283196602875
0.9670138269805012,1.1441557493859729,1041,-25,18.256189288518613,20.572283196602875
0.9784524704387698,1.1441443105143845,1041,-25,18.256189288518613,20.572283196602875
0.989890999293103,1.1441328717574446,1041,-25,18.256189288518613,20.572283196602875
1.0013294135634503,1.1441214331151301,1041,-25,18.256189288518613,20.572283196602875
1.0127677132683142,1.1441099945874198,1041,-25,18.256189288518613,20.572283196602875
1.0242058984248616,1.1440985561742933,1041,-25,18.256189288518613,20.572283196602875
1.0356439690490271,1.1440871178757321,1041,-25,18.256189288518613,20.572283196602875
1.0470819251556058,1.1440756796917195,1041,-25,18.256189288518613,20.572283196602875
1.0585197667583435,1.1440642416222393,1041,-25,18.256189288518613,20.572283196602875
1.0699574938700163,1.1440528036672764,1041,-25,18.256189288518613,20.572283196602875
1.0813951065025045,1.1440413658268176,1041,-25,18.256189288518613,20.572283196602875
1.0928326046668633,1.1440299281008497,1041,-25,18.256189288518613,20.572283196602875
1.1042699883733844,1.1440184904893609,1041,-25,18.256189288518613,20.572283196602875
1.115707257631656,1.1440070529923403,1041,-25,18.256189288518613,20.572283196602875
1.1271444124506165,1.1439956156097775,1041,-25,18.256189288518613,20.572283196602875
1.1385814528386042,1.143984178341663,1041,-25,18.256189288518613,20.572283196602875
1.1500183788034042,1.1439727411879879,1041,-25,18.256189288518613,20.572283196602875
1.1614551903522905,1.1439613041487435,1041,-25,18.256189288518613,20.572283196602875
1.172891887492065,1.1439498672239226,1041,-25,18.256189288518613,20.572283196602875
1.1843284702290944,1.1439384304135174,1041,-25,18.256189288518613,20.572283196602875
1.1957649385693436,1.1439269937175212,1041,-25,18.256189288518613,20.572283196602875
1.2072012925184061,1.1439155571359279,1041,-25,18.256189288518613,20.572283196602875
1.2186375320815337,1.1439041206687313,1041,-25,18.256189288518613,20.572283196602875
1.2300736572636617,1.1438926843159258,1041,-25,18.256189288518613,20.572283196602875
1.241509668069433,1.1438812480775065,1041,-25,18.256189288518613,20.572283196602875
1.2529455645032221,1.1438698119534678,1041,-25,18.256189288518613,20.572283196602875
1.264381346569155,1.1438583759438057,1041,-25,18.256189288518613,20.572283196602875
1.2758170142711267,1.1438469400485156,1041,-25,18.256189288518613,20.572283196602875
1.2872525676128221,1.1438355042675932,1041,-25,18.256189288518613,20.572283196602875
1.2986880065977295,1.1438240686010348,1041,-25,18.256189288518613,20.572283196602875
1.3101233312291574,1.1438126330488367,1041,-25,18.256189288518613,20.572283196602875
1.321558541510247,1.1438011976109954,1041,-25,18.256189288518613,20.572283196602875
1.3329936374439864,1.1437897622875075,1041,-25,18.256189288518613,20.572283196602875
1.3444286190332215,1.14377832707837,1041,-25,18.256189288518613,20.572283196602875
1.355863486280667,1.1437668919835797,1041,-25,18.256189288518613,20.572283196602875
1.3672982391889164,1.143755457003134,1041,-25,18.256189288518613,20.572283196602875
1.3787328777604524,1.14374402213703,1041,-25,18.256189288518613,20.572283196602875
1.3901674019976538,1.1437325873852653,1041,-25,18.256189288518613,20.572283196602875
1.4016018119028049,1.1437211527478373,1041,-25,18.256189288518613,20.572283196602875
1.4130361074781015,1.1437097182247435,1041,-25,18.256189288518613,20.572283196602875
1.4244702887256595,1.143698283815982,1041,-25,18.256189288518613,20.572283196602875
1.4359043556475186,1.14368684952155,1041,-25,18.256189288518613,20.572283196602875
1.4473383082456501,1.143675415341446,1041,-25,18.256189288518613,20.572283196602875
1.4587721465219623,1.1436639812756675,1041,-25,18.256189288518613,20.572283196602875
1.4702058704783028,1.1436525473242127,1041,-25,18.256189288518613,20.572283196602875
1.4816394801164667,1.1436411134870799,1041,-25,18.256189288518613,20.572283196602875
1.493072975438198,1.1436296797642669,1041,-25,18.256189288518613,20.572283196602875
1.5045063564451948,1.1436182461557722,1041,-25,18.256189288518613,20.572283196602875
1.5159396231391122,1.143606812661594,1041,-25,18.256189288518613,20.572283196602875
1.5273727755215658,1.1435953792817302,1041,-25,18.256189288518613,20.572283196602875
1.538805813594135,1.1435839460161796,1041,-25,18.256189288518613,20.572283196602875
1.550238737358366,1.1435725128649405,1041,-25,18.256189288518613,20.572283196602875
1.561671546815773,1.1435610798280114,1041,-25,18.256189288518613,20.572283196602875
1.5731042419678427,1.1435496469053903,1041,-25,18.256189288518613,20.572283196602875
1.584536822816034,1.1435382140970762,1041,-25,18.256189288518613,20.572283196602875
1.5959692893617823,1.1435267814030674,1041,-25,18.256189288518613,20.572283196602875
1.6074016416065013,1.1435153488233625,1041,-25,18.256189288518613,20.572283196602875
1.6188338795515826,1.1435039163579601,1041,-25,18.256189288518613,20.572283196602875
1.6302660031983986,1.1434924840068585,1041,-25,18.256189288518613,20.572283196602875
1.641698012548305,1.1434810517700569,1041,-25,18.256189288518613,20.572283196602875
1.6531299076026391,1.1434696196475531,1041,-25,18.256189288518613,20.572283196602875
1.664561688362726,1.1434581876393466,1041,-25,18.256189288518613,20.572283196602875
1.675993354829875,1.1434467557454353,1041,-25,18.256189288518613,20.572283196602875
1.687424907005383,1.1434353239658186,1041,-25,18.256189288518613,20.572283196602875
1.6988563448905347,1.1434238923004945,1041,-25,18.256189288518613,20.572283196602875
1.710287668486604,1.1434124607494622,1041,-25,18.256189288518613,20.572283196602875
1.7217188777948553,1.1434010293127201,1041,-25,18.256189288518613,20.572283196602875
1.7331499728165425,1.1433895979902673,1041,-25,18.256189288518613,20.572283196602875
1.7445809535529122,1.1433781667821021,1041,-25,18.256189288518613,20.572283196602875
1.7560118200052015,1.1433667356882236,1041,-25,18.256189288518613,20.572283196602875
1.7674425721746418,1.1433553047086304,1041,-25,18.256189288518613,20.572283196602875
1.7788732100624565,1.1433438738433213,1041,-25,18.256189288518613,20.572283196602875
1.7903037336698633,1.1433324430922949,1041,-25,18.256189288518613,20.572283196602875
1.8017341429980738,1.1433210124555502,1041,-25,18.256189288518613,20.572283196602875
1.8131644380482947,1.1433095819330859,1041,-25,18.256189288518613,20.572283196602875
1.824594618821727,1.1432981515249008,1041,-25,18.256189288518613,20.572283196602875
1.836024685319568,1.1432867212309936,1041,-25,18.256189288518613,20.572283196602875
1.8474546375430108,1.143275291051363,1041,-25,18.256189288518613,20.572283196602875
1.8588844754932439,1.1432638609860084,1041,-25,18.256189288518613,20.572283196602875
1.870314199171452,1.143252431034928,1041,-25,18.256189288518613,20.572283196602875
1.881743808578818,1.1432410011981207,1041,-25,18.256189288518613,20.572283196602875
1.8931733037165206,1.1432295714755853,1041,-25,18.256189288518613,20.572283196602875
1.9046026845857353,1.143218141867321,1041,-25,18.256189288518613,20.572283196602875
1.9160319511876365,1.1432067123733263,1041,-25,18.256189288518613,20.572283196602875
1.927461103523395,1.1431952829936,1041,-25,18.256189288518613,20.572283196602875
1.9388901415941793,1.1431838537281411,1041,-25,18.256189288518613,20.572283196602875
1.9503190654011564,1.1431724245769483,1041,-25,18.256189288518613,20.572283196602875
1.9617478749454915,1.1431609955400204,1041,-25,18.256189288518613,20.572283196602875
1.9731765702283472,1.1431495666173563,1041,-25,18.256189288518613,20.572283196602875
1.9846051512508855,1.143138137808955,1041,-25,18.256189288518613,20.572283196602875
1.996033618014267,1.143126709114815,1041,-25,18.256189288518613,20.572283196602875
2.0074619705196497,1.1431152805349354,1041,-25,18.256189288518613,20.572283196602875
2.018890208768191,1.1431038520693149,1041,-25,18.256189288518613,20.572283196602875
2.0303183327610475,1.1430924237179523,1041,-25,18.256189288518613,20.572283196602875
2.041746342499374,1.1430809954808465,1041,-25,18.256189288518613,20.572283196602875
2.0531742379843245,1.1430695673579967,1041,-25,18.256189288518613,20.572283196602875
2.0646020192170536,1.143058139349401,1041,-25,18.256189288518613,20.572283196602875
2.076029686198712,1.1430467114550589,1041,-25,18.256189288518613,20.572283196602875
2.087457238930453,1.143035283674969,1041,-25,18.256189288518613,20.572283196602875
2.0988846774134258,1.1430238560091301,1041,-25,18.256189288518613,20.572283196602875
2.110312001648781,1.1430124284575411,1041,-25,18.256189288518613,20.572283196602875
2.121739211637669,1.143001001020201,1041,-25,18.256189288518613,20.572283196602875
2.133166307381238,1.1429895736971083,1041,-25,18.256189288518613,20.572283196602875
2.1445932888806367,1.1429781464882622,1041,-25,18.256189288518613,20.572283196602875
2.1560201561370134,1.1429667193936615,1041,-25,18.256189288518613,20.572283196602875
2.1674469091515154,1.1429552924133046,1041,-25,18.256189288518613,20.572283196602875
2.178873547925289,1.142943865547191,1041,-25,18.256189288518613,20.572283196602875
2.1903000724594817,1.1429324387953192,1041,-25,18.256189288518613,20.572283196602875
2.20172648275524,1.1429210121576883,1041,-25,18.256189288518613,20.572283196602875
2.2131527788137095,1.1429095856342966,1041,-25,18.256189288518613,20.572283196602875
2.2245789606360358,1.1428981592251435,1041,-25,18.256189288518613,20.572283196602875
2.236005028223364,1.1428867329302277,1041,-25,18.256189288518613,20.572283196602875
2.24743098157684,1.142875306749548,1041,-25,18.256189288518613,20.572283196602875
2.2588568206976083,1.1428638806831033,1041,-25,18.256189288518613,20.572283196602875
2.270282545586814,1.1428524547308925,1041,-25,18.256189288518613,20.572283196602875
2.2817081562456005,1.1428410288929143,1041,-25,18.256189288518613,20.572283196602875
2.293133652675113,1.1428296031691678,1041,-25,18.256189288518613,20.572283196602875
2.3045590348764953,1.1428181775596515,1041,-25,18.256189288518613,20.572283196602875
2.3159843028508913,1.1428067520643646,1041,-25,18.256189288518613,20.572283196602875
2.3274094565994448,1.1427953266833057,1041,-25,18.256189288518613,20.572283196602875
2.338834496123299,1.142783901416474,1041,-25,18.256189288518613,20.572283196602875
2.350259421423598,1.1427724762638678,1041,-25,18.256189288518613,20.572283196602875
2.361684232501485,1.1427610512254867,1041,-25,18.256189288518613,20.572283196602875
2.3731089293581027,1.1427496263013288,1041,-25,18.256189288518613,20.572283196602875
2.3845335119945945,1.1427382014913934,1041,-25,18.256189288518613,20.572283196602875
2.395957980412103,1.1427267767956792,1041,-25,18.256189288518613,20.572283196602875
2.4073823346117726,1.1427153522141853,1041,-25,18.256189288518613,20.572283196602875
2.4188065745947442,1.1427039277469102,1041,-25,18.256189288518613,20.572283196602875
2.430230700362162,1.142692503393853,1041,-25,18.256189288518613,20.572283196602875
2.441654711915168,1.1426810791550124,1041,-25,18.256189288518613,20.572283196602875
2.4530786092549044,1.1426696550303874,1041,-25,18.256189288518613,20.572283196602875
2.464502392382515,1.1426582310199769,1041,-25,18.256189288518613,20.572283196602875
2.4759260612991407,1.1426468071237796,1041,-25,18.256189288518613,20.572283196602875
2.4873496160059254,1.1426353833417944,1041,-25,18.256189288518613,20.572283196602875
2.49877305650401,1.1426239596740202,1041,-25,18.256189288518613,20.572283196602875
2.510196382794538,1.1426125361204558,1041,-25,18.256189288518613,20.572283196602875
2.521619594878651,1.1426011126811,1041,-25,18.256189288518613,20.572283196602875
2.5330426927574914,1.142589689355952,1041,-25,18.256189288518613,20.572283196602875
2.544465676432202,1.1425782661450101,1041,-25,18.256189288518613,20.572283196602875
2.5558885459039242,1.1425668430482736,1041,-25,18.256189288518613,20.572283196602875
2.5673113011738,1.1425554200657413,1041,-25,18.256189288518613,20.572283196602875
2.578733942242971,1.1425439971974118,1041,-25,18.256189288518613,20.572283196602875
2.5901564691125802,1.1425325744432842,1041,-25,18.256189288518613,20.572283196602875
2.6015788817837695,1.1425211518033573,1041,-25,18.256189288518613,20.572283196602875
2.61300118025768,1.14250972927763,1041,-25,18.256189288518613,20.572283196602875
2.624423364535455,1.142498306866101,1041,-25,18.256189288518613,20.572283196602875
2.635845434618236,1.1424868845687695,1041,-25,18.256189288518613,20.572283196602875
2.6472673905071633,1.142475462385634,1041,-25,18.256189288518613,20.572283196602875
2.6586892322033813,1.1424640403166932,1041,-25,18.256189288518613,20.572283196602875
