Vout,Iout,Irradiance,Temperature,MaxVoltage,MaxPower
0.001636454264862838,0.327294,261,52,22.827640507923096,6.941182829042633
0.004909332535000314,0.327294,261,52,22.827640507923096,6.941182829042633
0.008182144268343473,0.32729233081633513,261,52,22.827640507923096,6.941182829042633
0.011454877578116042,0.32728905793806495,261,52,22.827640507923096,6.941182829042633
0.014727528579513312,0.32728578512649853,261,52,22.827640507923096,6.941182829042633
0.01800010108864836,0.3272825123935161,261,52,22.827640507923096,6.941182829042633
0.021272598628150428,0.32727923974284195,261,52,22.827640507923096,6.941182829042633
0.02454502444967357,0.3272759671706601,261,52,22.827640507923096,6.941182829042633
0.027817381554709624,0.32727269467344783,261,52,22.827640507923096,6.941182829042633
0.031089672713836107,0.3272694222479536,261,52,22.827640507923096,6.941182829042633
0.03436190048448311,0.3272661498911758,261,52,22.827640507923096,6.941182829042633
0.03763406722733315,0.3272628776003439,261,52,22.827640507923096,6.941182829042633
0.04090617512145937,0.3272596053729005,261,52,22.827640507923096,6.941182829042633
0.044178226178298696,0.3272563332064849,261,52,22.827640507923096,6.941182829042633
0.04745022225455009,0.327253061098918,261,52,22.827640507923096,6.941182829042633
0.05072216506408037,0.32724978904818836,261,52,22.827640507923096,6.941182829042633
0.053994056188913925,0.3272465170524393,261,52,22.827640507923096,6.941182829042633
0.0572658970893768,0.327243245109957,261,52,22.827640507923096,6.941182829042633
0.06053768911346049,0.3272399732191594,261,52,22.827640507923096,6.941182829042633
0.06380943350546502,0.32723670137858607,261,52,22.827640507923096,6.941182829042633
0.06708113141397713,0.32723342958688917,261,52,22.827640507923096,6.941182829042633
0.07035278389923479,0.3272301578428244,261,52,22.827640507923096,6.941182829042633
0.07362439193992458,0.32722688614524303,261,52,22.827640507923096,6.941182829042633
0.07689595643945671,0.32722361449308496,261,52,22.827640507923096,6.941182829042633
0.08016747823175661,0.32722034288537144,261,52,22.827640507923096,6.941182829042633
0.08343895808661145,0.3272170713211991,261,52,22.827640507923096,6.941182829042633
0.08671039671460481,0.3272137997997339,261,52,22.827640507923096,6.941182829042633
0.08998179477167215,0.32721052832020625,261,52,22.827640507923096,6.941182829042633
0.09325315286330522,0.3272072568819054,261,52,22.827640507923096,6.941182829042633
0.09652447154843356,0.32720398548417545,261,52,22.827640507923096,6.941182829042633
0.09979575134300687,0.327200714126411,261,52,22.827640507923096,6.941182829042633
0.10306699272330211,0.327197442808053,261,52,22.827640507923096,6.941182829042633
0.1063381961289758,0.32719417152858554,261,52,22.827640507923096,6.941182829042633
0.10960936196588188,0.3271909002875324,261,52,22.827640507923096,6.941182829042633
0.11288049060867224,0.32718762908445387,261,52,22.827640507923096,6.941182829042633
0.11615158240319773,0.32718435791894407,261,52,22.827640507923096,6.941182829042633
0.119422637668724,0.3271810867906284,261,52,22.827640507923096,6.941182829042633
0.1226936566999771,0.327177815699161,261,52,22.827640507923096,6.941182829042633
0.1259646397690315,0.3271745446442226,261,52,22.827640507923096,6.941182829042633
0.129235587127053,0.3271712736255184,261,52,22.827640507923096,6.941182829042633
0.13250649900590747,0.32716800264277646,261,52,22.827640507923096,6.941182829042633
0.13577737561964578,0.32716473169574556,261,52,22.827640507923096,6.941182829042633
0.13904821716587462,0.3271614607841938,261,52,22.827640507923096,6.941182829042633
0.14231902382702155,0.3271581899079072,261,52,22.827640507923096,6.941182829042633
0.14558979577150313,0.32715491906668803,261,52,22.827640507923096,6.941182829042633
0.14886053315480274,0.327151648260354,261,52,22.827640507923096,6.941182829042633
0.15213123612046575,0.32714837748873654,261,52,22.827640507923096,6.941182829042633
0.15540190480101826,0.32714510675168035,261,52,22.827640507923096,6.941182829042633
0.15867253931881461,0.32714183604904173,261,52,22.827640507923096,6.941182829042633
0.16194313978682012,0.3271385653806883,261,52,22.827640507923096,6.941182829042633
0.16521370630933363,0.32713529474649755,261,52,22.827640507923096,6.941182829042633
0.1684842389826542,0.3271320241463566,261,52,22.827640507923096,6.941182829042633
0.17175473789569654,0.3271287535801612,261,52,22.827640507923096,6.941182829042633
0.17502520313055941,0.3271254830478149,261,52,22.827640507923096,6.941182829042633
0.17829563476304977,0.3271222125492289,261,52,22.827640507923096,6.941182829042633
0.18156603286316722,0.32711894208432113,261,52,22.827640507923096,6.941182829042633
0.18483639749555042,0.3271156716530157,261,52,22.827640507923096,6.941182829042633
0.18810672871988982,0.3271124012552426,261,52,22.827640507923096,6.941182829042633
0.19137702659130842,0.32710913089093724,261,52,22.827640507923096,6.941182829042633
0.19464729116071317,0.32710586056004,261,52,22.827640507923096,6.941182829042633
0.19791752247511912,0.32710259026249555,261,52,22.827640507923096,6.941182829042633
0.2011877205779492,0.3270993199982532,261,52,22.827640507923096,6.941182829042633
0.20445788550931038,0.3270960497672658,261,52,22.827640507923096,6.941182829042633
0.2077280173062489,0.32709277956949,261,52,22.827640507923096,6.941182829042633
0.21099811600298585,0.3270895094048857,261,52,22.827640507923096,6.941182829042633
0.21426818163113426,0.3270862392734158,261,52,22.827640507923096,6.941182829042633
0.21753821421990008,0.32708296917504603,261,52,22.827640507923096,6.941182829042633
0.22080821379626725,0.32707969910974494,261,52,22.827640507923096,6.941182829042633
0.22407818038516858,0.32707642907748313,261,52,22.827640507923096,6.941182829042633
0.22734811400964378,0.3270731590782338,261,52,22.827640507923096,6.941182829042633
0.23061801469098492,0.3270698891119719,261,52,22.827640507923096,6.941182829042633
0.23388788244887093,0.3270666191786744,261,52,22.827640507923096,6.941182829042633
0.23715771730149177,0.3270633492783201,261,52,22.827640507923096,6.941182829042633
0.2404275192656631,0.32706007941088916,261,52,22.827640507923096,6.941182829042633
0.2436972883569318,0.32705680957636357,261,52,22.827640507923096,6.941182829042633
0.2469670245896737,0.32705353977472634,261,52,22.827640507923096,6.941182829042633
0.25023672797718366,0.3270502700059621,261,52,22.827640507923096,6.941182829042633
0.2535063985317588,0.32704700027005634,261,52,22.827640507923096,6.941182829042633
0.2567760362647752,0.3270437305669958,261,52,22.827640507923096,6.941182829042633
0.26004564118675877,0.3270404608967682,261,52,22.827640507923096,6.941182829042633
0.2633152133074507,0.32703719125936215,261,52,22.827640507923096,6.941182829042633
0.26658475263586784,0.32703392165476713,261,52,22.827640507923096,6.941182829042633
0.26985425918035827,0.3270306520829734,261,52,22.827640507923096,6.941182829042633
0.2731237329486533,0.32702738254397196,261,52,22.827640507923096,6.941182829042633
0.27639317394791396,0.3270241130377544,261,52,22.827640507923096,6.941182829042633
0.2796625821847758,0.32702084356431305,261,52,22.827640507923096,6.941182829042633
0.2829319576653889,0.32701757412364074,261,52,22.827640507923096,6.941182829042633
0.2862013003954553,0.32701430471573084,261,52,22.827640507923096,6.941182829042633
0.2894706103802634,0.3270110353405772,261,52,22.827640507923096,6.941182829042633
0.29273988762471986,0.32700776599817405,261,52,22.827640507923096,6.941182829042633
0.29600913213337887,0.32700449668851617,261,52,22.827640507923096,6.941182829042633
0.29927834391046965,0.32700122741159865,261,52,22.827640507923096,6.941182829042633
0.30254752295992077,0.32699795816741695,261,52,22.827640507923096,6.941182829042633
0.30581666928538387,0.3269946889559668,261,52,22.827640507923096,6.941182829042633
0.3090857828902548,0.3269914197772442,261,52,22.827640507923096,6.941182829042633
0.31235486377769306,0.3269881506312457,261,52,22.827640507923096,6.941182829042633
0.31562391195064055,0.32698488151796773,261,52,22.827640507923096,6.941182829042633
0.31889292741183767,0.3269816124374072,261,52,22.827640507923096,6.941182829042633
0.32216191016383905,0.32697834338956117,261,52,22.827640507923096,6.941182829042633
0.32543086020902817,0.3269750743744269,261,52,22.827640507923096,6.941182829042633
0.32869977754963015,0.32697180539200177,261,52,22.827640507923096,6.941182829042633
0.3319686621877239,0.3269685364422835,261,52,22.827640507923096,6.941182829042633
0.3352375141252536,0.32696526752526983,261,52,22.827640507923096,6.941182829042633
0.3385063333640391,0.3269619986409586,261,52,22.827640507923096,6.941182829042633
0.34177511990578524,0.326958729789348,261,52,22.827640507923096,6.941182829042633
0.34504387375209083,0.3269554609704361,261,52,22.827640507923096,6.941182829042633
0.34831259490445676,0.3269521921842212,261,52,22.827640507923096,6.941182829042633
0.35158128336429373,0.3269489234307018,261,52,22.827640507923096,6.941182829042633
0.35484993913292895,0.3269456547098763,261,52,22.827640507923096,6.941182829042633
0.35811856221161253,0.32694238602174336,261,52,22.827640507923096,6.941182829042633
0.3613871526015238,0.3269391173663016,261,52,22.827640507923096,6.941182829042633
0.36465571030377614,0.32693584874354975,261,52,22.827640507923096,6.941182829042633
0.3679242353194226,0.3269325801534867,261,52,22.827640507923096,6.941182829042633
0.37119272764946043,0.3269293115961113,261,52,22.827640507923096,6.941182829042633
0.3744611872948352,0.32692604307142253,261,52,22.827640507923096,6.941182829042633
0.37772961425644463,0.3269227745794194,261,52,22.827640507923096,6.941182829042633
0.3809980085351428,0.32691950612010084,261,52,22.827640507923096,6.941182829042633
0.38426637013174314,0.32691623769346606,261,52,22.827640507923096,6.941182829042633
0.3875346990470217,0.32691296929951424,261,52,22.827640507923096,6.941182829042633
0.3908029952817196,0.32690970093824445,261,52,22.827640507923096,6.941182829042633
0.3940712588365464,0.326906432609656,261,52,22.827640507923096,6.941182829042633
0.3973394897121823,0.32690316431374816,261,52,22.827640507923096,6.941182829042633
0.4006076879092799,0.32689989605052017,261,52,22.827640507923096,6.941182829042633
0.40387585342846705,0.32689662781997136,261,52,22.827640507923096,6.941182829042633
0.40714398627034826,0.3268933596221011,261,52,22.827640507923096,6.941182829042633
0.4104120864355067,0.3268900914569087,261,52,22.827640507923096,6.941182829042633
0.41368015392450586,0.32688682332439367,261,52,22.827640507923096,6.941182829042633
0.416948188737891,0.3268835552245553,261,52,22.827640507923096,6.941182829042633
0.42021619087619033,0.32688028715739315,261,52,22.827640507923096,6.941182829042633
0.42348416033991687,0.32687701912290656,261,52,22.827640507923096,6.941182829042633
0.426752097129569,0.32687375112109507,261,52,22.827640507923096,6.941182829042633
0.43002000124563217,0.32687048315195816,261,52,22.827640507923096,6.941182829042633
0.4332878726885794,0.3268672152154953,261,52,22.827640507923096,6.941182829042633
0.4365557114588727,0.32686394731170604,261,52,22.827640507923096,6.941182829042633
0.43982351755696314,0.3268606794405899,261,52,22.827640507923096,6.941182829042633
0.4430912909832928,0.3268574116021464,261,52,22.827640507923096,6.941182829042633
0.4463590317382946,0.32685414379637506,261,52,22.827640507923096,6.941182829042633
0.44962673982239326,0.3268508760232755,261,52,22.827640507923096,6.941182829042633
0.45289441523600604,0.3268476082828473,261,52,22.827640507923096,6.941182829042633
0.4561620579795431,0.32684434057509,261,52,22.827640507923096,6.941182829042633
0.45942966805340835,0.32684107290000314,261,52,22.827640507923096,6.941182829042633
0.46269724545799945,0.3268378052575864,261,52,22.827640507923096,6.941182829042633
0.465964790193709,0.32683453764783926,261,52,22.827640507923096,6.941182829042633
0.4692323022609242,0.32683127007076146,261,52,22.827640507923096,6.941182829042633
0.47249978166002776,0.3268280025263525,261,52,22.827640507923096,6.941182829042633
0.4757672283913979,0.32682473501461207,261,52,22.827640507923096,6.941182829042633
0.47903464245540883,0.3268214675355397,261,52,22.827640507923096,6.941182829042633
0.4823020238524315,0.3268182000891351,261,52,22.827640507923096,6.941182829042633
0.4855693725828331,0.3268149326753978,261,52,22.827640507923096,6.941182829042633
0.48883668864697777,0.32681166529432754,261,52,22.827640507923096,6.941182829042633
0.4921039720452266,0.32680839794592387,261,52,22.827640507923096,6.941182829042633
0.4953712227779383,0.32680513063018646,261,52,22.827640507923096,6.941182829042633
0.498638440845469,0.326801863347115,261,52,22.827640507923096,6.941182829042633
0.5019056262481724,0.32679859609670897,261,52,22.827640507923096,6.941182829042633
0.5051727789864002,0.32679532887896817,261,52,22.827640507923096,6.941182829042633
0.5084398990605025,0.3267920616938922,261,52,22.827640507923096,6.941182829042633
0.511706986470827,0.3267887945414807,261,52,22.827640507923096,6.941182829042633
0.5149740412177202,0.3267855274217333,261,52,22.827640507923096,6.941182829042633
0.5182410633015269,0.3267822603346497,261,52,22.827640507923096,6.941182829042633
0.5215080527225903,0.3267789932802295,261,52,22.827640507923096,6.941182829042633
0.5247750094812528,0.3267757262584724,261,52,22.827640507923096,6.941182829042633
0.5280419335778552,0.32677245926937803,261,52,22.827640507923096,6.941182829042633
0.5313088250127372,0.3267691923129461,261,52,22.827640507923096,6.941182829042633
0.5345756837862379,0.3267659253891762,261,52,22.827640507923096,6.941182829042633
0.5378425098986949,0.326762658498068,261,52,22.827640507923096,6.941182829042633
0.541109303350445,0.3267593916396212,261,52,22.827640507923096,6.941182829042633
0.5443760641418246,0.3267561248138354,261,52,22.827640507923096,6.941182829042633
0.5476427922731689,0.32675285802071036,261,52,22.827640507923096,6.941182829042633
0.5509094877448131,0.32674959126024566,261,52,22.827640507923096,6.941182829042633
0.5541761505570907,0.326746324532441,261,52,22.827640507923096,6.941182829042633
0.5574427807103357,0.326743057837296,261,52,22.827640507923096,6.941182829042633
0.5607093782048808,0.32673979117481045,261,52,22.827640507923096,6.941182829042633
0.5639759430410584,0.32673652454498386,261,52,22.827640507923096,6.941182829042633
0.5672424752192007,0.326733257947816,261,52,22.827640507923096,6.941182829042633
0.5705089747396392,0.32672999138330644,261,52,22.827640507923096,6.941182829042633
0.573775441602705,0.326726724851455,261,52,22.827640507923096,6.941182829042633
0.577041875808729,0.3267234583522612,261,52,22.827640507923096,6.941182829042633
0.5803082773580417,0.32672019188572476,261,52,22.827640507923096,6.941182829042633
0.5835746462509731,0.3267169254518454,261,52,22.827640507923096,6.941182829042633
0.5868409824878532,0.3267136590506227,261,52,22.827640507923096,6.941182829042633
0.5901072860690119,0.3267103926820565,261,52,22.827640507923096,6.941182829042633
0.5933735569947782,0.32670712634614624,261,52,22.827640507923096,6.941182829042633
0.5966397952654815,0.3267038600428917,261,52,22.827640507923096,6.941182829042633
0.5999060008814504,0.32670059377229255,261,52,22.827640507923096,6.941182829042633
0.6031721738430139,0.3266973275343485,261,52,22.827640507923096,6.941182829042633
0.6064383141505008,0.32669406132905915,261,52,22.827640507923096,6.941182829042633
0.6097044218042391,0.3266907951564242,261,52,22.827640507923096,6.941182829042633
0.6129704968045571,0.3266875290164433,261,52,22.827640507923096,6.941182829042633
0.616236539151783,0.32668426290911623,261,52,22.827640507923096,6.941182829042633
0.6195025488462451,0.3266809968344425,261,52,22.827640507923096,6.941182829042633
0.6227685258882706,0.3266777307924219,261,52,22.827640507923096,6.941182829042633
0.6260344702781878,0.32667446478305406,261,52,22.827640507923096,6.941182829042633
0.6293003820163242,0.3266711988063386,261,52,22.827640507923096,6.941182829042633
0.6325662611030072,0.3266679328622753,261,52,22.827640507923096,6.941182829042633
0.6358321075385641,0.32666466695086377,261,52,22.827640507923096,6.941182829042633
0.6390979213233229,0.3266614010721037,261,52,22.827640507923096,6.941182829042633
0.6423637024576103,0.32665813522599474,261,52,22.827640507923096,6.941182829042633
0.6456294509417538,0.3266548694125365,261,52,22.827640507923096,6.941182829042633
0.6488951667760806,0.32665160363172885,261,52,22.827640507923096,6.941182829042633
0.6521608499609178,0.3266483378835713,261,52,22.827640507923096,6.941182829042633
0.6554265004965921,0.32664507216806354,261,52,22.827640507923096,6.941182829042633
0.6586921183834311,0.32664180648520524,261,52,22.827640507923096,6.941182829042633
0.6619577036217613,0.32663854083499616,261,52,22.827640507923096,6.941182829042633
0.6652232562119098,0.3266352752174359,261,52,22.827640507923096,6.941182829042633
0.6684887761542034,0.32663200963252415,261,52,22.827640507923096,6.941182829042633
0.6717542634489689,0.32662874408026055,261,52,22.827640507923096,6.941182829042633
0.6750197180965333,0.32662547856064483,261,52,22.827640507923096,6.941182829042633
0.678285140097223,0.3266222130736766,261,52,22.827640507923096,6.941182829042633
0.6815505294513649,0.32661894761935556,261,52,22.827640507923096,6.941182829042633
0.6848158861592859,0.32661568219768145,261,52,22.827640507923096,6.941182829042633
0.6880812102213122,0.3266124168086538,261,52,22.827640507923096,6.941182829042633
0.691346501637771,0.3266091514522725,261,52,22.827640507923096,6.941182829042633
0.6946117604089884,0.32660588612853697,261,52,22.827640507923096,6.941182829042633
0.6978769865352915,0.32660262083744707,261,52,22.827640507923096,6.941182829042633
0.7011421800170063,0.3265993555790024,261,52,22.827640507923096,6.941182829042633
0.7044073408544599,0.3265960903532026,261,52,22.827640507923096,6.941182829042633
0.7076724690479784,0.3265928251600474,261,52,22.827640507923096,6.941182829042633
0.7109375645978886,0.3265895599995365,261,52,22.827640507923096,6.941182829042633
0.714202627504517,0.32658629487166946,261,52,22.827640507923096,6.941182829042633
0.71746765776819,0.3265830297764461,261,52,22.827640507923096,6.941182829042633
0.7207326553892344,0.32657976471386596,261,52,22.827640507923096,6.941182829042633
0.7239976203679763,0.3265764996839288,261,52,22.827640507923096,6.941182829042633
0.7272625527047423,0.3265732346866343,261,52,22.827640507923096,6.941182829042633
0.7305274523998586,0.32656996972198205,261,52,22.827640507923096,6.941182829042633
0.733792319453652,0.32656670478997174,261,52,22.827640507923096,6.941182829042633
0.7370571538664484,0.32656343989060316,261,52,22.827640507923096,6.941182829042633
0.7403219556385748,0.32656017502387585,261,52,22.827640507923096,6.941182829042633
0.7435867247703576,0.32655691018978955,261,52,22.827640507923096,6.941182829042633
0.7468514612621228,0.3265536453883439,261,52,22.827640507923096,6.941182829042633
0.7501161651141968,0.3265503806195386,261,52,22.827640507923096,6.941182829042633
0.7533808363269062,0.3265471158833733,261,52,22.827640507923096,6.941182829042633
0.7566454749005772,0.3265438511798477,261,52,22.827640507923096,6.941182829042633
0.7599100808355364,0.3265405865089615,261,52,22.827640507923096,6.941182829042633
0.7631746541321099,0.32653732187071427,261,52,22.827640507923096,6.941182829042633
0.7664391947906243,0.32653405726510576,261,52,22.827640507923096,6.941182829042633
0.7697037028114057,0.3265307926921357,261,52,22.827640507923096,6.941182829042633
0.7729681781947807,0.32652752815180364,261,52,22.827640507923096,6.941182829042633
0.7762326209410753,0.3265242636441093,261,52,22.827640507923096,6.941182829042633
