Vout,Iout,Irradiance,Temperature,MaxVoltage,MaxPower
0.006768314920048845,1.3536759999999999,1171,3,20.31569131048497,27.088675371563593
0.020304819607597707,1.3536759999999999,1171,3,20.31569131048497,27.088675371563593
0.03384104910140154,1.3536690963174798,1171,3,20.31569131048497,27.088675371563593
0.04737695423818893,1.3536555598127922,1171,3,20.31569131048497,27.088675371563593
0.060912518950549846,1.3536420235839888,1171,3,20.31569131048497,27.088675371563593
0.07444775902178823,1.3536284876802056,1171,3,20.31569131048497,27.088675371563593
0.08798268902136966,1.353614952116847,1171,3,20.31569131048497,27.088675371563593
0.10151732239801622,1.3536014168781294,1171,3,20.31569131048497,27.088675371563593
0.11505167156578829,1.3535878819494833,1171,3,20.31569131048497,27.088675371563593
0.12858574798369302,1.3535743473174602,1171,3,20.31569131048497,27.088675371563593
0.14211956222916752,1.353560812969646,1171,3,20.31569131048497,27.088675371563593
0.1556531240659085,1.3535472788945815,1171,3,20.31569131048497,27.088675371563593
0.1691864425064824,1.3535337450816893,1171,3,20.31569131048497,27.088675371563593
0.18271952587011883,1.3535202115212062,1171,3,20.31569131048497,27.088675371563593
0.19625238183605678,1.353506678204119,1171,3,20.31569131048497,27.088675371563593
0.20978501749278666,1.3534931451221086,1171,3,20.31569131048497,27.088675371563593
0.22331743938350324,1.353479612267496,1171,3,20.31569131048497,27.088675371563593
0.23684965354806167,1.3534660796331925,1171,3,20.31569131048497,27.088675371563593
0.2503816655617054,1.353452547212655,1171,3,20.31569131048497,27.088675371563593
0.26391348057081365,1.3534390149998439,1171,3,20.31569131048497,27.088675371563593
0.27744510332589956,1.3534254829891834,1171,3,20.31569131048497,27.088675371563593
0.290976538212068,1.3534119511755276,1171,3,20.31569131048497,27.088675371563593
0.3045077892771312,1.3533984195541258,1171,3,20.31569131048497,27.088675371563593
0.31803886025756056,1.3533848881205928,1171,3,20.31569131048497,27.088675371563593
0.33156975460244126,1.3533713568708807,1171,3,20.31569131048497,27.088675371563593
0.34510047549558454,1.3533578258012535,1171,3,20.31569131048497,27.088675371563593
0.35863102587593854,1.3533442949082617,1171,3,20.31569131048497,27.088675371563593
0.37216140845642776,1.3533307641887218,1171,3,20.31569131048497,27.088675371563593
0.38569162574134436,1.3533172336396944,1171,3,20.31569131048497,27.088675371563593
0.3992216800424003,1.353303703258467,1171,3,20.31569131048497,27.088675371563593
0.4127515734935447,1.353290173042535,1171,3,20.31569131048497,27.088675371563593
0.4262813080646414,1.353276642989587,1171,3,20.31569131048497,27.088675371563593
0.439810885574094,1.353263113097489,1171,3,20.31569131048497,27.088675371563593
0.45334030770049905,1.353249583364271,1171,3,20.31569131048497,27.088675371563593
0.46686957599340356,1.3532360537881145,1171,3,20.31569131048497,27.088675371563593
0.4803986918832337,1.353222524367341,1171,3,20.31569131048497,27.088675371563593
0.49392765669046085,1.3532089951004012,1171,3,20.31569131048497,27.088675371563593
0.5074564716340606,1.3531954659858643,1171,3,20.31569131048497,27.088675371563593
0.5209851378393234,1.3531819370224099,1171,3,20.31569131048497,27.088675371563593
0.5345136563450618,1.3531684082088191,1171,3,20.31569131048497,27.088675371563593
0.5480420281102643,1.353154879543967,1171,3,20.31569131048497,27.088675371563593
0.5615702540202377,1.353141351026814,1171,3,20.31569131048497,27.088675371563593
0.5750983348922759,1.3531278226564016,1171,3,20.31569131048497,27.088675371563593
0.5886262714808927,1.3531142944318446,1171,3,20.31569131048497,27.088675371563593
0.6021540644826527,1.3531007663523253,1171,3,20.31569131048497,27.088675371563593
0.6156817145406295,1.3530872384170896,1171,3,20.31569131048497,27.088675371563593
0.6292092222485218,1.3530737106254407,1171,3,20.31569131048497,27.088675371563593
0.6427365881544521,1.3530601829767355,1171,3,20.31569131048497,27.088675371563593
0.6562638127644739,1.3530466554703804,1171,3,20.31569131048497,27.088675371563593
0.6697908965458076,1.3530331281058272,1171,3,20.31569131048497,27.088675371563593
0.6833178399298294,1.35301960088257,1171,3,20.31569131048497,27.088675371563593
0.6968446433148284,1.3530060738001413,1171,3,20.31569131048497,27.088675371563593
0.710371307068553,1.3529925468581099,1171,3,20.31569131048497,27.088675371563593
0.7238978315305601,1.3529790200560776,1171,3,20.31569131048497,27.088675371563593
0.7374242170143853,1.3529654933936766,1171,3,20.31569131048497,27.088675371563593
0.7509504638095436,1.3529519668705674,1171,3,20.31569131048497,27.088675371563593
0.7644765721833785,1.3529384404864362,1171,3,20.31569131048497,27.088675371563593
0.7780025423827678,1.3529249142409936,1171,3,20.31569131048497,27.088675371563593
0.7915283746356979,1.3529113881339725,1171,3,20.31569131048497,27.088675371563593
0.8050540691527178,1.3528978621651258,1171,3,20.31569131048497,27.088675371563593
0.8185796261282804,1.3528843363342253,1171,3,20.31569131048497,27.088675371563593
0.8321050457419811,1.352870810641061,1171,3,20.31569131048497,27.088675371563593
0.8456303281597011,1.352857285085438,1171,3,20.31569131048497,27.088675371563593
0.8591554735346624,1.3528437596671767,1171,3,20.31569131048497,27.088675371563593
0.8726804820084018,1.3528302343861116,1171,3,20.31569131048497,27.088675371563593
0.8862053537116699,1.3528167092420893,1171,3,20.31569131048497,27.088675371563593
0.8997300887652613,1.3528031842349681,1171,3,20.31569131048497,27.088675371563593
0.9132546872807807,1.3527896593646174,1171,3,20.31569131048497,27.088675371563593
0.9267791493613493,1.3527761346309162,1171,3,20.31569131048497,27.088675371563593
0.9403034751022584,1.352762610033753,1171,3,20.31569131048497,27.088675371563593
0.9538276645915711,1.352749085573025,1171,3,20.31569131048497,27.088675371563593
0.967351717910679,1.3527355612486367,1171,3,20.31569131048497,27.088675371563593
0.9808756351348152,1.3527220370604998,1171,3,20.31569131048497,27.088675371563593
0.9943994163335284,1.352708513008533,1171,3,20.31569131048497,27.088675371563593
1.00792306157112,1.3526949890926614,1171,3,20.31569131048497,27.088675371563593
1.0214465709070477,1.352681465312815,1171,3,20.31569131048497,27.088675371563593
1.0349699443962987,1.3526679416689298,1171,3,20.31569131048497,27.088675371563593
1.0484931820897336,1.3526544181609463,1171,3,20.31569131048497,27.088675371563593
1.062016284034403,1.3526408947888093,1171,3,20.31569131048497,27.088675371563593
1.0755392502738423,1.3526273715524684,1171,3,20.31569131048497,27.088675371563593
1.0890620808483402,1.352613848451876,1171,3,20.31569131048497,27.088675371563593
1.1025847757951903,1.352600325486989,1171,3,20.31569131048497,27.088675371563593
1.1161073351489206,1.3525868026577668,1171,3,20.31569131048497,27.088675371563593
1.129629758941506,1.352573279964172,1171,3,20.31569131048497,27.088675371563593
1.1431520472025651,1.3525597574061707,1171,3,20.31569131048497,27.088675371563593
1.1566741999595427,1.3525462349837303,1171,3,20.31569131048497,27.088675371563593
1.170196217237875,1.3525327126968216,1171,3,20.31569131048497,27.088675371563593
1.1837180990611451,1.3525191905454168,1171,3,20.31569131048497,27.088675371563593
1.1972398454512259,1.3525056685294907,1171,3,20.31569131048497,27.088675371563593
1.2107614564284108,1.3524921466490196,1171,3,20.31569131048497,27.088675371563593
1.2242829320115367,1.3524786249039817,1171,3,20.31569131048497,27.088675371563593
1.2378042722180942,1.3524651032943569,1171,3,20.31569131048497,27.088675371563593
1.251325477064333,1.352451581820126,1171,3,20.31569131048497,27.088675371563593
1.2648465465653551,1.3524380604812714,1171,3,20.31569131048497,27.088675371563593
1.2783674807352061,1.3524245392777774,1171,3,20.31569131048497,27.088675371563593
1.2918882795869542,1.3524110182096285,1171,3,20.31569131048497,27.088675371563593
1.3054089431327653,1.3523974972768107,1171,3,20.31569131048497,27.088675371563593
1.3189294713839752,1.352383976479311,1171,3,20.31569131048497,27.088675371563593
1.332449864351149,1.3523704558171175,1171,3,20.31569131048497,27.088675371563593
1.345970122044145,1.3523569352902183,1171,3,20.31569131048497,27.088675371563593
1.3594902444721655,1.352343414898603,1171,3,20.31569131048497,27.088675371563593
1.3730102316438098,1.3523298946422622,1171,3,20.31569131048497,27.088675371563593
1.386530083567119,1.3523163745211861,1171,3,20.31569131048497,27.088675371563593
1.4000498002496191,1.3523028545353666,1171,3,20.31569131048497,27.088675371563593
1.4135693816983617,1.3522893346847953,1171,3,20.31569131048497,27.088675371563593
1.4270888279199587,1.352275814969465,1171,3,20.31569131048497,27.088675371563593
1.4406081389206193,1.3522622953893682,1171,3,20.31569131048497,27.088675371563593
1.454127314706177,1.3522487759444983,1171,3,20.31569131048497,27.088675371563593
1.4676463552821213,1.3522352566348497,1171,3,20.31569131048497,27.088675371563593
1.4811652606536225,1.3522217374604162,1171,3,20.31569131048497,27.088675371563593
1.494684030825558,1.352208218421192,1171,3,20.31569131048497,27.088675371563593
1.5082026658025334,1.3521946995171725,1171,3,20.31569131048497,27.088675371563593
1.5217211655889038,1.3521811807483526,1171,3,20.31569131048497,27.088675371563593
1.5352395301887936,1.3521676621147274,1171,3,20.31569131048497,27.088675371563593
1.5487577596061128,1.352154143616293,1171,3,20.31569131048497,27.088675371563593
1.5622758538445765,1.3521406252530448,1171,3,20.31569131048497,27.088675371563593
1.5757938129077154,1.3521271070249794,1171,3,20.31569131048497,27.088675371563593
1.5893116367988946,1.3521135889320928,1171,3,20.31569131048497,27.088675371563593
1.6028293255213233,1.3521000709743816,1171,3,20.31569131048497,27.088675371563593
1.6163468790780677,1.352086553151842,1171,3,20.31569131048497,27.088675371563593
1.6298642974720616,1.3520730354644714,1171,3,20.31569131048497,27.088675371563593
1.6433815807061185,1.3520595179122665,1171,3,20.31569131048497,27.088675371563593
1.656898728782937,1.3520460004952242,1171,3,20.31569131048497,27.088675371563593
1.6704157417051149,1.352032483213342,1171,3,20.31569131048497,27.088675371563593
1.6839326194751518,1.3520189660666169,1171,3,20.31569131048497,27.088675371563593
1.6974493620954598,1.3520054490550464,1171,3,20.31569131048497,27.088675371563593
1.7109659695683697,1.3519919321786282,1171,3,20.31569131048497,27.088675371563593
1.7244824418961355,1.3519784154373595,1171,3,20.31569131048497,27.088675371563593
1.7379987790809435,1.3519648988312383,1171,3,20.31569131048497,27.088675371563593
1.7515149811249142,1.3519513823602622,1171,3,20.31569131048497,27.088675371563593
1.7650310480301097,1.351937866024429,1171,3,20.31569131048497,27.088675371563593
1.7785469797985383,1.3519243498237368,1171,3,20.31569131048497,27.088675371563593
1.7920627764321553,1.351910833758183,1171,3,20.31569131048497,27.088675371563593
1.8055784379328719,1.3518973178277665,1171,3,20.31569131048497,27.088675371563593
1.8190939643025539,1.3518838020324844,1171,3,20.31569131048497,27.088675371563593
1.8326093555430296,1.3518702863723353,1171,3,20.31569131048497,27.088675371563593
1.8461246116560897,1.351856770847317,1171,3,20.31569131048497,27.088675371563593
1.8596397326434904,1.3518432554574282,1171,3,20.31569131048497,27.088675371563593
1.8731547185069577,1.3518297402026667,1171,3,20.31569131048497,27.088675371563593
1.8866695692481878,1.3518162250830308,1171,3,20.31569131048497,27.088675371563593
1.9001842848688517,1.3518027100985188,1171,3,20.31569131048497,27.088675371563593
1.9136988653705944,1.3517891952491292,1171,3,20.31569131048497,27.088675371563593
1.9272133107550387,1.35177568053486,1171,3,20.31569131048497,27.088675371563593
1.9407276210237865,1.3517621659557097,1171,3,20.31569131048497,27.088675371563593
1.9542417961784209,1.3517486515116768,1171,3,20.31569131048497,27.088675371563593
1.9677558362205059,1.3517351372027595,1171,3,20.31569131048497,27.088675371563593
1.9812697411515903,1.3517216230289564,1171,3,20.31569131048497,27.088675371563593
1.9947835109732064,1.3517081089902656,1171,3,20.31569131048497,27.088675371563593
2.008297145686874,1.3516945950866859,1171,3,20.31569131048497,27.088675371563593
2.0218106452940985,1.3516810813182158,1171,3,20.31569131048497,27.088675371563593
2.0353240097963745,1.3516675676848535,1171,3,20.31569131048497,27.088675371563593
2.0488372391951852,1.3516540541865976,1171,3,20.31569131048497,27.088675371563593
2.0623503334920024,1.3516405408234466,1171,3,20.31569131048497,27.088675371563593
2.0758632926882905,1.3516270275953992,1171,3,20.31569131048497,27.088675371563593
2.0893761167855045,1.3516135145024537,1171,3,20.31569131048497,27.088675371563593
2.1028888057850894,1.3516000015446088,1171,3,20.31569131048497,27.088675371563593
2.116401359688487,1.351586488721863,1171,3,20.31569131048497,27.088675371563593
2.1299137784971283,1.3515729760342146,1171,3,20.31569131048497,27.088675371563593
2.143426062212439,1.3515594634816626,1171,3,20.31569131048497,27.088675371563593
2.1569382108358406,1.3515459510642052,1171,3,20.31569131048497,27.088675371563593
2.170450224368748,1.351532438781841,1171,3,20.31569131048497,27.088675371563593
2.18396210281257,1.3515189266345689,1171,3,20.31569131048497,27.088675371563593
2.1974738461687133,1.3515054146223873,1171,3,20.31569131048497,27.088675371563593
2.2109854544385783,1.3514919027452947,1171,3,20.31569131048497,27.088675371563593
2.2244969276235627,1.3514783910032897,1171,3,20.31569131048497,27.088675371563593
2.2380082657250595,1.351464879396371,1171,3,20.31569131048497,27.088675371563593
2.25151946874446,1.3514513679245372,1171,3,20.31569131048497,27.088675371563593
2.2650305366831507,1.351437856587787,1171,3,20.31569131048497,27.088675371563593
2.278541469542517,1.3514243453861186,1171,3,20.31569131048497,27.088675371563593
2.2920522673239394,1.351410834319531,1171,3,20.31569131048497,27.088675371563593
2.305562930028798,1.3513973233880228,1171,3,20.31569131048497,27.088675371563593
2.31907345765847,1.3513838125915925,1171,3,20.31569131048497,27.088675371563593
2.33258385021433,1.3513703019302388,1171,3,20.31569131048497,27.088675371563593
2.3460941076977515,1.3513567914039601,1171,3,20.31569131048497,27.088675371563593
2.3596042301101057,1.3513432810127552,1171,3,20.31569131048497,27.088675371563593
2.373114217452762,1.351329770756623,1171,3,20.31569131048497,27.088675371563593
2.3866240697270897,1.3513162606355618,1171,3,20.31569131048497,27.088675371563593
2.400133786934455,1.35130275064957,1171,3,20.31569131048497,27.088675371563593
2.4136433690762233,1.3512892407986468,1171,3,20.31569131048497,27.088675371563593
2.427152816153759,1.3512757310827903,1171,3,20.31569131048497,27.088675371563593
2.4406621281684266,1.3512622215019996,1171,3,20.31569131048497,27.088675371563593
2.454171305121587,1.351248712056273,1171,3,20.31569131048497,27.088675371563593
2.467680347014602,1.3512352027456094,1171,3,20.31569131048497,27.088675371563593
2.4811892538488323,1.351221693570007,1171,3,20.31569131048497,27.088675371563593
2.4946980256256364,1.351208184529465,1171,3,20.31569131048497,27.088675371563593
2.5082066623463755,1.3511946756239817,1171,3,20.31569131048497,27.088675371563593
2.521715164012406,1.3511811668535558,1171,3,20.31569131048497,27.088675371563593
2.5352235306250868,1.351167658218186,1171,3,20.31569131048497,27.088675371563593
2.5487317621857732,1.3511541497178707,1171,3,20.31569131048497,27.088675371563593
2.5622398586958237,1.351140641352609,1171,3,20.31569131048497,27.088675371563593
2.5757478201565926,1.351127133122399,1171,3,20.31569131048497,27.088675371563593
2.589255646569437,1.35111362502724,1171,3,20.31569131048497,27.088675371563593
2.6027633379357122,1.35110011706713,1171,3,20.31569131048497,27.088675371563593
2.6162708942567705,1.351086609242068,1171,3,20.31569131048497,27.088675371563593
2.6297783155339682,1.3510731015520525,1171,3,20.31569131048497,27.088675371563593
2.6432856017686595,1.3510595939970822,1171,3,20.31569131048497,27.088675371563593
2.6567927529621973,1.3510460865771559,1171,3,20.31569131048497,27.088675371563593
2.6702997691159354,1.3510325792922717,1171,3,20.31569131048497,27.088675371563593
2.6838066502312268,1.3510190721424291,1171,3,20.31569131048497,27.088675371563593
2.697313396309424,1.351005565127626,1171,3,20.31569131048497,27.088675371563593
2.710820007351881,1.3509920582478614,1171,3,20.31569131048497,27.088675371563593
2.724326483359949,1.3509785515031338,1171,3,20.31569131048497,27.088675371563593
2.7378328243349803,1.3509650448934423,1171,3,20.31569131048497,27.088675371563593
2.7513390302783276,1.3509515384187847,1171,3,20.31569131048497,27.088675371563593
2.7648451011913417,1.3509380320791604,1171,3,20.31569131048497,27.088675371563593
2.778351037075376,1.3509245258745677,1171,3,20.31569131048497,27.088675371563593
2.7918568379317805,1.3509110198050054,1171,3,20.31569131048497,27.088675371563593
2.805362503761908,1.350897513870472,1171,3,20.31569131048497,27.088675371563593
2.818868034567109,1.350884008070966,1171,3,20.31569131048497,27.088675371563593
2.832373430348735,1.3508705024064867,1171,3,20.31569131048497,27.088675371563593
2.845878691108137,1.3508569968770319,1171,3,20.31569131048497,27.088675371563593
2.8593838168466656,1.3508434914826009,1171,3,20.31569131048497,27.088675371563593
2.8728888075656727,1.350829986223192,1171,3,20.31569131048497,27.088675371563593
2.886393663266508,1.3508164810988041,1171,3,20.31569131048497,27.088675371563593
2.8998983839505232,1.3508029761094356,1171,3,20.31569131048497,27.088675371563593
2.9134029696190686,1.3507894712550852,1171,3,20.31569131048497,27.088675371563593
2.926907420273494,1.3507759665357517,1171,3,20.31569131048497,27.088675371563593
2.940411735915151,1.3507624619514338,1171,3,20.31569131048497,27.088675371563593
2.9539159165453897,1.3507489575021296,1171,3,20.31569131048497,27.088675371563593
2.9674199621655597,1.3507354531878386,1171,3,20.31569131048497,27.088675371563593
2.980923872777012,1.3507219490085587,1171,3,20.31569131048497,27.088675371563593
2.9944276483810968,1.350708444964289,1171,3,20.31569131048497,27.088675371563593
3.007931288979164,1.350694941055028,1171,3,20.31569131048497,27.088675371563593
3.021434794572564,1.3506814372807743,1171,3,20.31569131048497,27.088675371563593
3.0349381651626484,1.3506679336415266,1171,3,20.31569131048497,27.088675371563593
3.048441400750764,1.3506544301372836,1171,3,20.31569131048497,27.088675371563593
3.0619445013382633,1.350640926768044,1171,3,20.31569131048497,27.088675371563593
3.0754474669264953,1.350627423533806,1171,3,20.31569131048497,27.088675371563593
3.08895029751681,1.3506139204345688,1171,3,20.31569131048497,27.088675371563593
3.1024529931105578,1.350600417470331,1171,3,20.31569131048497,27.088675371563593
3.115955553709089,1.350586914641091,1171,3,20.31569131048497,27.088675371563593
3.129457979313752,1.3505734119468475,1171,3,20.31569131048497,27.088675371563593
3.1429602699258976,1.3505599093875993,1171,3,20.31569131048497,27.088675371563593
3.1564624255468763,1.3505464069633448,1171,3,20.31569131048497,27.088675371563593
3.1699644461780365,1.350532904674083,1171,3,20.31569131048497,27.088675371563593
3.183466331820728,1.3505194025198124,1171,3,20.31569131048497,27.088675371563593
3.196968082476302,1.3505059005005313,1171,3,20.31569131048497,27.088675371563593
3.2104696981461065,1.350492398616239,1171,3,20.31569131048497,27.088675371563593
3.223971178831492,1.3504788968669335,1171,3,20.31569131048497,27.088675371563593
3.237472524533808,1.350465395252614,1171,3,20.31569131048497,27.088675371563593
3.2509737352544037,1.3504518937732788,1171,3,20.31569131048497,27.088675371563593
