Vout,Iout,Irradiance,Temperature,MaxVoltage,MaxPower
0.004678145017836368,0.935638,781,24,21.84958026999514,19.96629065999936
0.014034348550180032,0.935638,781,24,21.84958026999514,19.96629065999936
0.023390361873252635,0.9356332282911821,781,24,21.84958026999514,19.96629065999936
0.0327461510062309,0.9356238720876497,781,24,21.84958026999514,19.96629065999936
0.04210170484359224,0.9356145160748038,781,24,21.84958026999514,19.96629065999936
0.05145703429448989,0.9356051602866066,781,24,21.84958026999514,19.96629065999936
0.060812149429092535,0.9355958047337047,781,24,21.84958026999514,19.96629065999936
0.07016705954292984,0.9355864494051894,781,24,21.84958026999514,19.96629065999936
0.0795217732163908,0.9355770942909905,781,24,21.84958026999514,19.96629065999936
0.08887629836974767,0.9355677393818121,781,24,21.84958026999514,19.96629065999936
0.09823064231394651,0.9355583846690742,781,24,21.84958026999514,19.96629065999936
0.10758481179748958,0.9355490301448562,781,24,21.84958026999514,19.96629065999936
0.11693881304971071,0.9355396758018476,781,24,21.84958026999514,19.96629065999936
0.12629265182072094,0.9355303216332994,781,24,21.84958026999514,19.96629065999936
0.13564633341828064,0.9355209676329826,781,24,21.84958026999514,19.96629065999936
0.1449998627418347,0.9355116137951471,781,24,21.84958026999514,19.96629065999936
0.15435324431392894,0.9355022601144849,781,24,21.84958026999514,19.96629065999936
0.16370648230920934,0.9354929065860967,781,24,21.84958026999514,19.96629065999936
0.17305958058118995,0.9354835532054601,781,24,21.84958026999514,19.96629065999936
0.18241254268696125,0.9354741999684001,781,24,21.84958026999514,19.96629065999936
0.1917653719099977,0.9354648468710635,781,24,21.84958026999514,19.96629065999936
0.2011180712812098,0.935455493909893,781,24,21.84958026999514,19.96629065999936
0.210470643598377,0.9354461410816053,781,24,21.84958026999514,19.96629065999936
0.21982309144408524,0.9354367883831693,781,24,21.84958026999514,19.96629065999936
0.229175417202284,0.9354274358117874,781,24,21.84958026999514,19.96629065999936
0.23852762307356992,0.9354180833648771,781,24,21.84958026999514,19.96629065999936
0.2478797110892942,0.9354087310400541,781,24,21.84958026999514,19.96629065999936
0.25723168312458455,0.935399378835118,781,24,21.84958026999514,19.96629065999936
0.26658354091036557,0.9353900267480376,781,24,21.84958026999514,19.96629065999936
0.2759352860444533,0.9353806747769375,781,24,21.84958026999514,19.96629065999936
0.28528692000179745,0.935371322920087,781,24,21.84958026999514,19.96629065999936
0.29463844414393475,0.935361971175888,781,24,21.84958026999514,19.96629065999936
0.3039898597277149,0.9353526195428659,781,24,21.84958026999514,19.96629065999936
0.31334116791335564,0.935343268019659,781,24,21.84958026999514,19.96629065999936
0.32269236977187765,0.9353339166050103,781,24,21.84958026999514,19.96629065999936
0.3320434662919673,0.9353245652977598,781,24,21.84958026999514,19.96629065999936
0.3413944583863121,0.9353152140968364,781,24,21.84958026999514,19.96629065999936
0.35074534689744763,0.9353058630012515,781,24,21.84958026999514,19.96629065999936
0.36009613260315537,0.9352965120100922,781,24,21.84958026999514,19.96629065999936
0.36944681622144515,0.9352871611225162,781,24,21.84958026999514,19.96629065999936
0.3787973984151538,0.9352778103377456,781,24,21.84958026999514,19.96629065999936
0.3881478797961902,0.9352684596550624,781,24,21.84958026999514,19.96629065999936
0.3974982609294541,0.9352591090738038,781,24,21.84958026999514,19.96629065999936
0.4068485423364527,0.9352497585933578,781,24,21.84958026999514,19.96629065999936
0.41619872449863976,0.9352404082131596,781,24,21.84958026999514,19.96629065999936
0.42554880786049687,0.9352310579326877,781,24,21.84958026999514,19.96629065999936
0.4348987928323786,0.9352217077514605,781,24,21.84958026999514,19.96629065999936
0.444248679793138,0.9352123576690337,781,24,21.84958026999514,19.96629065999936
0.4535984690925505,0.9352030076849969,781,24,21.84958026999514,19.96629065999936
0.46294816105355113,0.935193657798971,781,24,21.84958026999514,19.96629065999936
0.4722977559742999,0.9351843080106067,781,24,21.84958026999514,19.96629065999936
0.48164725413008724,0.9351749583195806,781,24,21.84958026999514,19.96629065999936
0.49099665577509494,0.9351656087255948,781,24,21.84958026999514,19.96629065999936
0.5003459611440189,0.9351562592283741,781,24,21.84958026999514,19.96629065999936
0.5096951704535695,0.935146909827664,781,24,21.84958026999514,19.96629065999936
0.5190442839038547,0.93513756052323,781,24,21.84958026999514,19.96629065999936
0.5283933016796578,0.9351282113148555,781,24,21.84958026999514,19.96629065999936
0.5377422239516167,0.9351188622023401,781,24,21.84958026999514,19.96629065999936
0.5470910508773116,0.9351095131854992,781,24,21.84958026999514,19.96629065999936
0.5564397826022706,0.9351001642641621,781,24,21.84958026999514,19.96629065999936
0.5657884192608961,0.9350908154381713,781,24,21.84958026999514,19.96629065999936
0.5751369609773213,0.9350814667073812,781,24,21.84958026999514,19.96629065999936
0.5844854078662008,0.9350721180716576,781,24,21.84958026999514,19.96629065999936
0.5938337600334389,0.935062769530876,781,24,21.84958026999514,19.96629065999936
0.6031820175768633,0.935053421084922,781,24,21.84958026999514,19.96629065999936
0.6125301805868466,0.9350440727336896,781,24,21.84958026999514,19.96629065999936
0.6218782491468804,0.935034724477081,781,24,21.84958026999514,19.96629065999936
0.6312262233341036,0.9350253763150058,781,24,21.84958026999514,19.96629065999936
0.6405741032197919,0.9350160282473806,781,24,21.84958026999514,19.96629065999936
0.649921888869809,0.9350066802741283,781,24,21.84958026999514,19.96629065999936
0.6592695803450229,0.9349973323951773,781,24,21.84958026999514,19.96629065999936
0.6686171777016898,0.9349879846104622,781,24,21.84958026999514,19.96629065999936
0.6779646809918096,0.9349786369199217,781,24,21.84958026999514,19.96629065999936
0.6873120902634533,0.9349692893234998,781,24,21.84958026999514,19.96629065999936
0.6966594055610648,0.9349599418211445,781,24,21.84958026999514,19.96629065999936
0.7060066269257406,0.9349505944128076,781,24,21.84958026999514,19.96629065999936
0.7153537543954864,0.9349412470984447,781,24,21.84958026999514,19.96629065999936
0.7247007880054566,0.9349318998780148,781,24,21.84958026999514,19.96629065999936
0.7340477277881717,0.9349225527514797,781,24,21.84958026999514,19.96629065999936
0.7433945737737225,0.9349132057188045,781,24,21.84958026999514,19.96629065999936
0.7527413259899562,0.9349038587799565,781,24,21.84958026999514,19.96629065999936
0.7620879844626491,0.9348945119349057,781,24,21.84958026999514,19.96629065999936
0.7714345492156663,0.9348851651836242,781,24,21.84958026999514,19.96629065999936
0.7807810202711088,0.9348758185260861,781,24,21.84958026999514,19.96629065999936
0.7901273976494483,0.9348664719622678,781,24,21.84958026999514,19.96629065999936
0.7994736813696539,0.9348571254921471,781,24,21.84958026999514,19.96629065999936
0.8088198714493067,0.9348477791157033,781,24,21.84958026999514,19.96629065999936
0.8181659679047073,0.9348384328329178,781,24,21.84958026999514,19.96629065999936
0.8275119707509735,0.9348290866437727,781,24,21.84958026999514,19.96629065999936
0.8368578800021321,0.934819740548252,781,24,21.84958026999514,19.96629065999936
0.8462036956712025,0.9348103945463403,781,24,21.84958026999514,19.96629065999936
0.8555494177702742,0.9348010486380238,781,24,21.84958026999514,19.96629065999936
0.8648950463105785,0.9347917028232893,781,24,21.84958026999514,19.96629065999936
0.874240581302554,0.9347823571021249,781,24,21.84958026999514,19.96629065999936
0.8835860227559086,0.9347730114745191,781,24,21.84958026999514,19.96629065999936
0.8929313706796744,0.9347636659404617,781,24,21.84958026999514,19.96629065999936
0.9022766250822611,0.9347543204999429,781,24,21.84958026999514,19.96629065999936
0.9116217859715028,0.9347449751529537,781,24,21.84958026999514,19.96629065999936
0.9209668533547031,0.9347356298994857,781,24,21.84958026999514,19.96629065999936
0.930311827238675,0.9347262847395309,781,24,21.84958026999514,19.96629065999936
0.9396567076297793,0.9347169396730822,781,24,21.84958026999514,19.96629065999936
0.9490014945339594,0.9347075947001329,781,24,21.84958026999514,19.96629065999936
0.9583461879567732,0.9346982498206762,781,24,21.84958026999514,19.96629065999936
0.9676907879034229,0.9346889050347066,781,24,21.84958026999514,19.96629065999936
0.9770352943787823,0.9346795603422182,781,24,21.84958026999514,19.96629065999936
0.9863797073874219,0.9346702157432061,781,24,21.84958026999514,19.96629065999936
0.9957240269336324,0.9346608712376652,781,24,21.84958026999514,19.96629065999936
1.0050682530214463,0.9346515268255909,781,24,21.84958026999514,19.96629065999936
1.0144123856546576,0.9346421825069792,781,24,21.84958026999514,19.96629065999936
1.0237564248368405,0.9346328382818259,781,24,21.84958026999514,19.96629065999936
1.033100370571366,0.934623494150127,781,24,21.84958026999514,19.96629065999936
1.042444222861417,0.9346141501118793,781,24,21.84958026999514,19.96629065999936
1.051787981710004,0.9346048061670792,781,24,21.84958026999514,19.96629065999936
1.0611316471199779,0.9345954623157235,781,24,21.84958026999514,19.96629065999936
1.070475219094041,0.9345861185578094,781,24,21.84958026999514,19.96629065999936
1.0798186976347606,0.9345767748933338,781,24,21.84958026999514,19.96629065999936
1.0891620827445783,0.934567431322294,781,24,21.84958026999514,19.96629065999936
1.0985053744258189,0.9345580878446877,781,24,21.84958026999514,19.96629065999936
1.1078485726807008,0.9345487444605123,781,24,21.84958026999514,19.96629065999936
1.1171916775113435,0.9345394011697654,781,24,21.84958026999514,19.96629065999936
1.1265346889197747,0.9345300579724448,781,24,21.84958026999514,19.96629065999936
1.1358776069079388,0.9345207148685485,781,24,21.84958026999514,19.96629065999936
1.1452204314777021,0.9345113718580744,781,24,21.84958026999514,19.96629065999936
1.1545631626308588,0.9345020289410205,781,24,21.84958026999514,19.96629065999936
1.1639058003691372,0.9344926861173851,781,24,21.84958026999514,19.96629065999936
1.1732483446942041,0.9344833433871662,781,24,21.84958026999514,19.96629065999936
1.182590795607671,0.9344740007503622,781,24,21.84958026999514,19.96629065999936
1.191933153111096,0.9344646582069714,781,24,21.84958026999514,19.96629065999936
1.2012754172059896,0.9344553157569923,781,24,21.84958026999514,19.96629065999936
1.2106175878938181,0.934445973400423,781,24,21.84958026999514,19.96629065999936
1.2199596651760065,0.9344366311372624,781,24,21.84958026999514,19.96629065999936
1.2293016490539426,0.9344272889675088,781,24,21.84958026999514,19.96629065999936
1.238643539528978,0.9344179468911609,781,24,21.84958026999514,19.96629065999936
1.2479853366024336,0.9344086049082171,781,24,21.84958026999514,19.96629065999936
1.2573270402755998,0.9343992630186763,781,24,21.84958026999514,19.96629065999936
1.2666686505497393,0.9343899212225371,781,24,21.84958026999514,19.96629065999936
1.2760101674260904,0.934380579519798,781,24,21.84958026999514,19.96629065999936
1.2853515909058668,0.9343712379104581,781,24,21.84958026999514,19.96629065999936
1.2946929209902611,0.934361896394516,781,24,21.84958026999514,19.96629065999936
1.3040341576804466,0.9343525549719703,781,24,21.84958026999514,19.96629065999936
1.3133753009775775,0.93434321364282,781,24,21.84958026999514,19.96629065999936
1.3227163508827906,0.934333872407064,781,24,21.84958026999514,19.96629065999936
1.3320573073972084,0.934324531264701,781,24,21.84958026999514,19.96629065999936
1.3413981705219373,0.93431519021573,781,24,21.84958026999514,19.96629065999936
1.3507389402580718,0.9343058492601496,781,24,21.84958026999514,19.96629065999936
1.3600796166066933,0.934296508397959,781,24,21.84958026999514,19.96629065999936
1.3694201995688715,0.934287167629157,781,24,21.84958026999514,19.96629065999936
1.3787606891456663,0.9342778269537424,781,24,21.84958026999514,19.96629065999936
1.3881010853381277,0.9342684863717143,781,24,21.84958026999514,19.96629065999936
1.3974413881472965,0.9342591458830716,781,24,21.84958026999514,19.96629065999936
1.4067815975742053,0.9342498054878132,781,24,21.84958026999514,19.96629065999936
1.4161217136198796,0.9342404651859381,781,24,21.84958026999514,19.96629065999936
1.425461736285337,0.9342311249774452,781,24,21.84958026999514,19.96629065999936
1.434801665571589,0.9342217848623335,781,24,21.84958026999514,19.96629065999936
1.4441415014796415,0.9342124448406022,781,24,21.84958026999514,19.96629065999936
1.4534812440104938,0.9342031049122499,781,24,21.84958026999514,19.96629065999936
1.4628208931651416,0.9341937650772758,781,24,21.84958026999514,19.96629065999936
1.4721604489445743,0.934184425335679,781,24,21.84958026999514,19.96629065999936
1.4814999113497778,0.9341750856874583,781,24,21.84958026999514,19.96629065999936
1.4908392803817339,0.9341657461326128,781,24,21.84958026999514,19.96629065999936
1.5001785560414205,0.9341564066711416,781,24,21.84958026999514,19.96629065999936
1.5095177383298122,0.9341470673030436,781,24,21.84958026999514,19.96629065999936
1.5188568272478802,0.9341377280283178,781,24,21.84958026999514,19.96629065999936
1.5281958227965935,0.9341283888469635,781,24,21.84958026999514,19.96629065999936
1.5375347249769176,0.9341190497589793,781,24,21.84958026999514,19.96629065999936
1.5468735337898154,0.9341097107643644,781,24,21.84958026999514,19.96629065999936
1.5562122492362485,0.9341003718631181,781,24,21.84958026999514,19.96629065999936
1.5655508713171755,0.9340910330552391,781,24,21.84958026999514,19.96629065999936
1.5748894000335532,0.9340816943407265,781,24,21.84958026999514,19.96629065999936
1.5842278353863366,0.9340723557195795,781,24,21.84958026999514,19.96629065999936
1.593566177376479,0.934063017191797,781,24,21.84958026999514,19.96629065999936
1.6029044260049328,0.9340536787573781,781,24,21.84958026999514,19.96629065999936
1.612242581272648,0.9340443404163218,781,24,21.84958026999514,19.96629065999936
1.621580643180574,0.9340350021686271,781,24,21.84958026999514,19.96629065999936
1.630918611729658,0.9340256640142933,781,24,21.84958026999514,19.96629065999936
1.6402564869208474,0.9340163259533192,781,24,21.84958026999514,19.96629065999936
1.6495942687550877,0.9340069879857039,781,24,21.84958026999514,19.96629065999936
1.6589319572333239,0.9339976501114465,781,24,21.84958026999514,19.96629065999936
1.668269552356499,0.9339883123305461,781,24,21.84958026999514,19.96629065999936
1.6776070541255577,0.9339789746430016,781,24,21.84958026999514,19.96629065999936
1.6869444625414407,0.9339696370488122,781,24,21.84958026999514,19.96629065999936
1.6962817776050902,0.933960299547977,781,24,21.84958026999514,19.96629065999936
1.7056189993174473,0.9339509621404948,781,24,21.84958026999514,19.96629065999936
1.7149561276794523,0.9339416248263649,781,24,21.84958026999514,19.96629065999936
1.724293162692045,0.9339322876055863,781,24,21.84958026999514,19.96629065999936
1.7336301043561642,0.933922950478158,781,24,21.84958026999514,19.96629065999936
1.7429669526727494,0.9339136134440792,781,24,21.84958026999514,19.96629065999936
1.752303707642738,0.9339042765033487,781,24,21.84958026999514,19.96629065999936
1.7616403692670692,0.9338949396559659,781,24,21.84958026999514,19.96629065999936
1.7709769375466802,0.9338856029019296,781,24,21.84958026999514,19.96629065999936
1.7803134124825077,0.933876266241239,781,24,21.84958026999514,19.96629065999936
1.7896497940754896,0.933866929673893,781,24,21.84958026999514,19.96629065999936
1.7989860823265613,0.9338575931998908,781,24,21.84958026999514,19.96629065999936
1.8083222772366603,0.9338482568192316,781,24,21.84958026999514,19.96629065999936
1.817658378806722,0.9338389205319141,781,24,21.84958026999514,19.96629065999936
1.8269943870376821,0.9338295843379376,781,24,21.84958026999514,19.96629065999936
1.8363303019304773,0.9338202482373011,781,24,21.84958026999514,19.96629065999936
1.8456661234860419,0.9338109122300039,781,24,21.84958026999514,19.96629065999936
1.8550018517053122,0.9338015763160447,781,24,21.84958026999514,19.96629065999936
1.8643374865892226,0.9337922404954228,781,24,21.84958026999514,19.96629065999936
1.8736730281387086,0.9337829047681371,781,24,21.84958026999514,19.96629065999936
1.8830084763547046,0.9337735691341867,781,24,21.84958026999514,19.96629065999936
1.8923438312381453,0.9337642335935707,781,24,21.84958026999514,19.96629065999936
1.901679092789965,0.9337548981462883,781,24,21.84958026999514,19.96629065999936
1.9110142610110985,0.9337455627923384,781,24,21.84958026999514,19.96629065999936
1.92034933590248,0.9337362275317201,781,24,21.84958026999514,19.96629065999936
1.9296843174650438,0.9337268923644326,781,24,21.84958026999514,19.96629065999936
1.9390192056997237,0.9337175572904748,781,24,21.84958026999514,19.96629065999936
1.948354000607454,0.9337082223098457,781,24,21.84958026999514,19.96629065999936
1.9576887021891682,0.9336988874225445,781,24,21.84958026999514,19.96629065999936
1.967023310445801,0.9336895526285702,781,24,21.84958026999514,19.96629065999936
1.9763578253782852,0.9336802179279221,781,24,21.84958026999514,19.96629065999936
1.9856922469875553,0.9336708833205989,781,24,21.84958026999514,19.96629065999936
1.9950265752745442,0.9336615488065999,781,24,21.84958026999514,19.96629065999936
2.0043608102401858,0.933652214385924,781,24,21.84958026999514,19.96629065999936
2.013694951885414,0.9336428800585705,781,24,21.84958026999514,19.96629065999936
2.0230290002111624,0.9336335458245384,781,24,21.84958026999514,19.96629065999936
2.0323629552183635,0.9336242116838266,781,24,21.84958026999514,19.96629065999936
2.0416968169079515,0.9336148776364342,781,24,21.84958026999514,19.96629065999936
2.051030585280859,0.9336055436823605,781,24,21.84958026999514,19.96629065999936
2.0603642603380203,0.9335962098216043,781,24,21.84958026999514,19.96629065999936
2.0696978420803687,0.9335868760541648,781,24,21.84958026999514,19.96629065999936
2.0790313305088364,0.933577542380041,781,24,21.84958026999514,19.96629065999936
2.088364725624357,0.933568208799232,781,24,21.84958026999514,19.96629065999936
2.0976980274278643,0.9335588753117369,781,24,21.84958026999514,19.96629065999936
2.1070312359202905,0.9335495419175547,781,24,21.84958026999514,19.96629065999936
2.116364351102569,0.9335402086166845,781,24,21.84958026999514,19.96629065999936
2.125697372975634,0.9335308754091255,781,24,21.84958026999514,19.96629065999936
2.1350303015404175,0.9335215422948765,781,24,21.84958026999514,19.96629065999936
2.144363136797852,0.9335122092739367,781,24,21.84958026999514,19.96629065999936
2.153695878748872,0.9335028763463054,781,24,21.84958026999514,19.96629065999936
2.163028527394409,0.9334935435119812,781,24,21.84958026999514,19.96629065999936
2.1723610827353967,0.9334842107709634,781,24,21.84958026999514,19.96629065999936
2.181693544772769,0.9334748781232513,781,24,21.84958026999514,19.96629065999936
2.191025913507457,0.9334655455688435,781,24,21.84958026999514,19.96629065999936
2.200358188940394,0.9334562131077394,781,24,21.84958026999514,19.96629065999936
2.209690371072514,0.933446880739938,781,24,21.84958026999514,19.96629065999936
2.2190224599047492,0.9334375484654382,781,24,21.84958026999514,19.96629065999936
2.2283544554380326,0.9334282162842393,781,24,21.84958026999514,19.96629065999936
2.2376863576732977,0.9334188841963403,781,24,21.84958026999514,19.96629065999936
2.2470181666114755,0.9334095522017403,781,24,21.84958026999514,19.96629065999936
2.2563498822535,0.9334002203004382,781,24,21.84958026999514,19.96629065999936
2.265681504600304,0.9333908884924332,781,24,21.84958026999514,19.96629065999936
2.2750130336528205,0.9333815567777244,781,24,21.84958026999514,19.96629065999936
