Vout,Iout,Irradiance,Temperature,MaxVoltage,MaxPower
0.003193699291352968,0.638746,521,38,22.873328329783373,14.08733809884199
0.00958103881953629,0.638746,521,38,22.873328329783373,14.08733809884199
0.015968248494709097,0.6387427424261087,521,38,22.873328329783373,14.08733809884199
0.022355305118674063,0.6387363550865806,521,38,22.873328329783373,14.08733809884199
0.028742201109857844,0.6387299678772311,521,38,22.873328329783373,14.08733809884199
0.03512894391577539,0.6387235808212458,521,38,22.873328329783373,14.08733809884199
0.041515540411179476,0.6387171939258934,521,38,22.873328329783373,14.08733809884199
0.047901996941988545,0.6387108071837262,521,38,22.873328329783373,14.08733809884199
0.05428831936590515,0.6387044205878695,521,38,22.873328329783373,14.08733809884199
0.06067451308998017,0.6386980341319773,521,38,22.873328329783373,14.08733809884199
0.06706058310528654,0.638691647810192,521,38,22.873328329783373,14.08733809884199
0.07344653401892536,0.6386852616171066,521,38,22.873328329783373,14.08733809884199
0.0798323700835692,0.63867887554773,521,38,22.873328329783373,14.08733809884199
0.08621809522473248,0.6386724895974549,521,38,22.873328329783373,14.08733809884199
0.09260371306594337,0.6386661037620289,521,38,22.873328329783373,14.08733809884199
0.09898922695197929,0.6386597180375263,521,38,22.873328329783373,14.08733809884199
0.10537463997031425,0.6386533324203237,521,38,22.873328329783373,14.08733809884199
0.11175995497091638,0.6386469469070762,521,38,22.873328329783373,14.08733809884199
0.11814517458452177,0.6386405614946965,521,38,22.873328329783373,14.08733809884199
0.12453030123950265,0.6386341761803345,521,38,22.873328329783373,14.08733809884199
0.1309153371774376,0.6386277909613594,521,38,22.873328329783373,14.08733809884199
0.1373002844674838,0.6386214058353429,521,38,22.873328329783373,14.08733809884199
0.14368514501964316,0.6386150208000435,521,38,22.873328329783373,14.08733809884199
0.1500699205970083,0.638608635853392,521,38,22.873328329783373,14.08733809884199
0.15645461282706566,0.6386022509934783,521,38,22.873328329783373,14.08733809884199
0.16283922321212954,0.6385958662185395,521,38,22.873328329783373,14.08733809884199
0.16922375313897284,0.6385894815269478,521,38,22.873328329783373,14.08733809884199
0.1756082038877172,0.6385830969172013,521,38,22.873328329783373,14.08733809884199
0.18199257664003854,0.6385767123879129,521,38,22.873328329783373,14.08733809884199
0.18837687248674204,0.6385703279378027,521,38,22.873328329783373,14.08733809884199
0.1947610924347537,0.6385639435656888,521,38,22.873328329783373,14.08733809884199
0.20114523741357418,0.6385575592704805,521,38,22.873328329783373,14.08733809884199
0.20752930828123584,0.6385511750511709,521,38,22.873328329783373,14.08733809884199
0.21391330582980192,0.6385447909068306,521,38,22.873328329783373,14.08733809884199
0.22029723079044208,0.6385384068366013,521,38,22.873328329783373,14.08733809884199
0.22668108383811783,0.6385320228396911,521,38,22.873328329783373,14.08733809884199
0.23306486559590694,0.638525638915369,521,38,22.873328329783373,14.08733809884199
0.23944857663899602,0.6385192550629596,521,38,22.873328329783373,14.08733809884199
0.2458322174983647,0.6385128712818402,521,38,22.873328329783373,14.08733809884199
0.2522157886641875,0.6385064875714356,521,38,22.873328329783373,14.08733809884199
0.258599290588973,0.6385001039312146,521,38,22.873328329783373,14.08733809884199
0.2649827236904626,0.6384937203606871,521,38,22.873328329783373,14.08733809884199
0.2713660883543045,0.6384873368594006,521,38,22.873328329783373,14.08733809884199
0.277749384936524,0.6384809534269376,521,38,22.873328329783373,14.08733809884199
0.28413261376580234,0.6384745700629121,521,38,22.873328329783373,14.08733809884199
0.29051577514558036,0.6384681867669681,521,38,22.873328329783373,14.08733809884199
0.296898869356001,0.6384618035387772,521,38,22.873328329783373,14.08733809884199
0.30328189665570154,0.6384554203780358,521,38,22.873328329783373,14.08733809884199
0.30966485728346843,0.6384490372844637,521,38,22.873328329783373,14.08733809884199
0.31604775145976455,0.6384426542578023,521,38,22.873328329783373,14.08733809884199
0.3224305793881392,0.6384362712978129,521,38,22.873328329783373,14.08733809884199
0.32881334125652906,0.6384298884042748,521,38,22.873328329783373,14.08733809884199
0.33519603723846014,0.6384235055769848,521,38,22.873328329783373,14.08733809884199
0.34157866749415605,0.6384171228157547,521,38,22.873328329783373,14.08733809884199
0.3479612321715615,0.638410740120411,521,38,22.873328329783373,14.08733809884199
0.3543437314072871,0.6384043574907936,521,38,22.873328329783373,14.08733809884199
0.36072616532748186,0.6383979749267544,521,38,22.873328329783373,14.08733809884199
0.3671085340486375,0.638391592428157,521,38,22.873328329783373,14.08733809884199
0.3734908376783319,0.638385209994875,521,38,22.873328329783373,14.08733809884199
0.3798730763159146,0.6383788276267921,521,38,22.873328329783373,14.08733809884199
0.38625525005314026,0.6383724453238007,521,38,22.873328329783373,14.08733809884199
0.3926373589747529,0.6383660630858013,521,38,22.873328329783373,14.08733809884199
0.3990194031590252,0.6383596809127023,521,38,22.873328329783373,14.08733809884199
0.40540138267825654,0.6383532988044189,521,38,22.873328329783373,14.08733809884199
0.4117832975992326,0.638346916760873,521,38,22.873328329783373,14.08733809884199
0.41816514798364934,0.6383405347819919,521,38,22.873328329783373,14.08733809884199
0.4245469338885049,0.6383341528677091,521,38,22.873328329783373,14.08733809884199
0.43092865536646124,0.6383277710179629,521,38,22.873328329783373,14.08733809884199
0.43731031246617696,0.6383213892326962,521,38,22.873328329783373,14.08733809884199
0.44369190523261653,0.6383150075118564,521,38,22.873328329783373,14.08733809884199
0.45007343370733316,0.6383086258553949,521,38,22.873328329783373,14.08733809884199
0.4564548979287325,0.6383022442632666,521,38,22.873328329783373,14.08733809884199
0.46283629793231396,0.6382958627354302,521,38,22.873328329783373,14.08733809884199
0.46921763375089465,0.6382894812718469,521,38,22.873328329783373,14.08733809884199
0.47559890541481625,0.6382830998724814,521,38,22.873328329783373,14.08733809884199
0.4819801129521343,0.6382767185373011,521,38,22.873328329783373,14.08733809884199
0.4883612563887951,0.6382703372662752,521,38,22.873328329783373,14.08733809884199
0.4947423357487975,0.638263956059376,521,38,22.873328329783373,14.08733809884199
0.5011233510543432,0.6382575749165775,521,38,22.873328329783373,14.08733809884199
0.5075043023259745,0.6382511938378557,521,38,22.873328329783373,14.08733809884199
0.5138851895827024,0.6382448128231882,521,38,22.873328329783373,14.08733809884199
0.5202660128421239,0.6382384318725547,521,38,22.873328329783373,14.08733809884199
0.5266467721205316,0.638232050985936,521,38,22.873328329783373,14.08733809884199
0.533027467433013,0.6382256701633148,521,38,22.873328329783373,14.08733809884199
0.5394080987935443,0.6382192894046744,521,38,22.873328329783373,14.08733809884199
0.5457886662150753,0.63821290871,521,38,22.873328329783373,14.08733809884199
0.5521691697096085,0.6382065280792776,521,38,22.873328329783373,14.08733809884199
0.5585496092882717,0.6382001475124941,521,38,22.873328329783373,14.08733809884199
0.5649299849613859,0.6381937670096376,521,38,22.873328329783373,14.08733809884199
0.5713102967385267,0.6381873865706971,521,38,22.873328329783373,14.08733809884199
0.5776905446285826,0.638181006195662,521,38,22.873328329783373,14.08733809884199
0.5840707286398067,0.6381746258845229,521,38,22.873328329783373,14.08733809884199
0.5904508487798664,0.6381682456372708,521,38,22.873328329783373,14.08733809884199
0.5968309050558882,0.6381618654538976,521,38,22.873328329783373,14.08733809884199
0.6032108974744992,0.6381554853343956,521,38,22.873328329783373,14.08733809884199
0.6095908260418658,0.6381491052787576,521,38,22.873328329783373,14.08733809884199
0.615970690763729,0.638142725286977,521,38,22.873328329783373,14.08733809884199
0.6223504916454371,0.6381363453590476,521,38,22.873328329783373,14.08733809884199
0.628730228691976,0.6381299654949638,521,38,22.873328329783373,14.08733809884199
0.635109901907997,0.63812358569472,521,38,22.873328329783373,14.08733809884199
0.6414895112978426,0.6381172059583116,521,38,22.873328329783373,14.08733809884199
0.6478690568655701,0.6381108262857335,521,38,22.873328329783373,14.08733809884199
0.6542485386149739,0.6381044466769816,521,38,22.873328329783373,14.08733809884199
0.6606279565496054,0.6380980671320519,521,38,22.873328329783373,14.08733809884199
0.6670073106727917,0.6380916876509404,521,38,22.873328329783373,14.08733809884199
0.6733866009876533,0.6380853082336437,521,38,22.873328329783373,14.08733809884199
0.6797658274971192,0.6380789288801585,521,38,22.873328329783373,14.08733809884199
0.6861449902039426,0.6380725495904815,521,38,22.873328329783373,14.08733809884199
0.6925240891107135,0.63806617036461,521,38,22.873328329783373,14.08733809884199
0.6989031242198718,0.6380597912025411,521,38,22.873328329783373,14.08733809884199
0.7052820955337189,0.6380534121042722,521,38,22.873328329783373,14.08733809884199
0.7116610030544277,0.638047033069801,521,38,22.873328329783373,14.08733809884199
0.7180398467840536,0.6380406540991251,521,38,22.873328329783373,14.08733809884199
0.7244186267245424,0.6380342751922423,521,38,22.873328329783373,14.08733809884199
0.7307973428777396,0.6380278963491506,521,38,22.873328329783373,14.08733809884199
0.7371759952453973,0.6380215175698479,521,38,22.873328329783373,14.08733809884199
0.7435545838291824,0.6380151388543327,521,38,22.873328329783373,14.08733809884199
0.7499331086306824,0.6380087602026029,521,38,22.873328329783373,14.08733809884199
0.7563115696514114,0.6380023816146569,521,38,22.873328329783373,14.08733809884199
0.7626899668928164,0.6379960030904933,521,38,22.873328329783373,14.08733809884199
0.7690683003562818,0.6379896246301104,521,38,22.873328329783373,14.08733809884199
0.775446570043135,0.6379832462335069,521,38,22.873328329783373,14.08733809884199
0.7818247759546499,0.6379768679006813,521,38,22.873328329783373,14.08733809884199
0.7882029180920518,0.6379704896316323,521,38,22.873328329783373,14.08733809884199
0.79458099645652,0.6379641114263586,521,38,22.873328329783373,14.08733809884199
0.800959011049193,0.637957733284859,521,38,22.873328329783373,14.08733809884199
0.8073369618711704,0.6379513552071324,521,38,22.873328329783373,14.08733809884199
0.8137148489235163,0.6379449771931776,521,38,22.873328329783373,14.08733809884199
0.8200926722072617,0.6379385992429933,521,38,22.873328329783373,14.08733809884199
0.8264704317234076,0.6379322213565788,521,38,22.873328329783373,14.08733809884199
0.8328481274729269,0.6379258435339329,521,38,22.873328329783373,14.08733809884199
0.8392257594567667,0.6379194657750545,521,38,22.873328329783373,14.08733809884199
0.8456033276758506,0.6379130880799427,521,38,22.873328329783373,14.08733809884199
0.8519808321310793,0.6379067104485967,521,38,22.873328329783373,14.08733809884199
0.8583582728233344,0.6379003328810153,521,38,22.873328329783373,14.08733809884199
0.8647356497534778,0.637893955377198,521,38,22.873328329783373,14.08733809884199
0.8711129629223546,0.6378875779371435,521,38,22.873328329783373,14.08733809884199
0.8774902123307938,0.6378812005608511,521,38,22.873328329783373,14.08733809884199
0.8838673979796093,0.6378748232483199,521,38,22.873328329783373,14.08733809884199
0.8902445198696023,0.6378684459995492,521,38,22.873328329783373,14.08733809884199
0.8966215780015603,0.6378620688145381,521,38,22.873328329783373,14.08733809884199
0.9029985723762601,0.6378556916932858,521,38,22.873328329783373,14.08733809884199
0.9093755029944675,0.6378493146357916,521,38,22.873328329783373,14.08733809884199
0.915752369856938,0.6378429376420546,521,38,22.873328329783373,14.08733809884199
0.9221291729644187,0.6378365607120741,521,38,22.873328329783373,14.08733809884199
0.9285059123176477,0.6378301838458493,521,38,22.873328329783373,14.08733809884199
0.9348825879173557,0.6378238070433796,521,38,22.873328329783373,14.08733809884199
0.9412591997642662,0.637817430304664,521,38,22.873328329783373,14.08733809884199
0.9476357478590954,0.637811053629702,521,38,22.873328329783373,14.08733809884199
0.9540122322025545,0.6378046770184927,521,38,22.873328329783373,14.08733809884199
0.9603886527953484,0.6377983004710356,521,38,22.873328329783373,14.08733809884199
0.9667650096381766,0.6377919239873298,521,38,22.873328329783373,14.08733809884199
0.9731413027317344,0.6377855475673746,521,38,22.873328329783373,14.08733809884199
0.9795175320767125,0.6377791712111694,521,38,22.873328329783373,14.08733809884199
0.985893697673797,0.6377727949187135,521,38,22.873328329783373,14.08733809884199
0.9922697995236704,0.6377664186900062,521,38,22.873328329783373,14.08733809884199
0.9986458376270123,0.6377600425250467,521,38,22.873328329783373,14.08733809884199
1.0050218119844982,0.6377536664238345,521,38,22.873328329783373,14.08733809884199
1.0113977225968014,0.6377472903863688,521,38,22.873328329783373,14.08733809884199
1.0177735694645922,0.6377409144126489,521,38,22.873328329783373,14.08733809884199
1.0241493525885375,0.6377345385026741,521,38,22.873328329783373,14.08733809884199
1.0305250719693035,0.637728162656444,521,38,22.873328329783373,14.08733809884199
1.0369007276075526,0.6377217868739576,521,38,22.873328329783373,14.08733809884199
1.0432763195039467,0.6377154111552145,521,38,22.873328329783373,14.08733809884199
1.0496518476591448,0.6377090355002138,521,38,22.873328329783373,14.08733809884199
1.0560273120738044,0.637702659908955,521,38,22.873328329783373,14.08733809884199
1.062402712748582,0.6376962843814373,521,38,22.873328329783373,14.08733809884199
1.0687780496841315,0.6376899089176602,521,38,22.873328329783373,14.08733809884199
1.0751533228811065,0.637683533517623,521,38,22.873328329783373,14.08733809884199
1.0815285323401593,0.637677158181325,521,38,22.873328329783373,14.08733809884199
1.0879036780619402,0.6376707829087656,521,38,22.873328329783373,14.08733809884199
1.0942787600470996,0.637664407699944,521,38,22.873328329783373,14.08733809884199
1.100653778296286,0.6376580325548598,521,38,22.873328329783373,14.08733809884199
1.107028732810147,0.6376516574735122,521,38,22.873328329783373,14.08733809884199
1.1134036235893303,0.6376452824559005,521,38,22.873328329783373,14.08733809884199
1.1197784506344817,0.6376389075020241,521,38,22.873328329783373,14.08733809884199
1.1261532139462471,0.6376325326118825,521,38,22.873328329783373,14.08733809884199
1.1325279135252717,0.6376261577854748,521,38,22.873328329783373,14.08733809884199
1.1389025493721998,0.6376197830228005,521,38,22.873328329783373,14.08733809884199
1.1452771214876747,0.6376134083238589,521,38,22.873328329783373,14.08733809884199
1.1516516298723403,0.6376070336886496,521,38,22.873328329783373,14.08733809884199
1.1580260745268394,0.6376006591171716,521,38,22.873328329783373,14.08733809884199
1.164400455451814,0.6375942846094244,521,38,22.873328329783373,14.08733809884199
1.1707747726479056,0.6375879101654073,521,38,22.873328329783373,14.08733809884199
1.177149026115757,0.6375815357851198,521,38,22.873328329783373,14.08733809884199
1.1835232158560087,0.6375751614685611,521,38,22.873328329783373,14.08733809884199
1.1898973418693017,0.6375687872157307,521,38,22.873328329783373,14.08733809884199
1.1962714041562768,0.6375624130266279,521,38,22.873328329783373,14.08733809884199
1.202645402717574,0.637556038901252,521,38,22.873328329783373,14.08733809884199
1.2090193375538334,0.6375496648396024,521,38,22.873328329783373,14.08733809884199
1.2153932086656953,0.6375432908416786,521,38,22.873328329783373,14.08733809884199
1.221767016053799,0.6375369169074797,521,38,22.873328329783373,14.08733809884199
1.2281407597187841,0.6375305430370053,521,38,22.873328329783373,14.08733809884199
1.2345144396612893,0.6375241692302546,521,38,22.873328329783373,14.08733809884199
1.2408880558819546,0.637517795487227,521,38,22.873328329783373,14.08733809884199
1.247261608381418,0.6375114218079219,521,38,22.873328329783373,14.08733809884199
1.2536350971603187,0.6375050481923386,521,38,22.873328329783373,14.08733809884199
1.2600085222192956,0.6374986746404765,521,38,22.873328329783373,14.08733809884199
1.266381883558987,0.6374923011523349,521,38,22.873328329783373,14.08733809884199
1.272755181180031,0.6374859277279132,521,38,22.873328329783373,14.08733809884199
1.2791284150830657,0.6374795543672109,521,38,22.873328329783373,14.08733809884199
1.2855015852687302,0.6374731810702272,521,38,22.873328329783373,14.08733809884199
1.2918746917376616,0.6374668078369615,521,38,22.873328329783373,14.08733809884199
1.2982477344904984,0.6374604346674132,521,38,22.873328329783373,14.08733809884199
1.3046207135278785,0.6374540615615816,521,38,22.873328329783373,14.08733809884199
1.3109936288504396,0.6374476885194661,521,38,22.873328329783373,14.08733809884199
1.3173664804588192,0.637441315541066,521,38,22.873328329783373,14.08733809884199
1.3237392683536557,0.6374349426263808,521,38,22.873328329783373,14.08733809884199
1.330111992535586,0.6374285697754096,521,38,22.873328329783373,14.08733809884199
1.3364846530052483,0.6374221969881522,521,38,22.873328329783373,14.08733809884199
1.3428572497632798,0.6374158242646075,521,38,22.873328329783373,14.08733809884199
1.349229782810318,0.6374094516047751,521,38,22.873328329783373,14.08733809884199
1.3556022521470001,0.6374030790086543,521,38,22.873328329783373,14.08733809884199
1.361974657773964,0.6373967064762446,521,38,22.873328329783373,14.08733809884199
1.3683469996918467,0.6373903340075452,521,38,22.873328329783373,14.08733809884199
1.3747192779012853,0.6373839616025554,521,38,22.873328329783373,14.08733809884199
1.3810914924029174,0.6373775892612747,521,38,22.873328329783373,14.08733809884199
1.3874636431973806,0.6373712169837026,521,38,22.873328329783373,14.08733809884199
1.393835730285312,0.6373648447698382,521,38,22.873328329783373,14.08733809884199
1.400207753667348,0.6373584726196809,521,38,22.873328329783373,14.08733809884199
1.4065797133441267,0.6373521005332302,521,38,22.873328329783373,14.08733809884199
1.412951609316284,0.6373457285104854,521,38,22.873328329783373,14.08733809884199
1.4193234415844584,0.6373393565514458,521,38,22.873328329783373,14.08733809884199
1.4256952101492866,0.6373329846561109,521,38,22.873328329783373,14.08733809884199
1.4320669150114047,0.6373266128244799,521,38,22.873328329783373,14.08733809884199
1.4384385561714512,0.6373202410565523,521,38,22.873328329783373,14.08733809884199
1.444810133630062,0.6373138693523274,521,38,22.873328329783373,14.08733809884199
1.451181647387875,0.6373074977118045,521,38,22.873328329783373,14.08733809884199
1.4575530974455266,0.637301126134983,521,38,22.873328329783373,14.08733809884199
1.463924483803654,0.6372947546218624,521,38,22.873328329783373,14.08733809884199
1.4702958064628935,0.6372883831724419,521,38,22.873328329783373,14.08733809884199
1.4766670654238832,0.637282011786721,521,38,22.873328329783373,14.08733809884199
1.4830382606872592,0.6372756404646989,521,38,22.873328329783373,14.08733809884199
1.4894093922536586,0.6372692692063749,521,38,22.873328329783373,14.08733809884199
1.4957804601237183,0.6372628980117487,521,38,22.873328329783373,14.08733809884199
1.5021514642980753,0.6372565268808195,521,38,22.873328329783373,14.08733809884199
1.5085224047773669,0.6372501558135866,521,38,22.873328329783373,14.08733809884199
1.5148932815622287,0.6372437848100493,521,38,22.873328329783373,14.08733809884199
1.5212640946532987,0.637237413870207,521,38,22.873328329783373,14.08733809884199
1.5276348440512135,0.6372310429940593,521,38,22.873328329783373,14.08733809884199
