Vout,Iout,Irradiance,Temperature,MaxVoltage,MaxPower
0.010602468053191797,2.120514,1691,52,22.930418767693844,48.03151606515597
0.03180720810990625,2.120514,1691,52,22.930418767693844,48.03151606515597
0.053011517079573994,2.1205031854805467,1691,52,22.930418767693844,48.03151606515597
0.0742153179486369,2.12048198074049,1691,52,22.930418767693844,48.03151606515597
0.09541858554772806,2.120460776432602,1691,52,22.930418767693844,48.03151606515597
0.11662134460116623,2.1204395726338534,1691,52,22.930418767693844,48.03151606515597
0.1378236179318099,2.1204183693683745,1691,52,22.930418767693844,48.03151606515597
0.15902542660688895,2.1203971666114416,1691,52,22.930418767693844,48.03151606515597
0.18022679007285053,2.1203759643402313,1691,52,22.930418767693844,48.03151606515597
0.20142772628006467,2.1203547625336765,1691,52,22.930418767693844,48.03151606515597
0.2226282517979347,2.120333561172331,1691,52,22.930418767693844,48.03151606515597
0.24382838192115097,2.120312360238244,1691,52,22.930418767693844,48.03151606515597
0.2650281307677695,2.120291159714846,1691,52,22.930418767693844,48.03151606515597
0.2862275113697438,2.120269959586843,1691,52,22.930418767693844,48.03151606515597
0.30742653575649126,2.1202487598401163,1691,52,22.930418767693844,48.03151606515597
0.3286252150320305,2.1202275604616343,1691,52,22.930418767693844,48.03151606515597
0.34982355944618204,2.1202063614393674,1691,52,22.930418767693844,48.03151606515597
0.37102157846029216,2.120185162762212,1691,52,22.930418767693844,48.03151606515597
0.39221928080789953,2.1201639644199175,1691,52,22.930418767693844,48.03151606515597
0.4134166745507334,2.1201427664030232,1691,52,22.930418767693844,48.03151606515597
0.43461376713040395,2.1201215687027957,1691,52,22.930418767693844,48.03151606515597
0.45581056541611525,2.120100371311173,1691,52,22.930418767693844,48.03151606515597
0.47700707574870693,2.1200791742207126,1691,52,22.930418767693844,48.03151606515597
0.49820330398130774,2.1200579774245467,1691,52,22.930418767693844,48.03151606515597
0.5193992555168601,2.120036780916334,1691,52,22.930418767693844,48.03151606515597
0.5405949353427585,2.120015584690221,1691,52,22.930418767693844,48.03151606515597
0.5617903480628229,2.119994388740805,1691,52,22.930418767693844,48.03151606515597
0.5829854979268106,2.1199731930630987,1691,52,22.930418767693844,48.03151606515597
0.6041803888576595,2.1199519976524983,1691,52,22.930418767693844,48.03151606515597
0.6253750244766327,2.119930802504754,1691,52,22.930418767693844,48.03151606515597
0.6465694081265313,2.1199096076159427,1691,52,22.930418767693844,48.03151606515597
0.6677635428931183,2.1198884129824433,1691,52,22.930418767693844,48.03151606515597
0.6889574316248974,2.1198672186009127,1691,52,22.930418767693844,48.03151606515597
0.710151076951365,2.1198460244682655,1691,52,22.930418767693844,48.03151606515597
0.7313444812998652,2.119824830581653,1691,52,22.930418767693844,48.03151606515597
0.7525376469111393,2.119803636938446,1691,52,22.930418767693844,48.03151606515597
0.7737305758536869,2.119782443536217,1691,52,22.930418767693844,48.03151606515597
0.7949232700370163,2.1197612503727252,1691,52,22.930418767693844,48.03151606515597
0.8161157312238785,2.119740057445902,1691,52,22.930418767693844,48.03151606515597
0.8373079610415581,2.119718864753838,1691,52,22.930418767693844,48.03151606515597
0.8584999609922974,2.1196976722947705,1691,52,22.930418767693844,48.03151606515597
0.8796917324629164,2.119676480067072,1691,52,22.930418767693844,48.03151606515597
0.9008832767336938,2.1196552880692403,1691,52,22.930418767693844,48.03151606515597
0.9220745949865651,2.119634096299889,1691,52,22.930418767693844,48.03151606515597
0.9432656883126891,2.1196129047577377,1691,52,22.930418767693844,48.03151606515597
0.964456557719431,2.119591713441604,1691,52,22.930418767693844,48.03151606515597
0.9856472041368112,2.1195705223503967,1691,52,22.930418767693844,48.03151606515597
1.0068376284234561,2.119549331483109,1691,52,22.930418767693844,48.03151606515597
1.0280278313720905,2.119528140838811,1691,52,22.930418767693844,48.03151606515597
1.049217813714609,2.1195069504166435,1691,52,22.930418767693844,48.03151606515597
1.070407576126756,2.119485760215814,1691,52,22.930418767693844,48.03151606515597
1.0915971192324458,2.1194645702355905,1691,52,22.930418767693844,48.03151606515597
1.112786443607751,2.119443380475297,1691,52,22.930418767693844,48.03151606515597
1.133975549784583,2.1194221909343107,1691,52,22.930418767693844,48.03151606515597
1.1551644382540895,2.1194010016120544,1691,52,22.930418767693844,48.03151606515597
1.1763531094697928,2.1193798125079963,1691,52,22.930418767693844,48.03151606515597
1.1975415638504823,2.119358623621646,1691,52,22.930418767693844,48.03151606515597
1.2187298017828885,2.119337434952549,1691,52,22.930418767693844,48.03151606515597
1.2399178236241488,2.1193162465002873,1691,52,22.930418767693844,48.03151606515597
1.261105629704085,2.119295058264474,1691,52,22.930418767693844,48.03151606515597
1.282293220327305,2.119273870244751,1691,52,22.930418767693844,48.03151606515597
1.3034805957751427,2.11925268244079,1691,52,22.930418767693844,48.03151606515597
1.3246677563074483,2.119231494852286,1691,52,22.930418767693844,48.03151606515597
1.3458547021642417,2.119210307478957,1691,52,22.930418767693844,48.03151606515597
1.3670414335672387,2.1191891203205433,1691,52,22.930418767693844,48.03151606515597
1.3882279507212578,2.119167933376805,1691,52,22.930418767693844,48.03151606515597
1.4094142538155223,2.119146746647521,1691,52,22.930418767693844,48.03151606515597
1.430600343024859,2.119125560132485,1691,52,22.930418767693844,48.03151606515597
1.451786218510806,2.11910437383151,1691,52,22.930418767693844,48.03151606515597
1.4729718804226353,2.119083187744419,1691,52,22.930418767693844,48.03151606515597
1.4941573288982972,2.1190620018710518,1691,52,22.930418767693844,48.03151606515597
1.5153425640652909,2.1190408162112586,1691,52,22.930418767693844,48.03151606515597
1.5365275860414667,2.1190196307649014,1691,52,22.930418767693844,48.03151606515597
1.5577123949357723,2.118998445531853,1691,52,22.930418767693844,48.03151606515597
1.5788969908489345,2.1189772605119956,1691,52,22.930418767693844,48.03151606515597
1.6000813738740935,2.1189560757052197,1691,52,22.930418767693844,48.03151606515597
1.6212655440973858,2.118934891111425,1691,52,22.930418767693844,48.03151606515597
1.642449501598484,2.118913706730518,1691,52,22.930418767693844,48.03151606515597
1.6636332464510917,2.1188925225624136,1691,52,22.930418767693844,48.03151606515597
1.6848167787234067,2.118871338607031,1691,52,22.930418767693844,48.03151606515597
1.706000098478541,2.1188501548642966,1691,52,22.930418767693844,48.03151606515597
1.7271832057749137,2.1188289713341426,1691,52,22.930418767693844,48.03151606515597
1.7483661006666127,2.118807788016506,1691,52,22.930418767693844,48.03151606515597
1.7695487832037267,2.1187866049113278,1691,52,22.930418767693844,48.03151606515597
1.7907312534326534,2.1187654220185546,1691,52,22.930418767693844,48.03151606515597
1.8119135113963827,2.118744239338136,1691,52,22.930418767693844,48.03151606515597
1.8330955571347616,2.1187230568700253,1691,52,22.930418767693844,48.03151606515597
1.8542773906847323,2.11870187461418,1691,52,22.930418767693844,48.03151606515597
1.8754590120805579,2.1186806925705595,1691,52,22.930418767693844,48.03151606515597
1.8966404213540287,2.118659510739128,1691,52,22.930418767693844,48.03151606515597
1.917821618534651,2.1186383291198503,1691,52,22.930418767693844,48.03151606515597
1.9390026036498251,2.118617147712695,1691,52,22.930418767693844,48.03151606515597
1.9601833767250039,2.1185959665176326,1691,52,22.930418767693844,48.03151606515597
1.9813639377838472,2.1185747855346353,1691,52,22.930418767693844,48.03151606515597
2.0025442868483556,2.118553604763678,1691,52,22.930418767693844,48.03151606515597
2.023724423939,2.1185324242047376,1691,52,22.930418767693844,48.03151606515597
2.0449043490748395,2.118511243857791,1691,52,22.930418767693844,48.03151606515597
2.06608406227363,2.1184900637228186,1691,52,22.930418767693844,48.03151606515597
2.087263563551923,2.118468883799801,1691,52,22.930418767693844,48.03151606515597
2.1084428529251595,2.11844770408872,1691,52,22.930418767693844,48.03151606515597
2.1296219304077573,2.1184265245895597,1691,52,22.930418767693844,48.03151606515597
2.150800796013184,2.1184053453023046,1691,52,22.930418767693844,48.03151606515597
2.171979449754038,2.1183841662269396,1691,52,22.930418767693844,48.03151606515597
2.1931578916421075,2.118362987363452,1691,52,22.930418767693844,48.03151606515597
2.2143361216884396,2.1183418087118295,1691,52,22.930418767693844,48.03151606515597
2.235514139903393,2.118320630272059,1691,52,22.930418767693844,48.03151606515597
2.2566919462966912,2.1182994520441305,1691,52,22.930418767693844,48.03151606515597
2.2778695408774743,2.1182782740280337,1691,52,22.930418767693844,48.03151606515597
2.2990469236543403,2.118257096223758,1691,52,22.930418767693844,48.03151606515597
2.3202240946353903,2.1182359186312953,1691,52,22.930418767693844,48.03151606515597
2.341401053828263,2.118214741250636,1691,52,22.930418767693844,48.03151606515597
2.362577801240174,2.1181935640817726,1691,52,22.930418767693844,48.03151606515597
2.3837543368779457,2.1181723871246976,1691,52,22.930418767693844,48.03151606515597
2.404930660748038,2.1181512103794033,1691,52,22.930418767693844,48.03151606515597
2.426106772856576,2.1181300338458833,1691,52,22.930418767693844,48.03151606515597
2.447282673209379,2.118108857524131,1691,52,22.930418767693844,48.03151606515597
2.468458361811979,2.11808768141414,1691,52,22.930418767693844,48.03151606515597
2.4896338386696466,2.118066505515905,1691,52,22.930418767693844,48.03151606515597
2.5108091037874085,2.1180453298294197,1691,52,22.930418767693844,48.03151606515597
2.531984157170068,2.11802415435468,1691,52,22.930418767693844,48.03151606515597
2.5531589988222225,2.1180029790916794,1691,52,22.930418767693844,48.03151606515597
2.574333628748277,2.1179818040404146,1691,52,22.930418767693844,48.03151606515597
2.595508046952462,2.11796062920088,1691,52,22.930418767693844,48.03151606515597
2.6166822534388428,2.1179394545730714,1691,52,22.930418767693844,48.03151606515597
2.637856248211338,2.1179182801569847,1691,52,22.930418767693844,48.03151606515597
2.659030031273725,2.1178971059526157,1691,52,22.930418767693844,48.03151606515597
2.680203602629654,2.1178759319599605,1691,52,22.930418767693844,48.03151606515597
2.7013769622826582,2.1178547581790155,1691,52,22.930418767693844,48.03151606515597
2.7225501102361602,2.117833584609777,1691,52,22.930418767693844,48.03151606515597
2.7437230464934843,2.1178124112522414,1691,52,22.930418767693844,48.03151606515597
2.7648957710578586,2.1177912381064052,1691,52,22.930418767693844,48.03151606515597
2.786068283932428,2.1177700651722655,1691,52,22.930418767693844,48.03151606515597
2.8072405851202586,2.1177488924498182,1691,52,22.930418767693844,48.03151606515597
2.8284126746243423,2.117727719939061,1691,52,22.930418767693844,48.03151606515597
2.849584552447604,2.1177065476399903,1691,52,22.930418767693844,48.03151606515597
2.8707562185929043,2.1176853755526035,1691,52,22.930418767693844,48.03151606515597
2.89192767306305,2.1176642036768976,1691,52,22.930418767693844,48.03151606515597
2.913098915860792,2.1176430320128694,1691,52,22.930418767693844,48.03151606515597
2.9342699469888345,2.1176218605605164,1691,52,22.930418767693844,48.03151606515597
2.9554407664498354,2.117600689319836,1691,52,22.930418767693844,48.03151606515597
2.9766113742464104,2.117579518290825,1691,52,22.930418767693844,48.03151606515597
2.9977817703811365,2.1175583474734814,1691,52,22.930418767693844,48.03151606515597
3.0189519548565573,2.1175371768678017,1691,52,22.930418767693844,48.03151606515597
3.040121927675182,2.117516006473784,1691,52,22.930418767693844,48.03151606515597
3.0612916888394888,2.1174948362914257,1691,52,22.930418767693844,48.03151606515597
3.0824612383519283,2.1174736663207243,1691,52,22.930418767693844,48.03151606515597
3.1036305762149268,2.117452496561677,1691,52,22.930418767693844,48.03151606515597
3.1247997024308867,2.1174313270142813,1691,52,22.930418767693844,48.03151606515597
3.1459686170021857,2.1174101576785356,1691,52,22.930418767693844,48.03151606515597
3.167137319931183,2.1173889885544366,1691,52,22.930418767693844,48.03151606515597
3.1883058112202205,2.117367819641982,1691,52,22.930418767693844,48.03151606515597
3.209474090871621,2.11734665094117,1691,52,22.930418767693844,48.03151606515597
3.2306421588876915,2.117325482451998,1691,52,22.930418767693844,48.03151606515597
3.251810015270724,2.117304314174463,1691,52,22.930418767693844,48.03151606515597
3.272977660022998,2.117283146108564,1691,52,22.930418767693844,48.03151606515597
3.2941450931467786,2.117261978254298,1691,52,22.930418767693844,48.03151606515597
3.3153123146443213,2.1172408106116625,1691,52,22.930418767693844,48.03151606515597
3.33647932451787,2.1172196431806554,1691,52,22.930418767693844,48.03151606515597
3.3576461227696597,2.1171984759612745,1691,52,22.930418767693844,48.03151606515597
3.378812709401914,2.1171773089535177,1691,52,22.930418767693844,48.03151606515597
3.39997908441685,2.117156142157383,1691,52,22.930418767693844,48.03151606515597
3.4211452478166766,2.117134975572867,1691,52,22.930418767693844,48.03151606515597
3.4423111996035947,2.117113809199969,1691,52,22.930418767693844,48.03151606515597
3.4634769397797993,2.117092643038686,1691,52,22.930418767693844,48.03151606515597
3.48464246834748,2.1170714770890156,1691,52,22.930418767693844,48.03151606515597
3.5058077853088188,2.117050311350956,1691,52,22.930418767693844,48.03151606515597
3.5269728906659954,2.117029145824505,1691,52,22.930418767693844,48.03151606515597
3.548137784421182,2.11700798050966,1691,52,22.930418767693844,48.03151606515597
3.5693024665765463,2.1169868154064195,1691,52,22.930418767693844,48.03151606515597
3.5904669371342535,2.1169656505147807,1691,52,22.930418767693844,48.03151606515597
3.6116311960964653,2.116944485834742,1691,52,22.930418767693844,48.03151606515597
3.6327952434653374,2.1169233213663006,1691,52,22.930418767693844,48.03151606515597
3.6539590792430245,2.116902157109455,1691,52,22.930418767693844,48.03151606515597
3.6751227034316782,2.1168809930642025,1691,52,22.930418767693844,48.03151606515597
3.6962861160334466,2.1168598292305414,1691,52,22.930418767693844,48.03151606515597
3.7174493170504745,2.1168386656084692,1691,52,22.930418767693844,48.03151606515597
3.7386123064849053,2.116817502197984,1691,52,22.930418767693844,48.03151606515597
3.759775084338882,2.116796338999083,1691,52,22.930418767693844,48.03151606515597
3.7809376506145416,2.116775176011765,1691,52,22.930418767693844,48.03151606515597
3.8021000053140224,2.116754013236027,1691,52,22.930418767693844,48.03151606515597
3.82326214843946,2.116732850671868,1691,52,22.930418767693844,48.03151606515597
3.844424079992988,2.1167116883192847,1691,52,22.930418767693844,48.03151606515597
3.86558579997674,2.1166905261782754,1691,52,22.930418767693844,48.03151606515597
3.8867473083928457,2.116669364248838,1691,52,22.930418767693844,48.03151606515597
3.9079086052434358,2.1166482025309707,1691,52,22.930418767693844,48.03151606515597
3.9290696905306386,2.1166270410246706,1691,52,22.930418767693844,48.03151606515597
3.9502305642565836,2.1166058797299363,1691,52,22.930418767693844,48.03151606515597
3.9713912264233953,2.1165847186467652,1691,52,22.930418767693844,48.03151606515597
3.9925516770332004,2.1165635577751556,1691,52,22.930418767693844,48.03151606515597
4.013711916088123,2.1165423971151047,1691,52,22.930418767693844,48.03151606515597
4.034871943590289,2.116521236666611,1691,52,22.930418767693844,48.03151606515597
4.056031759541821,2.116500076429672,1691,52,22.930418767693844,48.03151606515597
4.077191363944841,2.116478916404286,1691,52,22.930418767693844,48.03151606515597
4.098350756801472,2.1164577565904508,1691,52,22.930418767693844,48.03151606515597
4.119509938113837,2.1164365969881636,1691,52,22.930418767693844,48.03151606515597
4.140668907884056,2.1164154375974227,1691,52,22.930418767693844,48.03151606515597
4.161827666114247,2.1163942784182264,1691,52,22.930418767693844,48.03151606515597
4.182986212806533,2.1163731194505724,1691,52,22.930418767693844,48.03151606515597
4.2041445479630335,2.116351960694458,1691,52,22.930418767693844,48.03151606515597
4.225302671585868,2.1163308021498817,1691,52,22.930418767693844,48.03151606515597
4.246460583677154,2.116309643816841,1691,52,22.930418767693844,48.03151606515597
4.267618284239011,2.116288485695334,1691,52,22.930418767693844,48.03151606515597
4.2887757732735565,2.1162673277853585,1691,52,22.930418767693844,48.03151606515597
4.309933050782909,2.1162461700869124,1691,52,22.930418767693844,48.03151606515597
4.331090116769186,2.1162250125999935,1691,52,22.930418767693844,48.03151606515597
4.352246971234505,2.1162038553246,1691,52,22.930418767693844,48.03151606515597
4.373403614180985,2.1161826982607295,1691,52,22.930418767693844,48.03151606515597
4.394560045610741,2.11616154140838,1691,52,22.930418767693844,48.03151606515597
4.415716265525891,2.116140384767549,1691,52,22.930418767693844,48.03151606515597
4.436872273928551,2.1161192283382353,1691,52,22.930418767693844,48.03151606515597
4.458028070820836,2.1160980721204354,1691,52,22.930418767693844,48.03151606515597
4.4791836562048655,2.1160769161141486,1691,52,22.930418767693844,48.03151606515597
4.5003390300827535,2.116055760319372,1691,52,22.930418767693844,48.03151606515597
4.5214941924566165,2.1160346047361034,1691,52,22.930418767693844,48.03151606515597
4.54264914332857,2.1160134493643414,1691,52,22.930418767693844,48.03151606515597
4.56380388270073,2.1159922942040827,1691,52,22.930418767693844,48.03151606515597
4.584958410575214,2.1159711392553264,1691,52,22.930418767693844,48.03151606515597
4.606112726954135,2.11594998451807,1691,52,22.930418767693844,48.03151606515597
4.627266831839608,2.1159288299923107,1691,52,22.930418767693844,48.03151606515597
4.648420725233752,2.1159076756780473,1691,52,22.930418767693844,48.03151606515597
4.669574407138678,2.1158865215752773,1691,52,22.930418767693844,48.03151606515597
4.690727877556504,2.1158653676839987,1691,52,22.930418767693844,48.03151606515597
4.711881136489343,2.115844214004209,1691,52,22.930418767693844,48.03151606515597
4.733034183939312,2.1158230605359067,1691,52,22.930418767693844,48.03151606515597
4.754187019908523,2.1158019072790895,1691,52,22.930418767693844,48.03151606515597
4.775339644399094,2.1157807542337546,1691,52,22.930418767693844,48.03151606515597
4.796492057413139,2.1157596013999007,1691,52,22.930418767693844,48.03151606515597
4.817644258952772,2.1157384487775257,1691,52,22.930418767693844,48.03151606515597
4.838796249020109,2.115717296366627,1691,52,22.930418767693844,48.03151606515597
4.859948027617262,2.1156961441672024,1691,52,22.930418767693844,48.03151606515597
4.88109959474635,2.11567499217925,1691,52,22.930418767693844,48.03151606515597
4.902250950409483,2.1156538404027683,1691,52,22.930418767693844,48.03151606515597
4.923402094608777,2.1156326888377546,1691,52,22.930418767693844,48.03151606515597
4.9445530273463465,2.1156115374842064,1691,52,22.930418767693844,48.03151606515597
4.965703748624308,2.1155903863421224,1691,52,22.930418767693844,48.03151606515597
4.9868542584447715,2.1155692354115,1691,52,22.930418767693844,48.03151606515597
5.008004556809857,2.115548084692337,1691,52,22.930418767693844,48.03151606515597
5.029154643721673,2.115526934184632,1691,52,22.930418767693844,48.03151606515597
5.050304519182337,2.1155057838883815,1691,52,22.930418767693844,48.03151606515597
5.071454183193963,2.115484633803585,1691,52,22.930418767693844,48.03151606515597
