Vout,Iout,Irradiance,Temperature,MaxVoltage,MaxPower
0.008157191565465717,1.631454,1301,52,22.90924219429211,36.80299371494936
0.024471423862204626,1.631454,1301,52,22.90924219429211,36.80299371494936
0.040785324494692944,1.6314456796630346,1301,52,22.90924219429211,36.80299371494936
0.05709883421122211,1.6314293654307377,1301,52,22.90924219429211,36.80299371494936
0.07341193364730585,1.6314130515309373,1301,52,22.90924219429211,36.80299371494936
0.08972464182502499,1.6313967380228522,1301,52,22.90924219429211,36.80299371494936
0.10603697630353914,1.6313804249250474,1301,52,22.90924219429211,36.80299371494936
0.12234895329128476,1.6313641122185012,1301,52,22.90924219429211,36.80299371494936
0.13866058774972123,1.631347799885654,1301,52,22.90924219429211,36.80299371494936
0.1549718934892751,1.6313314879102974,1301,52,22.90924219429211,36.80299371494936
0.17128288325790245,1.6313151762774702,1301,52,22.90924219429211,36.80299371494936
0.18759356882283704,1.631298864973362,1301,52,22.90924219429211,36.80299371494936
0.20390396104604855,1.6312825539852245,1301,52,22.90924219429211,36.80299371494936
0.2202140699538951,1.6312662433012906,1301,52,22.90924219429211,36.80299371494936
0.23652390480141644,1.6312499329106984,1301,52,22.90924219429211,36.80299371494936
0.2528334741316805,1.6312336228034217,1301,52,22.90924219429211,36.80299371494936
0.26914278583056345,1.6312173129702052,1301,52,22.90924219429211,36.80299371494936
0.28545184717731525,1.631201003402506,1301,52,22.90924219429211,36.80299371494936
0.30176066489123426,1.6311846940924382,1301,52,22.90924219429211,36.80299371494936
0.31806924517475105,1.6311683850327223,1301,52,22.90924219429211,36.80299371494936
0.3343775937531966,1.6311520762166394,1301,52,22.90924219429211,36.80299371494936
0.3506857159115115,1.6311357676379867,1301,52,22.90924219429211,36.80299371494936
0.36699361652813,1.6311194592910392,1301,52,22.90924219429211,36.80299371494936
0.3833013001062574,1.6311031511705116,1301,52,22.90924219429211,36.80299371494936
0.3996087708027409,1.631086843271526,1301,52,22.90924219429211,36.80299371494936
0.4159160324547182,1.6310705355895785,1301,52,22.90924219429211,36.80299371494936
0.4322230886042179,1.631054228120513,1301,52,22.90924219429211,36.80299371494936
0.4485299425208637,1.6310379208604917,1301,52,22.90924219429211,36.80299371494936
0.46483659722283543,1.631021613805973,1301,52,22.90924219429211,36.80299371494936
0.48114305549621467,1.631005306953687,1301,52,22.90924219429211,36.80299371494936
0.4974493199128427,1.6309890003006158,1301,52,22.90924219429211,36.80299371494936
0.5137553928468048,1.630972693843973,1301,52,22.90924219429211,36.80299371494936
0.5300612764896458,1.630956387581187,1301,52,22.90924219429211,36.80299371494936
0.5463669728644152,1.6309400815098838,1301,52,22.90924219429211,36.80299371494936
0.5626724838386307,1.6309237756278716,1301,52,22.90924219429211,36.80299371494936
0.5789778111362461,1.6309074699331274,1301,52,22.90924219429211,36.80299371494936
0.5952829563486971,1.6308911644237838,1301,52,22.90924219429211,36.80299371494936
0.6115879209450966,1.6308748590981168,1301,52,22.90924219429211,36.80299371494936
0.6278927062816475,1.6308585539545348,1301,52,22.90924219429211,36.80299371494936
0.6441973136103293,1.630842248991569,1301,52,22.90924219429211,36.80299371494936
0.6605017440869182,1.630825944207863,1301,52,22.90924219429211,36.80299371494936
0.6768059987783878,1.6308096396021647,1301,52,22.90924219429211,36.80299371494936
0.6931100786697428,1.6307933351733186,1301,52,22.90924219429211,36.80299371494936
0.7094139846703258,1.6307770309202576,1301,52,22.90924219429211,36.80299371494936
0.7257177176196381,1.6307607268419968,1301,52,22.90924219429211,36.80299371494936
0.7420212782927139,1.6307444229376264,1301,52,22.90924219429211,36.80299371494936
0.7583246674050803,1.6307281192063077,1301,52,22.90924219429211,36.80299371494936
0.7746278856173362,1.6307118156472649,1301,52,22.90924219429211,36.80299371494936
0.7909309335393784,1.630695512259783,1301,52,22.90924219429211,36.80299371494936
0.8072338117343026,1.630679209043201,1301,52,22.90924219429211,36.80299371494936
0.8235365207220042,1.6306629059969093,1301,52,22.90924219429211,36.80299371494936
0.8398390609825025,1.6306466031203448,1301,52,22.90924219429211,36.80299371494936
0.8561414329590087,1.6306303004129874,1301,52,22.90924219429211,36.80299371494936
0.872443637060758,1.6306139978743572,1301,52,22.90924219429211,36.80299371494936
0.888745673665624,1.630597695504011,1301,52,22.90924219429211,36.80299371494936
0.905047543122531,1.6305813933015394,1301,52,22.90924219429211,36.80299371494936
0.9213492457536826,1.6305650912665648,1301,52,22.90924219429211,36.80299371494936
0.9376507818566158,1.630548789398738,1301,52,22.90924219429211,36.80299371494936
0.9539521517061011,1.6305324876977372,1301,52,22.90924219429211,36.80299371494936
0.9702533555558925,1.6305161861632644,1301,52,22.90924219429211,36.80299371494936
0.9865543936403453,1.6304998847950452,1301,52,22.90924219429211,36.80299371494936
1.002855266175908,1.6304835835928255,1301,52,22.90924219429211,36.80299371494936
1.0191559733625017,1.630467282556371,1301,52,22.90924219429211,36.80299371494936
1.035456515384789,1.6304509816854658,1301,52,22.90924219429211,36.80299371494936
1.0517568924133511,1.6304346809799093,1301,52,22.90924219429211,36.80299371494936
1.0680571046057694,1.630418380439517,1301,52,22.90924219429211,36.80299371494936
1.0843571521076252,1.6304020800641186,1301,52,22.90924219429211,36.80299371494936
1.1006570350534246,1.6303857798535561,1301,52,22.90924219429211,36.80299371494936
1.11695675356745,1.6303694798076844,1301,52,22.90924219429211,36.80299371494936
1.133256307764547,1.6303531799263686,1301,52,22.90924219429211,36.80299371494936
1.1495556977508488,1.6303368802094844,1301,52,22.90924219429211,36.80299371494936
1.165854923624449,1.6303205806569174,1301,52,22.90924219429211,36.80299371494936
1.1821539854760192,1.630304281268561,1301,52,22.90924219429211,36.80299371494936
1.1984528833893788,1.6302879820443175,1301,52,22.90924219429211,36.80299371494936
1.214751617442025,1.6302716829840957,1301,52,22.90924219429211,36.80299371494936
1.2310501877056161,1.6302553840878125,1301,52,22.90924219429211,36.80299371494936
1.2473485942464222,1.6302390853553896,1301,52,22.90924219429211,36.80299371494936
1.2636468371257412,1.630222786786756,1301,52,22.90924219429211,36.80299371494936
1.2799449164002787,1.630206488381845,1301,52,22.90924219429211,36.80299371494936
1.2962428321225032,1.6301901901405955,1301,52,22.90924219429211,36.80299371494936
1.3125405843409714,1.630173892062951,1301,52,22.90924219429211,36.80299371494936
1.3288381731006296,1.6301575941488584,1301,52,22.90924219429211,36.80299371494936
1.34513559844309,1.6301412963982698,1301,52,22.90924219429211,36.80299371494936
1.3614328604068895,1.63012499881114,1301,52,22.90924219429211,36.80299371494936
1.3777299590277254,1.6301087013874271,1301,52,22.90924219429211,36.80299371494936
1.3940268943386729,1.6300924041270932,1301,52,22.90924219429211,36.80299371494936
1.4103236663703882,1.6300761070301022,1301,52,22.90924219429211,36.80299371494936
1.4266202751512942,1.630059810096421,1301,52,22.90924219429211,36.80299371494936
1.442916720707751,1.630043513326019,1301,52,22.90924219429211,36.80299371494936
1.4592130030642176,1.6300272167188676,1301,52,22.90924219429211,36.80299371494936
1.4755091222433954,1.6300109202749409,1301,52,22.90924219429211,36.80299371494936
1.4918050782663654,1.629994623994214,1301,52,22.90924219429211,36.80299371494936
1.5081008711527095,1.6299783278766646,1301,52,22.90924219429211,36.80299371494936
1.524396500920631,1.6299620319222712,1301,52,22.90924219429211,36.80299371494936
1.5406919675870567,1.6299457361310146,1301,52,22.90924219429211,36.80299371494936
1.556987271167736,1.6299294405028761,1301,52,22.90924219429211,36.80299371494936
1.5732824116773323,1.6299131450378392,1301,52,22.90924219429211,36.80299371494936
1.589577389129506,1.629896849735888,1301,52,22.90924219429211,36.80299371494936
1.6058722035369921,1.629880554597008,1301,52,22.90924219429211,36.80299371494936
1.6221668549116703,1.6298642596211854,1301,52,22.90924219429211,36.80299371494936
1.6384613432646322,1.6298479648084074,1301,52,22.90924219429211,36.80299371494936
1.6547556686062412,1.6298316701586624,1301,52,22.90924219429211,36.80299371494936
1.6710498309461883,1.629815375671939,1301,52,22.90924219429211,36.80299371494936
1.6873438302935444,1.6297990813482266,1301,52,22.90924219429211,36.80299371494936
1.7036376666568078,1.6297827871875161,1301,52,22.90924219429211,36.80299371494936
1.719931340043948,1.6297664931897984,1301,52,22.90924219429211,36.80299371494936
1.736224850462447,1.6297501993550645,1301,52,22.90924219429211,36.80299371494936
1.7525181979193356,1.6297339056833067,1301,52,22.90924219429211,36.80299371494936
1.76881138242123,1.6297176121745176,1301,52,22.90924219429211,36.80299371494936
1.7851044039743618,1.62970131882869,1301,52,22.90924219429211,36.80299371494936
1.8013972625846086,1.6296850256458175,1301,52,22.90924219429211,36.80299371494936
1.8176899582575219,1.6296687326258936,1301,52,22.90924219429211,36.80299371494936
1.8339824909983498,1.6296524397689127,1301,52,22.90924219429211,36.80299371494936
1.8502748608120632,1.6296361470748693,1301,52,22.90924219429211,36.80299371494936
1.8665670677033752,1.6296198545437577,1301,52,22.90924219429211,36.80299371494936
1.8828591116767617,1.6296035621755731,1301,52,22.90924219429211,36.80299371494936
1.8991509927364798,1.6295872699703111,1301,52,22.90924219429211,36.80299371494936
1.915442710886583,1.629570977927967,1301,52,22.90924219429211,36.80299371494936
1.9317342661309407,1.6295546860485366,1301,52,22.90924219429211,36.80299371494936
1.948025658473247,1.6295383943320156,1301,52,22.90924219429211,36.80299371494936
1.964316887917039,1.6295221027784004,1301,52,22.90924219429211,36.80299371494936
1.9806079544657067,1.6295058113876872,1301,52,22.90924219429211,36.80299371494936
1.996898858122504,1.6294895201598727,1301,52,22.90924219429211,36.80299371494936
2.0131895988905595,1.6294732290949532,1301,52,22.90924219429211,36.80299371494936
2.029480176772887,1.6294569381929254,1301,52,22.90924219429211,36.80299371494936
2.0457705917723934,1.6294406474537866,1301,52,22.90924219429211,36.80299371494936
2.0620608438918873,1.6294243568775333,1301,52,22.90924219429211,36.80299371494936
2.0783509331340864,1.6294080664641628,1301,52,22.90924219429211,36.80299371494936
2.094640859501624,1.6293917762136725,1301,52,22.90924219429211,36.80299371494936
2.1109306229970577,1.6293754861260592,1301,52,22.90924219429211,36.80299371494936
2.1272202236228717,1.6293591962013207,1301,52,22.90924219429211,36.80299371494936
2.1435096613814855,1.6293429064394542,1301,52,22.90924219429211,36.80299371494936
2.1597989362752577,1.6293266168404574,1301,52,22.90924219429211,36.80299371494936
2.1760880483064895,1.629310327404328,1301,52,22.90924219429211,36.80299371494936
2.1923769974774303,1.629294038131063,1301,52,22.90924219429211,36.80299371494936
2.2086657837902846,1.6292777490206607,1301,52,22.90924219429211,36.80299371494936
2.2249544072472096,1.6292614600731188,1301,52,22.90924219429211,36.80299371494936
2.241242867850322,1.6292451712884348,1301,52,22.90924219429211,36.80299371494936
2.257531165601702,1.6292288826666068,1301,52,22.90924219429211,36.80299371494936
2.273819300503394,1.6292125942076325,1301,52,22.90924219429211,36.80299371494936
2.290107272557412,1.62919630591151,1301,52,22.90924219429211,36.80299371494936
2.306395081765738,1.6291800177782372,1301,52,22.90924219429211,36.80299371494936
2.3226827281303284,1.6291637298078119,1301,52,22.90924219429211,36.80299371494936
2.3389702116531135,1.6291474420002325,1301,52,22.90924219429211,36.80299371494936
2.355257532336001,1.6291311543554967,1301,52,22.90924219429211,36.80299371494936
2.3715446901808765,1.6291148668736026,1301,52,22.90924219429211,36.80299371494936
2.387831685189606,1.6290985795545485,1301,52,22.90924219429211,36.80299371494936
2.4041185173640374,1.6290822923983324,1301,52,22.90924219429211,36.80299371494936
2.420405186706001,1.6290660054049524,1301,52,22.90924219429211,36.80299371494936
2.4366916932173117,1.6290497185744066,1301,52,22.90924219429211,36.80299371494936
2.4529780368997702,1.6290334319066935,1301,52,22.90924219429211,36.80299371494936
2.469264217755165,1.6290171454018108,1301,52,22.90924219429211,36.80299371494936
2.4855502357852695,1.629000859059757,1301,52,22.90924219429211,36.80299371494936
2.5018360909918487,1.6289845728805303,1301,52,22.90924219429211,36.80299371494936
2.518121783376655,1.6289682868641289,1301,52,22.90924219429211,36.80299371494936
2.5344073129414326,1.628952001010551,1301,52,22.90924219429211,36.80299371494936
2.5506926796879164,1.6289357153197945,1301,52,22.90924219429211,36.80299371494936
2.566977883617832,1.6289194297918583,1301,52,22.90924219429211,36.80299371494936
2.5832629247328986,1.6289031444267406,1301,52,22.90924219429211,36.80299371494936
2.5995478030348287,1.6288868592244392,1301,52,22.90924219429211,36.80299371494936
2.6158325185253264,1.6288705741849525,1301,52,22.90924219429211,36.80299371494936
2.6321170712060913,1.6288542893082791,1301,52,22.90924219429211,36.80299371494936
2.648401461078818,1.6288380045944173,1301,52,22.90924219429211,36.80299371494936
2.664685688145195,1.628821720043365,1301,52,22.90924219429211,36.80299371494936
2.680969752406906,1.6288054356551207,1301,52,22.90924219429211,36.80299371494936
2.6972536538656295,1.6287891514296828,1301,52,22.90924219429211,36.80299371494936
2.7135373925230426,1.6287728673670494,1301,52,22.90924219429211,36.80299371494936
2.7298209683808174,1.628756583467219,1301,52,22.90924219429211,36.80299371494936
2.7461043814406225,1.62874029973019,1301,52,22.90924219429211,36.80299371494936
2.762387631704122,1.6287240161559609,1301,52,22.90924219429211,36.80299371494936
2.7786707191729785,1.6287077327445294,1301,52,22.90924219429211,36.80299371494936
2.7949536438488525,1.6286914494958942,1301,52,22.90924219429211,36.80299371494936
2.8112364057334007,1.6286751664100536,1301,52,22.90924219429211,36.80299371494936
2.8275190048282783,1.6286588834870062,1301,52,22.90924219429211,36.80299371494936
2.8438014411351378,1.6286426007267498,1301,52,22.90924219429211,36.80299371494936
2.86008371465563,1.6286263181292833,1301,52,22.90924219429211,36.80299371494936
2.876365825391405,1.6286100356946047,1301,52,22.90924219429211,36.80299371494936
2.892647773344109,1.6285937534227126,1301,52,22.90924219429211,36.80299371494936
2.9089295585153883,1.628577471313605,1301,52,22.90924219429211,36.80299371494936
2.9252111809068877,1.6285611893672804,1301,52,22.90924219429211,36.80299371494936
2.941492640520249,1.6285449075837375,1301,52,22.90924219429211,36.80299371494936
2.957773937357116,1.628528625962974,1301,52,22.90924219429211,36.80299371494936
2.974055071419126,1.628512344504989,1301,52,22.90924219429211,36.80299371494936
2.990336042707922,1.6284960632097802,1301,52,22.90924219429211,36.80299371494936
3.006616851225141,1.6284797820773464,1301,52,22.90924219429211,36.80299371494936
3.022897496972422,1.6284635011076858,1301,52,22.90924219429211,36.80299371494936
3.039177979951401,1.6284472203007967,1301,52,22.90924219429211,36.80299371494936
3.0554583001637146,1.6284309396566774,1301,52,22.90924219429211,36.80299371494936
3.0717384576109987,1.6284146591753266,1301,52,22.90924219429211,36.80299371494936
3.0880184522948864,1.6283983788567422,1301,52,22.90924219429211,36.80299371494936
3.104298284217015,1.628382098700923,1301,52,22.90924219429211,36.80299371494936
3.1205779533790152,1.6283658187078671,1301,52,22.90924219429211,36.80299371494936
3.1368574597825223,1.628349538877573,1301,52,22.90924219429211,36.80299371494936
3.153136803429168,1.628333259210039,1301,52,22.90924219429211,36.80299371494936
3.1694159843205845,1.6283169797052635,1301,52,22.90924219429211,36.80299371494936
3.185695002458405,1.6283007003632448,1301,52,22.90924219429211,36.80299371494936
3.2019738578442585,1.6282844211839813,1301,52,22.90924219429211,36.80299371494936
3.218252550479778,1.6282681421674716,1301,52,22.90924219429211,36.80299371494936
3.2345310803665943,1.6282518633137135,1301,52,22.90924219429211,36.80299371494936
3.250809447506337,1.628235584622706,1301,52,22.90924219429211,36.80299371494936
3.2670876519006384,1.628219306094447,1301,52,22.90924219429211,36.80299371494936
3.283365693551126,1.6282030277289352,1301,52,22.90924219429211,36.80299371494936
3.29964357245943,1.6281867495261688,1301,52,22.90924219429211,36.80299371494936
3.3159212886271816,1.628170471486146,1301,52,22.90924219429211,36.80299371494936
3.3321988420560085,1.6281541936088655,1301,52,22.90924219429211,36.80299371494936
3.348476232747541,1.6281379158943257,1301,52,22.90924219429211,36.80299371494936
3.3647534607034073,1.6281216383425245,1301,52,22.90924219429211,36.80299371494936
3.3810305259252367,1.6281053609534608,1301,52,22.90924219429211,36.80299371494936
3.3973074284146567,1.6280890837271327,1301,52,22.90924219429211,36.80299371494936
3.413584168173297,1.6280728066635386,1301,52,22.90924219429211,36.80299371494936
3.429860745202785,1.628056529762677,1301,52,22.90924219429211,36.80299371494936
3.4461371595047487,1.628040253024546,1301,52,22.90924219429211,36.80299371494936
3.4624134110808176,1.6280239764491442,1301,52,22.90924219429211,36.80299371494936
3.4786894999326186,1.6280077000364699,1301,52,22.90924219429211,36.80299371494936
3.4949654260617797,1.6279914237865214,1301,52,22.90924219429211,36.80299371494936
3.51124118946993,1.6279751476992974,1301,52,22.90924219429211,36.80299371494936
3.5275167901586952,1.6279588717747957,1301,52,22.90924219429211,36.80299371494936
3.5437922281297043,1.6279425960130152,1301,52,22.90924219429211,36.80299371494936
3.5600675033845843,1.627926320413954,1301,52,22.90924219429211,36.80299371494936
3.576342615924962,1.6279100449776107,1301,52,22.90924219429211,36.80299371494936
3.5926175657524664,1.6278937697039833,1301,52,22.90924219429211,36.80299371494936
3.6088923528687236,1.6278774945930705,1301,52,22.90924219429211,36.80299371494936
3.625166977275361,1.6278612196448705,1301,52,22.90924219429211,36.80299371494936
3.6414414389740064,1.6278449448593817,1301,52,22.90924219429211,36.80299371494936
3.6577157379662864,1.6278286702366027,1301,52,22.90924219429211,36.80299371494936
3.6739898742538277,1.6278123957765314,1301,52,22.90924219429211,36.80299371494936
3.6902638478382586,1.6277961214791667,1301,52,22.90924219429211,36.80299371494936
3.7065376587212056,1.6277798473445066,1301,52,22.90924219429211,36.80299371494936
3.7228113069042954,1.6277635733725495,1301,52,22.90924219429211,36.80299371494936
3.7390847923891553,1.627747299563294,1301,52,22.90924219429211,36.80299371494936
3.755358115177412,1.6277310259167383,1301,52,22.90924219429211,36.80299371494936
3.7716312752706918,1.6277147524328808,1301,52,22.90924219429211,36.80299371494936
3.7879042726706214,1.62769847911172,1301,52,22.90924219429211,36.80299371494936
3.804177107378829,1.627682205953254,1301,52,22.90924219429211,36.80299371494936
3.8204497793969403,1.6276659329574814,1301,52,22.90924219429211,36.80299371494936
3.836722288726583,1.6276496601244006,1301,52,22.90924219429211,36.80299371494936
3.852994635369382,1.6276333874540097,1301,52,22.90924219429211,36.80299371494936
3.869266819326965,1.6276171149463075,1301,52,22.90924219429211,36.80299371494936
3.885538840600959,1.6276008426012918,1301,52,22.90924219429211,36.80299371494936
3.9018106991929904,1.6275845704189615,1301,52,22.90924219429211,36.80299371494936
3.9180823951046855,1.6275682983993147,1301,52,22.90924219429211,36.80299371494936
