Vout,Iout,Irradiance,Temperature,MaxVoltage,MaxPower
0.011035153892751032,2.207052,1821,31,22.381528957038874,48.89723822949799
0.03310525762781326,2.207052,1821,31,22.381528957038874,48.89723822949799
0.05517491268320224,2.2070407441409072,1821,31,22.381528957038874,48.89723822949799
0.07724403890244294,2.207018674037172,1821,31,22.381528957038874,48.89723822949799
0.09931261008900874,2.2069966043832423,1821,31,22.381528957038874,48.89723822949799
0.12138065197621573,2.20697453525923,1821,31,22.381528957038874,48.89723822949799
0.14344818831832132,2.2069524666902507,1821,31,22.381528957038874,48.89723822949799
0.16551524104230741,2.20693039865057,1821,31,22.381528957038874,48.89723822949799
0.18758183038822893,2.206908331116435,1821,31,22.381528957038874,48.89723822949799
0.20964797503900906,2.206886264065918,1821,31,22.381528957038874,48.89723822949799
0.2317136922402471,2.2068641974787786,1821,31,22.381528957038874,48.89723822949799
0.25377899791080843,2.2068421313363347,1821,31,22.381528957038874,48.89723822949799
0.2758439067449058,2.20682006562134,1821,31,22.381528957038874,48.89723822949799
0.2979084323063255,2.206798000317876,1821,31,22.381528957038874,48.89723822949799
0.3199725871154049,2.2067759354112484,1821,31,22.381528957038874,48.89723822949799
0.3420363827293161,2.2067538708878938,1821,31,22.381528957038874,48.89723822949799
0.36409982981617417,2.206731806735291,1821,31,22.381528957038874,48.89723822949799
0.38616293822344233,2.2067097429418836,1821,31,22.381528957038874,48.89723822949799
0.40822571704107397,2.206687679497003,1821,31,22.381528957038874,48.89723822949799
0.4302881746597971,2.2066656163908025,1821,31,22.381528957038874,48.89723822949799
0.4523503188249133,2.206643553614191,1821,31,22.381528957038874,48.89723822949799
0.47441215668595826,2.2066214911587787,1821,31,22.381528957038874,48.89723822949799
0.4964736948425408,2.2065994290168196,1821,31,22.381528957038874,48.89723822949799
0.5185349393866551,2.206577367181165,1821,31,22.381528957038874,48.89723822949799
0.5405958959417373,2.2065553056452147,1821,31,22.381528957038874,48.89723822949799
0.5626565696987174,2.2065332444028765,1821,31,22.381528957038874,48.89723822949799
0.5847169654492965,2.206511183448528,1821,31,22.381528957038874,48.89723822949799
0.6067770876166645,2.206489122776977,1821,31,22.381528957038874,48.89723822949799
0.6288369402838536,2.206467062383432,1821,31,22.381528957038874,48.89723822949799
0.6508965272199106,2.206445002263471,1821,31,22.381528957038874,48.89723822949799
0.672955851904056,2.2064229424130097,1821,31,22.381528957038874,48.89723822949799
0.6950149175479828,2.2064008828282797,1821,31,22.381528957038874,48.89723822949799
0.717073727116441,2.2063788235058017,1821,31,22.381528957038874,48.89723822949799
0.7391322833462382,2.2063567644423636,1821,31,22.381528957038874,48.89723822949799
0.7611905887637763,2.206334705635001,1821,31,22.381528957038874,48.89723822949799
0.7832486457012423,2.2063126470809773,1821,31,22.381528957038874,48.89723822949799
0.8053064563115508,2.2062905887777657,1821,31,22.381528957038874,48.89723822949799
0.8273640225821369,2.206268530723034,1821,31,22.381528957038874,48.89723822949799
0.8494213463476893,2.2062464729146294,1821,31,22.381528957038874,48.89723822949799
0.871478429301902,2.206224415350565,1821,31,22.381528957038874,48.89723822949799
0.8935352730083235,2.206202358029005,1821,31,22.381528957038874,48.89723822949799
0.9155918789103702,2.206180300948257,1821,31,22.381528957038874,48.89723822949799
0.9376482483405687,2.206158244106756,1821,31,22.381528957038874,48.89723822949799
0.9597043825290895,2.2061361875030596,1821,31,22.381528957038874,48.89723822949799
0.9817602826116206,2.206114131135835,1821,31,22.381528957038874,48.89723822949799
1.0038159496366381,2.206092075003852,1821,31,22.381528957038874,48.89723822949799
1.025871384572117,2.2060700191059754,1821,31,22.381528957038874,48.89723822949799
1.0479265883117233,2.206047963441156,1821,31,22.381528957038874,48.89723822949799
1.069981561680534,2.206025908008426,1821,31,22.381528957038874,48.89723822949799
1.0920363054403113,2.206003852806892,1821,31,22.381528957038874,48.89723822949799
1.1140908202943767,2.2059817978357286,1821,31,22.381528957038874,48.89723822949799
1.1361451068921067,2.2059597430941746,1821,31,22.381528957038874,48.89723822949799
1.1581991658330832,2.205937688581526,1821,31,22.381528957038874,48.89723822949799
1.1802529976709246,2.2059156342971336,1821,31,22.381528957038874,48.89723822949799
1.2023066029168237,2.205893580240398,1821,31,22.381528957038874,48.89723822949799
1.224359982042809,2.205871526410766,1821,31,22.381528957038874,48.89723822949799
1.246413135484762,2.205849472807725,1821,31,22.381528957038874,48.89723822949799
1.2684660636451954,2.2058274194308045,1821,31,22.381528957038874,48.89723822949799
1.2905187668958211,2.205805366279568,1821,31,22.381528957038874,48.89723822949799
1.312571245579921,2.2057833133536127,1821,31,22.381528957038874,48.89723822949799
1.3346235000145341,2.2057612606525674,1821,31,22.381528957038874,48.89723822949799
1.3566755304924756,2.2057392081760887,1821,31,22.381528957038874,48.89723822949799
1.3787273372841993,2.2057171559238595,1821,31,22.381528957038874,48.89723822949799
1.4007789206395218,2.2056951038955868,1821,31,22.381528957038874,48.89723822949799
1.4228302807892055,2.2056730520910004,1821,31,22.381528957038874,48.89723822949799
1.4448814179464287,2.20565100050985,1821,31,22.381528957038874,48.89723822949799
1.4669323323081365,2.2056289491519054,1821,31,22.381528957038874,48.89723822949799
1.4889830240562907,2.2056068980169536,1821,31,22.381528957038874,48.89723822949799
1.5110334933590215,2.205584847104797,1821,31,22.381528957038874,48.89723822949799
1.533083740371693,2.2055627964152538,1821,31,22.381528957038874,48.89723822949799
1.5551337652378843,2.205540745948156,1821,31,22.381528957038874,48.89723822949799
1.5771835680902977,2.205518695703349,1821,31,22.381528957038874,48.89723822949799
1.5992331490515945,2.2054966456806877,1821,31,22.381528957038874,48.89723822949799
1.6212825082351676,2.20547459588004,1821,31,22.381528957038874,48.89723822949799
1.6433316457458547,2.205452546301284,1821,31,22.381528957038874,48.89723822949799
1.6653805616805972,2.205430496944305,1821,31,22.381528957038874,48.89723822949799
1.687429256129046,2.2054084478089995,1821,31,22.381528957038874,48.89723822949799
1.709477729174125,2.2053863988952696,1821,31,22.381528957038874,48.89723822949799
1.7315259808925472,2.205364350203026,1821,31,22.381528957038874,48.89723822949799
1.7535740113552922,2.205342301732186,1821,31,22.381528957038874,48.89723822949799
1.7756218206280479,2.2053202534826726,1821,31,22.381528957038874,48.89723822949799
1.797669408771618,2.2052982054544144,1821,31,22.381528957038874,48.89723822949799
1.8197167758422974,2.2052761576473467,1821,31,22.381528957038874,48.89723822949799
1.8417639218922182,2.205254110061408,1821,31,22.381528957038874,48.89723822949799
1.8638108469696721,2.205232062696542,1821,31,22.381528957038874,48.89723822949799
1.8858575511194042,2.2052100155526966,1821,31,22.381528957038874,48.89723822949799
1.9079040343828866,2.205187968629824,1821,31,22.381528957038874,48.89723822949799
1.9299502967985696,2.205165921927879,1821,31,22.381528957038874,48.89723822949799
1.9519963384021146,2.2051438754468204,1821,31,22.381528957038874,48.89723822949799
1.9740421592266093,2.2051218291866093,1821,31,22.381528957038874,48.89723822949799
1.996087759302764,2.2050997831472103,1821,31,22.381528957038874,48.89723822949799
2.018133138659097,2.2050777373285904,1821,31,22.381528957038874,48.89723822949799
2.0401782973221008,2.205055691730719,1821,31,22.381528957038874,48.89723822949799
2.062223235316399,2.2050336463535674,1821,31,22.381528957038874,48.89723822949799
2.0842679526648915,2.205011601197109,1821,31,22.381528957038874,48.89723822949799
2.1063124493888847,2.204989556261319,1821,31,22.381528957038874,48.89723822949799
2.128356725508215,2.204967511546175,1821,31,22.381528957038874,48.89723822949799
2.150400781041362,2.2049454670516555,1821,31,22.381528957038874,48.89723822949799
2.1724446160055546,2.204923422777741,1821,31,22.381528957038874,48.89723822949799
2.1944882304168636,2.204901378724412,1821,31,22.381528957038874,48.89723822949799
2.2165316242902926,2.204879334891652,1821,31,22.381528957038874,48.89723822949799
2.238574797639862,2.204857291279445,1821,31,22.381528957038874,48.89723822949799
2.2606177504786826,2.204835247887776,1821,31,22.381528957038874,48.89723822949799
2.2826604828190256,2.204813204716631,1821,31,22.381528957038874,48.89723822949799
2.3047029946723856,2.2047911617659963,1821,31,22.381528957038874,48.89723822949799
2.326745286049547,2.2047691190358605,1821,31,22.381528957038874,48.89723822949799
2.348787356960629,2.2047470765262114,1821,31,22.381528957038874,48.89723822949799
2.370829207415144,2.2047250342370384,1821,31,22.381528957038874,48.89723822949799
2.392870837422043,2.2047029921683317,1821,31,22.381528957038874,48.89723822949799
2.414912246989755,2.2046809503200815,1821,31,22.381528957038874,48.89723822949799
2.436953436126233,2.2046589086922785,1821,31,22.381528957038874,48.89723822949799
2.4589944048389847,2.2046368672849153,1821,31,22.381528957038874,48.89723822949799
2.4810351531351116,2.2046148260979828,1821,31,22.381528957038874,48.89723822949799
2.503075681021339,2.2045927851314744,1821,31,22.381528957038874,48.89723822949799
2.5251159885040404,2.204570744385382,1821,31,22.381528957038874,48.89723822949799
2.547156075589273,2.2045487038597003,1821,31,22.381528957038874,48.89723822949799
2.5691959422827946,2.2045266635544216,1821,31,22.381528957038874,48.89723822949799
2.5912355885900906,2.2045046234695405,1821,31,22.381528957038874,48.89723822949799
2.6132750145163928,2.204482583605051,1821,31,22.381528957038874,48.89723822949799
2.6353142200667015,2.2044605439609475,1821,31,22.381528957038874,48.89723822949799
2.6573532052457995,2.2044385045372255,1821,31,22.381528957038874,48.89723822949799
2.679391970058274,2.204416465333879,1821,31,22.381528957038874,48.89723822949799
2.701430514508526,2.2043944263509037,1821,31,22.381528957038874,48.89723822949799
2.723468838600789,2.204372387588295,1821,31,22.381528957038874,48.89723822949799
2.7455069423391385,2.2043503490460488,1821,31,22.381528957038874,48.89723822949799
2.7675448257275095,2.2043283107241605,1821,31,22.381528957038874,48.89723822949799
2.789582488769699,2.204306272622626,1821,31,22.381528957038874,48.89723822949799
2.811619931469385,2.2042842347414413,1821,31,22.381528957038874,48.89723822949799
2.833657153830131,2.204262197080603,1821,31,22.381528957038874,48.89723822949799
2.855694155855394,2.2042401596401073,1821,31,22.381528957038874,48.89723822949799
2.877730937548537,2.20421812241995,1821,31,22.381528957038874,48.89723822949799
2.899767498912832,2.204196085420129,1821,31,22.381528957038874,48.89723822949799
2.921803839951469,2.204174048640639,1821,31,22.381528957038874,48.89723822949799
2.943839960667562,2.2041520120814786,1821,31,22.381528957038874,48.89723822949799
2.965875861064156,2.2041299757426436,1821,31,22.381528957038874,48.89723822949799
2.9879115411442307,2.2041079396241314,1821,31,22.381528957038874,48.89723822949799
3.009947000910705,2.204085903725938,1821,31,22.381528957038874,48.89723822949799
3.0319822403664425,2.204063868048062,1821,31,22.381528957038874,48.89723822949799
3.0540172595142563,2.204041832590499,1821,31,22.381528957038874,48.89723822949799
3.0760520583569155,2.2040197973532467,1821,31,22.381528957038874,48.89723822949799
3.09808663689714,2.2039977623363023,1821,31,22.381528957038874,48.89723822949799
3.1201209951376145,2.2039757275396634,1821,31,22.381528957038874,48.89723822949799
3.1421551330809834,2.2039536929633265,1821,31,22.381528957038874,48.89723822949799
3.1641890507298607,2.2039316586072895,1821,31,22.381528957038874,48.89723822949799
3.186222748086825,2.20390962447155,1821,31,22.381528957038874,48.89723822949799
3.2082562251544275,2.2038875905561044,1821,31,22.381528957038874,48.89723822949799
3.230289481935192,2.2038655568609506,1821,31,22.381528957038874,48.89723822949799
3.2523225184316202,2.2038435233860865,1821,31,22.381528957038874,48.89723822949799
3.2743553346461858,2.203821490131509,1821,31,22.381528957038874,48.89723822949799
3.296387930581347,2.203799457097216,1821,31,22.381528957038874,48.89723822949799
3.318420306239538,2.2037774242832047,1821,31,22.381528957038874,48.89723822949799
3.340452461623177,2.203755391689473,1821,31,22.381528957038874,48.89723822949799
3.362484396734665,2.203733359316018,1821,31,22.381528957038874,48.89723822949799
3.3845161115763895,2.2037113271628375,1821,31,22.381528957038874,48.89723822949799
3.406547606150721,2.2036892952299296,1821,31,22.381528957038874,48.89723822949799
3.428578880460019,2.203667263517291,1821,31,22.381528957038874,48.89723822949799
3.450609934506631,2.2036452320249196,1821,31,22.381528957038874,48.89723822949799
3.47264076829289,2.203623200752814,1821,31,22.381528957038874,48.89723822949799
3.494671381821123,2.20360116970097,1821,31,22.381528957038874,48.89723822949799
3.5167017750936456,2.203579138869387,1821,31,22.381528957038874,48.89723822949799
3.5387319481127646,2.203557108258062,1821,31,22.381528957038874,48.89723822949799
3.560761900880779,2.2035350778669924,1821,31,22.381528957038874,48.89723822949799
3.58279163339998,2.2035130476961764,1821,31,22.381528957038874,48.89723822949799
3.604821145672653,2.2034910177456113,1821,31,22.381528957038874,48.89723822949799
3.6268504377010746,2.2034689880152953,1821,31,22.381528957038874,48.89723822949799
3.648879509487517,2.2034469585052254,1821,31,22.381528957038874,48.89723822949799
3.670908361034249,2.2034249292154002,1821,31,22.381528957038874,48.89723822949799
3.6929369923435313,2.2034029001458166,1821,31,22.381528957038874,48.89723822949799
3.714965403417621,2.203380871296473,1821,31,22.381528957038874,48.89723822949799
3.7369935942587706,2.2033588426673663,1821,31,22.381528957038874,48.89723822949799
3.75902156486923,2.2033368142584955,1821,31,22.381528957038874,48.89723822949799
3.7810493152512423,2.203314786069857,1821,31,22.381528957038874,48.89723822949799
3.803076845407052,2.2032927581014494,1821,31,22.381528957038874,48.89723822949799
3.825104155338897,2.20327073035327,1821,31,22.381528957038874,48.89723822949799
3.8471312450490136,2.2032487028253174,1821,31,22.381528957038874,48.89723822949799
3.869158114539634,2.203226675517588,1821,31,22.381528957038874,48.89723822949799
3.8911847638129893,2.2032046484300807,1821,31,22.381528957038874,48.89723822949799
3.9132111928713087,2.2031826215627928,1821,31,22.381528957038874,48.89723822949799
3.935237401716819,2.203160594915722,1821,31,22.381528957038874,48.89723822949799
3.9572633903517427,2.2031385684888667,1821,31,22.381528957038874,48.89723822949799
3.979289158778305,2.2031165422822236,1821,31,22.381528957038874,48.89723822949799
4.001314706998726,2.2030945162957916,1821,31,22.381528957038874,48.89723822949799
4.023340035015224,2.2030724905295673,1821,31,22.381528957038874,48.89723822949799
4.04536514283002,2.2030504649835496,1821,31,22.381528957038874,48.89723822949799
4.0673900304453285,2.2030284396577358,1821,31,22.381528957038874,48.89723822949799
4.089414697863368,2.2030064145521235,1821,31,22.381528957038874,48.89723822949799
4.111439145086348,2.2029843896667107,1821,31,22.381528957038874,48.89723822949799
4.133463372116485,2.202962365001495,1821,31,22.381528957038874,48.89723822949799
4.155487378955993,2.202940340556475,1821,31,22.381528957038874,48.89723822949799
4.177511165607082,2.202918316331647,1821,31,22.381528957038874,48.89723822949799
4.199534732071962,2.20289629232701,1821,31,22.381528957038874,48.89723822949799
4.221558078352845,2.2028742685425615,1821,31,22.381528957038874,48.89723822949799
4.2435812044519405,2.202852244978299,1821,31,22.381528957038874,48.89723822949799
4.265604110371456,2.2028302216342204,1821,31,22.381528957038874,48.89723822949799
4.2876267961136,2.2028081985103234,1821,31,22.381528957038874,48.89723822949799
4.309649261680581,2.2027861756066063,1821,31,22.381528957038874,48.89723822949799
4.331671507074603,2.2027641529230664,1821,31,22.381528957038874,48.89723822949799
4.353693532297877,2.202742130459702,1821,31,22.381528957038874,48.89723822949799
4.375715337352605,2.20272010821651,1821,31,22.381528957038874,48.89723822949799
4.3977369222409965,2.202698086193489,1821,31,22.381528957038874,48.89723822949799
4.419758286965255,2.2026760643906367,1821,31,22.381528957038874,48.89723822949799
4.4417794315275865,2.2026540428079504,1821,31,22.381528957038874,48.89723822949799
4.463800355930193,2.2026320214454285,1821,31,22.381528957038874,48.89723822949799
4.485821060175283,2.202610000303068,1821,31,22.381528957038874,48.89723822949799
4.507841544265059,2.202587979380868,1821,31,22.381528957038874,48.89723822949799
4.529861808201725,2.2025659586788247,1821,31,22.381528957038874,48.89723822949799
4.551881851987482,2.202543938196937,1821,31,22.381528957038874,48.89723822949799
4.573901675624537,2.2025219179352025,1821,31,22.381528957038874,48.89723822949799
4.595921279115092,2.2024998978936186,1821,31,22.381528957038874,48.89723822949799
4.61794066246135,2.202477878072184,1821,31,22.381528957038874,48.89723822949799
4.639959825665513,2.2024558584708953,1821,31,22.381528957038874,48.89723822949799
4.661978768729784,2.2024338390897507,1821,31,22.381528957038874,48.89723822949799
4.683997491656367,2.2024118199287486,1821,31,22.381528957038874,48.89723822949799
4.706015994447465,2.2023898009878864,1821,31,22.381528957038874,48.89723822949799
4.7280342771052775,2.2023677822671615,1821,31,22.381528957038874,48.89723822949799
4.750052339632006,2.2023457637665724,1821,31,22.381528957038874,48.89723822949799
4.7720701820298554,2.2023237454861166,1821,31,22.381528957038874,48.89723822949799
4.794087804301026,2.2023017274257914,1821,31,22.381528957038874,48.89723822949799
4.8161052064477206,2.2022797095855955,1821,31,22.381528957038874,48.89723822949799
4.83812238847214,2.202257691965526,1821,31,22.381528957038874,48.89723822949799
4.860139350376485,2.202235674565581,1821,31,22.381528957038874,48.89723822949799
4.882156092162959,2.2022136573857587,1821,31,22.381528957038874,48.89723822949799
4.9041726138337625,2.202191640426056,1821,31,22.381528957038874,48.89723822949799
4.926188915391095,2.2021696236864714,1821,31,22.381528957038874,48.89723822949799
4.948204996837162,2.202147607167002,1821,31,22.381528957038874,48.89723822949799
4.97022085817416,2.2021255908676465,1821,31,22.381528957038874,48.89723822949799
4.992236499404292,2.2021035747884024,1821,31,22.381528957038874,48.89723822949799
5.014251920529761,2.2020815589292666,1821,31,22.381528957038874,48.89723822949799
5.036267121552765,2.2020595432902383,1821,31,22.381528957038874,48.89723822949799
5.058282102475507,2.2020375278713145,1821,31,22.381528957038874,48.89723822949799
5.0802968633001875,2.2020155126724927,1821,31,22.381528957038874,48.89723822949799
5.102311404029005,2.201993497693772,1821,31,22.381528957038874,48.89723822949799
5.124325724664164,2.2019714829351487,1821,31,22.381528957038874,48.89723822949799
5.146339825207861,2.2019494683966214,1821,31,22.381528957038874,48.89723822949799
5.168353705662302,2.2019274540781875,1821,31,22.381528957038874,48.89723822949799
5.190367366029683,2.2019054399798454,1821,31,22.381528957038874,48.89723822949799
5.212380806312207,2.2018834261015923,1821,31,22.381528957038874,48.89723822949799
5.234394026512072,2.201861412443426,1821,31,22.381528957038874,48.89723822949799
5.256407026631482,2.2018393990053453,1821,31,22.381528957038874,48.89723822949799
5.278419806672635,2.2018173857873466,1821,31,22.381528957038874,48.89723822949799
