Vout,Iout,Irradiance,Temperature,MaxVoltage,MaxPower
0.00945956904260536,1.891932,1561,31,22.384847264574326,41.85036008912488
0.02837853221143135,1.891932,1561,31,22.384847264574326,41.85036008912488
0.04729711076248144,1.8919223512377574,1561,31,22.384847264574326,41.85036008912488
0.06621523598391733,1.8919034322745885,1561,31,22.384847264574326,41.85036008912488
0.08513288541951819,1.8918845136970024,1561,31,22.384847264574326,41.85036008912488
0.10405008112843095,1.8918655955736727,1561,31,22.384847264574326,41.85036008912488
0.12296684347331116,1.8918466779261291,1561,31,22.384847264574326,41.85036008912488
0.14188319125043486,1.891827760732312,1561,31,22.384847264574326,41.85036008912488
0.16079914181000846,1.8918088439718588,1561,31,22.384847264574326,41.85036008912488
0.17971471116743176,1.8917899276259735,1561,31,22.384847264574326,41.85036008912488
0.19862991410599987,1.8917710116773054,1561,31,22.384847264574326,41.85036008912488
0.21754476427170344,1.8917520961098397,1561,31,22.384847264574326,41.85036008912488
0.23645927426073474,1.8917331809087927,1561,31,22.384847264574326,41.85036008912488
0.2553734557002604,1.8917142660605186,1561,31,22.384847264574326,41.85036008912488
0.2742873193229802,1.891695351552421,1561,31,22.384847264574326,41.85036008912488
0.2932008750359486,1.8916764373728732,1561,31,22.384847264574326,41.85036008912488
0.312114131984101,1.891657523511142,1561,31,22.384847264574326,41.85036008912488
0.33102709860889257,1.8916386099573204,1561,31,22.384847264574326,41.85036008912488
0.34993978270242526,1.8916196967022636,1561,31,22.384847264574326,41.85036008912488
0.3688521914574097,1.8916007837375302,1561,31,22.384847264574326,41.85036008912488
0.38776433151328354,1.8915818710553278,1561,31,22.384847264574326,41.85036008912488
0.40667620899878115,1.8915629586484641,1561,31,22.384847264574326,41.85036008912488
0.4255878295712278,1.8915440465102995,1561,31,22.384847264574326,41.85036008912488
0.4444991984528106,1.8915251346347053,1561,31,22.384847264574326,41.85036008912488
0.463410320464059,1.891506223016024,1561,31,22.384847264574326,41.85036008912488
0.4823212000547488,1.8914873116490336,1561,31,22.384847264574326,41.85036008912488
0.5012318413324282,1.8914684005289135,1561,31,22.384847264574326,41.85036008912488
0.5201422480887496,1.891449489651214,1561,31,22.384847264574326,41.85036008912488
0.5390524238237754,1.8914305790118275,1561,31,22.384847264574326,41.85036008912488
0.5579623717684129,1.8914116686069622,1561,31,22.384847264574326,41.85036008912488
0.576872094905124,1.8913927584331183,1561,31,22.384847264574326,41.85036008912488
0.5957815959870404,1.8913738484870646,1561,31,22.384847264574326,41.85036008912488
0.6146908775556089,1.891354938765819,1561,31,22.384847264574326,41.85036008912488
0.6335999419568792,1.8913360292666281,1561,31,22.384847264574326,41.85036008912488
0.6525087913565372,1.8913171199869505,1561,31,22.384847264574326,41.85036008912488
0.671417427753783,1.89129821092444,1561,31,22.384847264574326,41.85036008912488
0.690325852994141,1.8912793020769314,1561,31,22.384847264574326,41.85036008912488
0.7092340687812826,1.891260393442425,1561,31,22.384847264574326,41.85036008912488
0.7281420766879421,1.8912414850190755,1561,31,22.384847264574326,41.85036008912488
0.7470498781659904,1.8912225768051794,1561,31,22.384847264574326,41.85036008912488
0.7659574745557344,1.8912036687991636,1561,31,22.384847264574326,41.85036008912488
0.7848648670945013,1.8911847609995762,1561,31,22.384847264574326,41.85036008912488
0.8037720569245619,1.8911658534050773,1561,31,22.384847264574326,41.85036008912488
0.8226790451004437,1.8911469460144295,1561,31,22.384847264574326,41.85036008912488
0.8415858325956831,1.89112803882649,1561,31,22.384847264574326,41.85036008912488
0.8604924203090564,1.891109131840205,1561,31,22.384847264574326,41.85036008912488
0.8793988090703316,1.8910902250546004,1561,31,22.384847264574326,41.85036008912488
0.8983049996455793,1.8910713184687777,1561,31,22.384847264574326,41.85036008912488
0.9172109927420717,1.8910524120819072,1561,31,22.384847264574326,41.85036008912488
0.9361167890128088,1.8910335058932226,1561,31,22.384847264574326,41.85036008912488
0.9550223890606926,1.8910145999020167,1561,31,22.384847264574326,41.85036008912488
0.9739277934423821,1.8909956941076365,1561,31,22.384847264574326,41.85036008912488
0.9928330026718518,1.8909767885094793,1561,31,22.384847264574326,41.85036008912488
1.0117380172236756,1.8909578831069882,1561,31,22.384847264574326,41.85036008912488
1.030642837536058,1.8909389778996493,1561,31,22.384847264574326,41.85036008912488
1.0495474640136326,1.890920072886988,1561,31,22.384847264574326,41.85036008912488
1.0684518970300458,1.8909011680685661,1561,31,22.384847264574326,41.85036008912488
1.0873561369303402,1.890882263443979,1561,31,22.384847264574326,41.85036008912488
1.1062601840331558,1.8908633590128532,1561,31,22.384847264574326,41.85036008912488
1.1251640386327602,1.8908444547748433,1561,31,22.384847264574326,41.85036008912488
1.1440677010009268,1.890825550729631,1561,31,22.384847264574326,41.85036008912488
1.1629711713886621,1.8908066468769218,1561,31,22.384847264574326,41.85036008912488
1.1818744500278062,1.890787743216444,1561,31,22.384847264574326,41.85036008912488
1.200777537132506,1.8907688397479465,1561,31,22.384847264574326,41.85036008912488
1.2196804329005766,1.8907499364711977,1561,31,22.384847264574326,41.85036008912488
1.2385831375147585,1.8907310333859835,1561,31,22.384847264574326,41.85036008912488
1.2574856511438777,1.8907121304921057,1561,31,22.384847264574326,41.85036008912488
1.276387973943915,1.8906932277893818,1561,31,22.384847264574326,41.85036008912488
1.295290106058996,1.890674325277643,1561,31,22.384847264574326,41.85036008912488
1.3141920476223017,1.8906554229567332,1561,31,22.384847264574326,41.85036008912488
1.3330937987569118,1.8906365208265083,1561,31,22.384847264574326,41.85036008912488
1.351995359576581,1.8906176188868353,1561,31,22.384847264574326,41.85036008912488
1.370896730186457,1.8905987171375909,1561,31,22.384847264574326,41.85036008912488
1.3897979106837424,1.8905798155786615,1561,31,22.384847264574326,41.85036008912488
1.4086989011583073,1.8905609142099418,1561,31,22.384847264574326,41.85036008912488
1.427599701693251,1.8905420130313346,1561,31,22.384847264574326,41.85036008912488
1.446500312365425,1.8905231120427501,1561,31,22.384847264574326,41.85036008912488
1.4654007332459131,1.8905042112441055,1561,31,22.384847264574326,41.85036008912488
1.4843009644004745,1.8904853106353232,1561,31,22.384847264574326,41.85036008912488
1.5032010058899556,1.8904664102163329,1561,31,22.384847264574326,41.85036008912488
1.522100857770665,1.8904475099870683,1561,31,22.384847264574326,41.85036008912488
1.5410005200947248,1.890428609947469,1561,31,22.384847264574326,41.85036008912488
1.5598999929103918,1.8904097100974784,1561,31,22.384847264574326,41.85036008912488
1.578799276262356,1.8903908104370442,1561,31,22.384847264574326,41.85036008912488
1.5976983701920129,1.8903719109661186,1561,31,22.384847264574326,41.85036008912488
1.6165972747377193,1.8903530116846565,1561,31,22.384847264574326,41.85036008912488
1.6354959899350263,1.8903341125926167,1561,31,22.384847264574326,41.85036008912488
1.654394515816894,1.890315213689961,1561,31,22.384847264574326,41.85036008912488
1.6732928524138924,1.8902963149766536,1561,31,22.384847264574326,41.85036008912488
1.692190999754384,1.8902774164526617,1561,31,22.384847264574326,41.85036008912488
1.711088957864696,1.8902585181179545,1561,31,22.384847264574326,41.85036008912488
1.729986726769273,1.890239619972504,1561,31,22.384847264574326,41.85036008912488
1.7488843064908264,1.8902207220162834,1561,31,22.384847264574326,41.85036008912488
1.7677816970504636,1.8902018242492686,1561,31,22.384847264574326,41.85036008912488
1.786678898467815,1.890182926671437,1561,31,22.384847264574326,41.85036008912488
1.8055759107611442,1.890164029282767,1561,31,22.384847264574326,41.85036008912488
1.8244727339474562,1.8901451320832394,1561,31,22.384847264574326,41.85036008912488
1.8433693680425927,1.8901262350728358,1561,31,22.384847264574326,41.85036008912488
1.8622658130613203,1.8901073382515392,1561,31,22.384847264574326,41.85036008912488
1.8811620690174171,1.8900884416193338,1561,31,22.384847264574326,41.85036008912488
1.9000581359237447,1.8900695451762048,1561,31,22.384847264574326,41.85036008912488
1.9189540137923213,1.8900506489221385,1561,31,22.384847264574326,41.85036008912488
1.9378497026343853,1.8900317528571218,1561,31,22.384847264574326,41.85036008912488
1.9567452024604557,1.8900128569811427,1561,31,22.384847264574326,41.85036008912488
1.9756405132803876,1.8899939612941903,1561,31,22.384847264574326,41.85036008912488
1.9945356351034231,1.8899750657962537,1561,31,22.384847264574326,41.85036008912488
2.0134305679382383,1.8899561704873233,1561,31,22.384847264574326,41.85036008912488
2.0323253117929876,1.88993727536739,1561,31,22.384847264574326,41.85036008912488
2.0512198666753427,1.8899183804364446,1561,31,22.384847264574326,41.85036008912488
2.070114232592531,1.8898994856944795,1561,31,22.384847264574326,41.85036008912488
2.0890084095513672,1.8898805911414867,1561,31,22.384847264574326,41.85036008912488
2.1079023975582896,1.8898616967774589,1561,31,22.384847264574326,41.85036008912488
2.1267961966193853,1.8898428026023895,1561,31,22.384847264574326,41.85036008912488
2.145689806740417,1.889823908616272,1561,31,22.384847264574326,41.85036008912488
2.1645832279268524,1.8898050148191003,1561,31,22.384847264574326,41.85036008912488
2.1834764601838796,1.8897861212108686,1561,31,22.384847264574326,41.85036008912488
2.202369503516438,1.8897672277915716,1561,31,22.384847264574326,41.85036008912488
2.2212623579292265,1.889748334561204,1561,31,22.384847264574326,41.85036008912488
2.240155023426732,1.8897294415197607,1561,31,22.384847264574326,41.85036008912488
2.25904750001324,1.8897105486672372,1561,31,22.384847264574326,41.85036008912488
2.2779397876928513,1.889691656003629,1561,31,22.384847264574326,41.85036008912488
2.296831886469497,1.8896727635289319,1561,31,22.384847264574326,41.85036008912488
2.315723796346951,1.8896538712431414,1561,31,22.384847264574326,41.85036008912488
2.3346155173288414,1.8896349791462541,1561,31,22.384847264574326,41.85036008912488
2.3535070494186625,1.889616087238266,1561,31,22.384847264574326,41.85036008912488
2.372398392619786,1.8895971955191733,1561,31,22.384847264574326,41.85036008912488
2.39128954693547,1.8895783039889726,1561,31,22.384847264574326,41.85036008912488
2.4101805123688633,1.8895594126476607,1561,31,22.384847264574326,41.85036008912488
2.429071288923022,1.889540521495234,1561,31,22.384847264574326,41.85036008912488
2.447961876600911,1.8895216305316898,1561,31,22.384847264574326,41.85036008912488
2.4668522754054116,1.8895027397570248,1561,31,22.384847264574326,41.85036008912488
2.485742485339329,1.889483849171236,1561,31,22.384847264574326,41.85036008912488
2.5046325064053985,1.8894649587743206,1561,31,22.384847264574326,41.85036008912488
2.523522338606289,1.8894460685662757,1561,31,22.384847264574326,41.85036008912488
2.54241198194461,1.8894271785470986,1561,31,22.384847264574326,41.85036008912488
2.5613014364229163,1.889408288716787,1561,31,22.384847264574326,41.85036008912488
2.5801907020437103,1.8893893990753374,1561,31,22.384847264574326,41.85036008912488
2.599079778809447,1.8893705096227482,1561,31,22.384847264574326,41.85036008912488
2.617968666722538,1.8893516203590164,1561,31,22.384847264574326,41.85036008912488
2.6368573657853545,1.8893327312841395,1561,31,22.384847264574326,41.85036008912488
2.6557458760002315,1.8893138423981153,1561,31,22.384847264574326,41.85036008912488
2.674634197369468,1.8892949537009414,1561,31,22.384847264574326,41.85036008912488
2.6935223298953335,1.8892760651926155,1561,31,22.384847264574326,41.85036008912488
2.712410273580065,1.8892571768731352,1561,31,22.384847264574326,41.85036008912488
2.7312980284258765,1.889238288742498,1561,31,22.384847264574326,41.85036008912488
2.7501855944349525,1.8892194008007022,1561,31,22.384847264574326,41.85036008912488
2.7690729716094573,1.8892005130477452,1561,31,22.384847264574326,41.85036008912488
2.787960159951535,1.889181625483625,1561,31,22.384847264574326,41.85036008912488
2.8068471594633078,1.8891627381083391,1561,31,22.384847264574326,41.85036008912488
2.82573397014688,1.8891438509218859,1561,31,22.384847264574326,41.85036008912488
2.844620592004341,1.8891249639242629,1561,31,22.384847264574326,41.85036008912488
2.863507025037763,1.889106077115468,1561,31,22.384847264574326,41.85036008912488
2.8823932692492042,1.8890871904954991,1561,31,22.384847264574326,41.85036008912488
2.90127932464071,1.8890683040643546,1561,31,22.384847264574326,41.85036008912488
2.9201651912143136,1.8890494178220316,1561,31,22.384847264574326,41.85036008912488
2.9390508689720374,1.8890305317685288,1561,31,22.384847264574326,41.85036008912488
2.9579363579158926,1.889011645903844,1561,31,22.384847264574326,41.85036008912488
2.9768216580478812,1.8889927602279748,1561,31,22.384847264574326,41.85036008912488
2.9957067693699972,1.8889738747409195,1561,31,22.384847264574326,41.85036008912488
3.0145916918842244,1.888954989442676,1561,31,22.384847264574326,41.85036008912488
3.033476425592541,1.8889361043332424,1561,31,22.384847264574326,41.85036008912488
3.052360970496918,1.8889172194126167,1561,31,22.384847264574326,41.85036008912488
3.0712453265993207,1.888898334680797,1561,31,22.384847264574326,41.85036008912488
3.090129493901705,1.888879450137781,1561,31,22.384847264574326,41.85036008912488
3.109013472406026,1.888860565783567,1561,31,22.384847264574326,41.85036008912488
3.127897262114229,1.8888416816181532,1561,31,22.384847264574326,41.85036008912488
3.1467808630282583,1.8888227976415373,1561,31,22.384847264574326,41.85036008912488
3.1656642751500543,1.8888039138537176,1561,31,22.384847264574326,41.85036008912488
3.18454749848155,1.888785030254692,1561,31,22.384847264574326,41.85036008912488
3.2034305330246773,1.8887661468444585,1561,31,22.384847264574326,41.85036008912488
3.222313378781364,1.8887472636230154,1561,31,22.384847264574326,41.85036008912488
3.2411960357535348,1.8887283805903605,1561,31,22.384847264574326,41.85036008912488
3.2600785039431113,1.8887094977464922,1561,31,22.384847264574326,41.85036008912488
3.2789607833520122,1.8886906150914085,1561,31,22.384847264574326,41.85036008912488
3.2978428739821553,1.888671732625107,1561,31,22.384847264574326,41.85036008912488
3.3167247758354548,1.8886528503475863,1561,31,22.384847264574326,41.85036008912488
3.335606488913823,1.8886339682588444,1561,31,22.384847264574326,41.85036008912488
3.3544880132191706,1.8886150863588795,1561,31,22.384847264574326,41.85036008912488
3.373369348753405,1.8885962046476894,1561,31,22.384847264574326,41.85036008912488
3.3922504955184336,1.888577323125272,1561,31,22.384847264574326,41.85036008912488
3.411131453516162,1.8885584417916261,1561,31,22.384847264574326,41.85036008912488
3.4300122227484944,1.8885395606467492,1561,31,22.384847264574326,41.85036008912488
3.4488928032173334,1.8885206796906395,1561,31,22.384847264574326,41.85036008912488
3.46777319492458,1.8885017989232953,1561,31,22.384847264574326,41.85036008912488
3.486653397872135,1.8884829183447147,1561,31,22.384847264574326,41.85036008912488
3.505533412061897,1.8884640379548954,1561,31,22.384847264574326,41.85036008912488
3.524413237495765,1.888445157753836,1561,31,22.384847264574326,41.85036008912488
3.543292874175636,1.8884262777415342,1561,31,22.384847264574326,41.85036008912488
3.5621723221034074,1.8884073979179885,1561,31,22.384847264574326,41.85036008912488
3.581051581280974,1.8883885182831965,1561,31,22.384847264574326,41.85036008912488
3.5999306517102325,1.8883696388371567,1561,31,22.384847264574326,41.85036008912488
3.618809533393076,1.8883507595798672,1561,31,22.384847264574326,41.85036008912488
3.6376882263313997,1.8883318805113258,1561,31,22.384847264574326,41.85036008912488
3.656566730527096,1.8883130016315308,1561,31,22.384847264574326,41.85036008912488
3.6754450459820585,1.8882941229404806,1561,31,22.384847264574326,41.85036008912488
3.694323172698179,1.8882752444381727,1561,31,22.384847264574326,41.85036008912488
3.7132011106773493,1.8882563661246057,1561,31,22.384847264574326,41.85036008912488
3.7320788599214625,1.8882374879997774,1561,31,22.384847264574326,41.85036008912488
3.7509564204324084,1.888218610063686,1561,31,22.384847264574326,41.85036008912488
3.769833792212079,1.8881997323163298,1561,31,22.384847264574326,41.85036008912488
3.7887109752623624,1.8881808547577066,1561,31,22.384847264574326,41.85036008912488
3.8075879695851516,1.8881619773878147,1561,31,22.384847264574326,41.85036008912488
3.8264647751823353,1.8881431002066522,1561,31,22.384847264574326,41.85036008912488
3.8453413920558033,1.888124223214217,1561,31,22.384847264574326,41.85036008912488
3.864217820207444,1.8881053464105075,1561,31,22.384847264574326,41.85036008912488
3.8830940596391494,1.8880864697955217,1561,31,22.384847264574326,41.85036008912488
3.901970110352806,1.888067593369258,1561,31,22.384847264574326,41.85036008912488
3.9208459723503037,1.8880487171317137,1561,31,22.384847264574326,41.85036008912488
3.9397216456335307,1.8880298410828877,1561,31,22.384847264574326,41.85036008912488
3.958597130204376,1.888010965222778,1561,31,22.384847264574326,41.85036008912488
3.977472426064727,1.8879920895513822,1561,31,22.384847264574326,41.85036008912488
3.996347533216473,1.8879732140686991,1561,31,22.384847264574326,41.85036008912488
4.015222451661501,1.8879543387747262,1561,31,22.384847264574326,41.85036008912488
4.034097181401699,1.887935463669462,1561,31,22.384847264574326,41.85036008912488
4.052971722438956,1.8879165887529046,1561,31,22.384847264574326,41.85036008912488
4.071846074775159,1.887897714025052,1561,31,22.384847264574326,41.85036008912488
4.090720238412194,1.887878839485902,1561,31,22.384847264574326,41.85036008912488
4.1095942133519525,1.8878599651354533,1561,31,22.384847264574326,41.85036008912488
4.128467999596317,1.8878410909737038,1561,31,22.384847264574326,41.85036008912488
4.147341597147179,1.8878222170006516,1561,31,22.384847264574326,41.85036008912488
4.166215006006423,1.8878033432162946,1561,31,22.384847264574326,41.85036008912488
4.185088226175938,1.8877844696206312,1561,31,22.384847264574326,41.85036008912488
4.2039612576576095,1.8877655962136592,1561,31,22.384847264574326,41.85036008912488
4.2228341004533245,1.887746722995377,1561,31,22.384847264574326,41.85036008912488
4.241706754564971,1.8877278499657828,1561,31,22.384847264574326,41.85036008912488
4.260579219994435,1.8877089771248743,1561,31,22.384847264574326,41.85036008912488
4.279451496743605,1.88769010447265,1561,31,22.384847264574326,41.85036008912488
4.298323584814366,1.8876712320091078,1561,31,22.384847264574326,41.85036008912488
4.3171954842086055,1.8876523597342458,1561,31,22.384847264574326,41.85036008912488
4.3360671949282095,1.8876334876480625,1561,31,22.384847264574326,41.85036008912488
4.354938716975065,1.8876146157505553,1561,31,22.384847264574326,41.85036008912488
4.37381005035106,1.887595744041723,1561,31,22.384847264574326,41.85036008912488
4.392681195058078,1.8875768725215634,1561,31,22.384847264574326,41.85036008912488
4.411552151098008,1.8875580011900746,1561,31,22.384847264574326,41.85036008912488
4.430422918472737,1.8875391300472546,1561,31,22.384847264574326,41.85036008912488
4.44929349718415,1.8875202590931017,1561,31,22.384847264574326,41.85036008912488
4.468163887234133,1.8875013883276142,1561,31,22.384847264574326,41.85036008912488
4.487034088624572,1.88748251775079,1561,31,22.384847264574326,41.85036008912488
4.505904101357355,1.887463647362627,1561,31,22.384847264574326,41.85036008912488
