Vout,Iout,Irradiance,Temperature,MaxVoltage,MaxPower
0.0036716046961086917,0.734328,651,-11,19.274842932318087,13.782811502508903
0.011014746196880205,0.734328,651,-11,19.274842932318087,13.782811502508903
0.01835773841342684,0.7343242549625039,651,-11,19.274842932318087,13.782811502508903
0.02570055467617126,0.7343169118210031,651,-11,19.274842932318087,13.782811502508903
0.033043186269032895,0.7343095688291611,651,-11,19.274842932318087,13.782811502508903
0.04038564175397342,0.7343022260136326,651,-11,19.274842932318087,13.782811502508903
0.04772792903448414,0.734294883382774,651,-11,19.274842932318087,13.782811502508903
0.05507005540608717,0.7342875409280234,651,-11,19.274842932318087,13.782811502508903
0.06241202760303219,0.7342801986414772,651,-11,19.274842932318087,13.782811502508903
0.06975385184148152,0.7342728565158398,651,-11,19.274842932318087,13.782811502508903
0.07709553385937266,0.734265514544377,651,-11,19.274842932318087,13.782811502508903
0.08443707895321366,0.7342581727208728,651,-11,19.274842932318087,13.782811502508903
0.09177849201204735,0.7342508310395891,651,-11,19.274842932318087,13.782811502508903
0.09911977754880238,0.7342434894952294,651,-11,19.274842932318087,13.782811502508903
0.10646093972923204,0.7342361480829048,651,-11,19.274842932318087,13.782811502508903
0.1138019823986264,0.7342288067981022,651,-11,19.274842932318087,13.782811502508903
0.1211429091064694,0.7342214656366559,651,-11,19.274842932318087,13.782811502508903
0.12848372312919853,0.7342141245947207,651,-11,19.274842932318087,13.782811502508903
0.13582442749121354,0.7342067836687469,651,-11,19.274842932318087,13.782811502508903
0.14316502498426836,0.7341994428554584,651,-11,19.274842932318087,13.782811502508903
0.15050551818537167,0.7341921021518304,651,-11,19.274842932318087,13.782811502508903
0.15784590947330931,0.7341847615550714,651,-11,19.274842932318087,13.782811502508903
0.1651862010438962,0.7341774210626044,651,-11,19.274842932318087,13.782811502508903
0.17252639492405417,0.7341700806720505,651,-11,19.274842932318087,13.782811502508903
0.1798664929848069,0.734162740381214,651,-11,19.274842932318087,13.782811502508903
0.1872064969532751,0.7341554001880679,651,-11,19.274842932318087,13.782811502508903
0.19454640842374854,0.7341480600907412,651,-11,19.274842932318087,13.782811502508903
0.20188622886790622,0.7341407200875066,651,-11,19.274842932318087,13.782811502508903
0.20922595964425023,0.7341333801767702,651,-11,19.274842932318087,13.782811502508903
0.21656560200681388,0.7341260403570601,651,-11,19.274842932318087,13.782811502508903
0.22390515711319978,0.7341187006270177,651,-11,19.274842932318087,13.782811502508903
0.23124462603199888,0.7341113609853891,651,-11,19.274842932318087,13.782811502508903
0.23858400974963984,0.7341040214310167,651,-11,19.274842932318087,13.782811502508903
0.24592330917671015,0.7340966819628318,651,-11,19.274842932318087,13.782811502508903
0.25326252515379183,0.7340893425798481,651,-11,19.274842932318087,13.782811502508903
0.2606016584568476,0.734082003281155,651,-11,19.274842932318087,13.782811502508903
0.26794070980219264,0.7340746640659119,651,-11,19.274842932318087,13.782811502508903
0.2752796798510846,0.7340673249333428,651,-11,19.274842932318087,13.782811502508903
0.2826185692139589,0.7340599858827314,651,-11,19.274842932318087,13.782811502508903
0.2899573784543397,0.7340526469134164,651,-11,19.274842932318087,13.782811502508903
0.29729610809244933,0.7340453080247874,651,-11,19.274842932318087,13.782811502508903
0.30463475860853956,0.734037969216281,651,-11,19.274842932318087,13.782811502508903
0.3119733304459674,0.7340306304873767,651,-11,19.274842932318087,13.782811502508903
0.3193118240140338,0.7340232918375945,651,-11,19.274842932318087,13.782811502508903
0.32665023969060364,0.7340159532664909,651,-11,19.274842932318087,13.782811502508903
0.33398857782452496,0.7340086147736568,651,-11,19.274842932318087,13.782811502508903
0.3413268387378611,0.734001276358714,651,-11,19.274842932318087,13.782811502508903
0.3486650227279518,0.733993938021314,651,-11,19.274842932318087,13.782811502508903
0.3560031300693158,0.7339865997611345,651,-11,19.274842932318087,13.782811502508903
0.3633411610154057,0.7339792615778782,651,-11,19.274842932318087,13.782811502508903
0.37067911580023,0.7339719234712707,651,-11,19.274842932318087,13.782811502508903
0.37801699463984867,0.7339645854410585,651,-11,19.274842932318087,13.782811502508903
0.38535479773375375,0.7339572474870074,651,-11,19.274842932318087,13.782811502508903
0.39269252526614473,0.7339499096089016,651,-11,19.274842932318087,13.782811502508903
0.40003017740710495,0.7339425718065414,651,-11,19.274842932318087,13.782811502508903
0.40736775431368744,0.7339352340797429,651,-11,19.274842932318087,13.782811502508903
0.4147052561309181,0.7339278964283357,651,-11,19.274842932318087,13.782811502508903
0.4220426829927204,0.7339205588521629,651,-11,19.274842932318087,13.782811502508903
0.4293800350227703,0.7339132213510794,651,-11,19.274842932318087,13.782811502508903
0.4367173123352838,0.7339058839249514,651,-11,19.274842932318087,13.782811502508903
0.44405451503574606,0.733898546573655,651,-11,19.274842932318087,13.782811502508903
0.45139164322158204,0.7338912092970763,651,-11,19.274842932318087,13.782811502508903
0.458728696982777,0.7338838720951095,651,-11,19.274842932318087,13.782811502508903
0.4660656764024496,0.7338765349676575,651,-11,19.274842932318087,13.782811502508903
0.4734025815573789,0.73386919791463,651,-11,19.274842932318087,13.782811502508903
0.48073941251849334,0.7338618609359441,651,-11,19.274842932318087,13.782811502508903
0.4880761693513202,0.7338545240315228,651,-11,19.274842932318087,13.782811502508903
0.49541285211640157,0.7338471872012954,651,-11,19.274842932318087,13.782811502508903
0.5027494608696776,0.7338398504451963,651,-11,19.274842932318087,13.782811502508903
0.510085995662841,0.7338325137631648,651,-11,19.274842932318087,13.782811502508903
0.5174224565436633,0.7338251771551453,651,-11,19.274842932318087,13.782811502508903
0.5247588435562969,0.7338178406210858,651,-11,19.274842932318087,13.782811502508903
0.5320951567415537,0.7338105041609386,651,-11,19.274842932318087,13.782811502508903
0.5394313961371613,0.7338031677746596,651,-11,19.274842932318087,13.782811502508903
0.5467675617780016,0.7337958314622081,651,-11,19.274842932318087,13.782811502508903
0.5541036536963285,0.7337884952235461,651,-11,19.274842932318087,13.782811502508903
0.561439671921971,0.7337811590586388,651,-11,19.274842932318087,13.782811502508903
0.5687756164825192,0.7337738229674541,651,-11,19.274842932318087,13.782811502508903
0.5761114874034967,0.733766486949962,651,-11,19.274842932318087,13.782811502508903
0.5834472847085203,0.7337591510061352,651,-11,19.274842932318087,13.782811502508903
0.590783008419445,0.7337518151359478,651,-11,19.274842932318087,13.782811502508903
0.5981186585565019,0.7337444793393764,651,-11,19.274842932318087,13.782811502508903
0.605454235138421,0.733737143616399,651,-11,19.274842932318087,13.782811502508903
0.6127897381825479,0.7337298079669955,651,-11,19.274842932318087,13.782811502508903
0.6201251677049501,0.7337224723911472,651,-11,19.274842932318087,13.782811502508903
0.627460523720515,0.7337151368888366,651,-11,19.274842932318087,13.782811502508903
0.6347958062430411,0.7337078014600478,651,-11,19.274842932318087,13.782811502508903
0.6421310152853217,0.7337004661047658,651,-11,19.274842932318087,13.782811502508903
0.6494661508592221,0.7336931308229768,651,-11,19.274842932318087,13.782811502508903
0.656801212975751,0.7336857956146681,651,-11,19.274842932318087,13.782811502508903
0.6641362016451264,0.7336784604798277,651,-11,19.274842932318087,13.782811502508903
0.6714711168768372,0.7336711254184447,651,-11,19.274842932318087,13.782811502508903
0.6788059586796975,0.7336637904305088,651,-11,19.274842932318087,13.782811502508903
0.6861407270619003,0.7336564555160106,651,-11,19.274842932318087,13.782811502508903
0.6934754220310644,0.7336491206749413,651,-11,19.274842932318087,13.782811502508903
0.7008100435942792,0.7336417859072926,651,-11,19.274842932318087,13.782811502508903
0.7081445917581448,0.7336344512130568,651,-11,19.274842932318087,13.782811502508903
0.7154790665288093,0.7336271165922271,651,-11,19.274842932318087,13.782811502508903
0.7228134679120052,0.7336197820447967,651,-11,19.274842932318087,13.782811502508903
0.7301477959130795,0.7336124475707595,651,-11,19.274842932318087,13.782811502508903
0.7374820505370245,0.7336051131701098,651,-11,19.274842932318087,13.782811502508903
0.7448162317885053,0.7335977788428422,651,-11,19.274842932318087,13.782811502508903
0.7521503396718833,0.7335904445889516,651,-11,19.274842932318087,13.782811502508903
0.7594843741912415,0.7335831104084336,651,-11,19.274842932318087,13.782811502508903
0.7668183353504053,0.7335757763012837,651,-11,19.274842932318087,13.782811502508903
0.7741522231529617,0.7335684422674977,651,-11,19.274842932318087,13.782811502508903
0.7814860376022783,0.733561108307072,651,-11,19.274842932318087,13.782811502508903
0.7888197787015199,0.7335537744200028,651,-11,19.274842932318087,13.782811502508903
0.7961534464536643,0.7335464406062868,651,-11,19.274842932318087,13.782811502508903
0.8034870408615163,0.733539106865921,651,-11,19.274842932318087,13.782811502508903
0.810820561927722,0.7335317731989023,651,-11,19.274842932318087,13.782811502508903
0.8181540096547795,0.7335244396052277,651,-11,19.274842932318087,13.782811502508903
0.8254873840450515,0.733517106084895,651,-11,19.274842932318087,13.782811502508903
0.8328206851007752,0.7335097726379013,651,-11,19.274842932318087,13.782811502508903
0.8401539128240719,0.7335024392642443,651,-11,19.274842932318087,13.782811502508903
0.8474870672169565,0.733495105963922,651,-11,19.274842932318087,13.782811502508903
0.8548201482813449,0.733487772736932,651,-11,19.274842932318087,13.782811502508903
0.862153156019062,0.7334804395832725,651,-11,19.274842932318087,13.782811502508903
0.8694860904318485,0.7334731065029414,651,-11,19.274842932318087,13.782811502508903
0.8768189515213684,0.733465773495937,651,-11,19.274842932318087,13.782811502508903
0.884151739289213,0.7334584405622575,651,-11,19.274842932318087,13.782811502508903
0.8914844537369082,0.7334511077019013,651,-11,19.274842932318087,13.782811502508903
0.8988170948659185,0.7334437749148667,651,-11,19.274842932318087,13.782811502508903
0.9061496626776524,0.7334364422011523,651,-11,19.274842932318087,13.782811502508903
0.9134821571734664,0.7334291095607566,651,-11,19.274842932318087,13.782811502508903
0.9208145783546687,0.733421776993678,651,-11,19.274842932318087,13.782811502508903
0.9281469262225239,0.7334144444999156,651,-11,19.274842932318087,13.782811502508903
0.935479200778255,0.7334071120794676,651,-11,19.274842932318087,13.782811502508903
0.9428114020230473,0.7333997797323331,651,-11,19.274842932318087,13.782811502508903
0.9501435299580518,0.7333924474585105,651,-11,19.274842932318087,13.782811502508903
0.9574755845843869,0.733385115257999,651,-11,19.274842932318087,13.782811502508903
0.9648075659031412,0.7333777831307972,651,-11,19.274842932318087,13.782811502508903
0.9721394739153767,0.733370451076904,651,-11,19.274842932318087,13.782811502508903
0.9794713086221292,0.7333631190963186,651,-11,19.274842932318087,13.782811502508903
0.9868030700244116,0.7333557871890395,651,-11,19.274842932318087,13.782811502508903
0.9941347581232151,0.733348455355066,651,-11,19.274842932318087,13.782811502508903
1.0014663729195112,0.7333411235943968,651,-11,19.274842932318087,13.782811502508903
1.008797914414253,0.7333337919070312,651,-11,19.274842932318087,13.782811502508903
1.0161293826083762,0.7333264602929681,651,-11,19.274842932318087,13.782811502508903
1.023460777502802,0.7333191287522065,651,-11,19.274842932318087,13.782811502508903
1.0307920990984352,0.7333117972847456,651,-11,19.274842932318087,13.782811502508903
1.0381233473961695,0.7333044658905843,651,-11,19.274842932318087,13.782811502508903
1.045454522396885,0.7332971345697218,651,-11,19.274842932318087,13.782811502508903
1.05278562410145,0.7332898033221572,651,-11,19.274842932318087,13.782811502508903
1.0601166525107237,0.7332824721478897,651,-11,19.274842932318087,13.782811502508903
1.067447607625555,0.7332751410469182,651,-11,19.274842932318087,13.782811502508903
1.0747784894467833,0.733267810019242,651,-11,19.274842932318087,13.782811502508903
1.0821092979752405,0.7332604790648604,651,-11,19.274842932318087,13.782811502508903
1.0894400332117504,0.7332531481837722,651,-11,19.274842932318087,13.782811502508903
1.0967706951571303,0.7332458173759768,651,-11,19.274842932318087,13.782811502508903
1.1041012838121906,0.7332384866414734,651,-11,19.274842932318087,13.782811502508903
1.111431799177736,0.7332311559802611,651,-11,19.274842932318087,13.782811502508903
1.118762241254565,0.7332238253923391,651,-11,19.274842932318087,13.782811502508903
1.1260926100434714,0.7332164948777067,651,-11,19.274842932318087,13.782811502508903
1.1334229055452452,0.7332091644363629,651,-11,19.274842932318087,13.782811502508903
1.14075312776067,0.733201834068307,651,-11,19.274842932318087,13.782811502508903
1.1480832766905276,0.7331945037735383,651,-11,19.274842932318087,13.782811502508903
1.1554133523355947,0.7331871735520559,651,-11,19.274842932318087,13.782811502508903
1.162743354696645,0.7331798434038591,651,-11,19.274842932318087,13.782811502508903
1.1700732837744487,0.7331725133289471,651,-11,19.274842932318087,13.782811502508903
1.1774031395697737,0.733165183327319,651,-11,19.274842932318087,13.782811502508903
1.184732922083385,0.7331578533989742,651,-11,19.274842932318087,13.782811502508903
1.1920626313160447,0.7331505235439119,651,-11,19.274842932318087,13.782811502508903
1.1993922672685131,0.7331431937621312,651,-11,19.274842932318087,13.782811502508903
1.206721829941548,0.7331358640536316,651,-11,19.274842932318087,13.782811502508903
1.214051319335905,0.7331285344184121,651,-11,19.274842932318087,13.782811502508903
1.2213807354523394,0.733121204856472,651,-11,19.274842932318087,13.782811502508903
1.2287100782916032,0.7331138753678106,651,-11,19.274842932318087,13.782811502508903
1.2360393478544471,0.7331065459524272,651,-11,19.274842932318087,13.782811502508903
1.2433685441416211,0.7330992166103208,651,-11,19.274842932318087,13.782811502508903
1.2506976671538732,0.7330918873414909,651,-11,19.274842932318087,13.782811502508903
1.2580267168919506,0.7330845581459366,651,-11,19.274842932318087,13.782811502508903
1.265355693356599,0.7330772290236574,651,-11,19.274842932318087,13.782811502508903
1.2726845965485636,0.7330698999746522,651,-11,19.274842932318087,13.782811502508903
1.280013426468588,0.7330625709989205,651,-11,19.274842932318087,13.782811502508903
1.2873421831174159,0.7330552420964614,651,-11,19.274842932318087,13.782811502508903
1.2946708664957887,0.7330479132672743,651,-11,19.274842932318087,13.782811502508903
1.3019994766044487,0.7330405845113583,651,-11,19.274842932318087,13.782811502508903
1.3093280134441359,0.7330332558287128,651,-11,19.274842932318087,13.782811502508903
1.316656477015591,0.7330259272193371,651,-11,19.274842932318087,13.782811502508903
1.3239848673195536,0.7330185986832303,651,-11,19.274842932318087,13.782811502508903
1.331313184356762,0.7330112702203917,651,-11,19.274842932318087,13.782811502508903
1.3386414281279555,0.7330039418308205,651,-11,19.274842932318087,13.782811502508903
1.3459695986338716,0.7329966135145162,651,-11,19.274842932318087,13.782811502508903
1.353297695875248,0.7329892852714779,651,-11,19.274842932318087,13.782811502508903
1.3606257198528218,0.7329819571017048,651,-11,19.274842932318087,13.782811502508903
1.3679536705673305,0.7329746290051962,651,-11,19.274842932318087,13.782811502508903
1.37528154801951,0.7329673009819514,651,-11,19.274842932318087,13.782811502508903
1.3826093522100962,0.7329599730319698,651,-11,19.274842932318087,13.782811502508903
1.3899370831398252,0.7329526451552504,651,-11,19.274842932318087,13.782811502508903
1.3972647408094327,0.7329453173517926,651,-11,19.274842932318087,13.782811502508903
1.4045923252196546,0.7329379896215956,651,-11,19.274842932318087,13.782811502508903
1.4119198363712249,0.7329306619646588,651,-11,19.274842932318087,13.782811502508903
1.4192472742648796,0.7329233343809813,651,-11,19.274842932318087,13.782811502508903
1.4265746389013525,0.7329160068705626,651,-11,19.274842932318087,13.782811502508903
1.4339019302813787,0.7329086794334017,651,-11,19.274842932318087,13.782811502508903
1.4412291484056923,0.7329013520694979,651,-11,19.274842932318087,13.782811502508903
1.4485562932750273,0.7328940247788507,651,-11,19.274842932318087,13.782811502508903
1.4558833648901182,0.7328866975614591,651,-11,19.274842932318087,13.782811502508903
1.4632103632516984,0.7328793704173224,651,-11,19.274842932318087,13.782811502508903
1.470537288360502,0.7328720433464401,651,-11,19.274842932318087,13.782811502508903
1.4778641402172628,0.7328647163488112,651,-11,19.274842932318087,13.782811502508903
1.4851909188227141,0.7328573894244351,651,-11,19.274842932318087,13.782811502508903
1.4925176241775893,0.7328500625733111,651,-11,19.274842932318087,13.782811502508903
1.4998442562826222,0.7328427357954383,651,-11,19.274842932318087,13.782811502508903
1.5071708151385454,0.7328354090908161,651,-11,19.274842932318087,13.782811502508903
1.5144973007460925,0.7328280824594438,651,-11,19.274842932318087,13.782811502508903
1.521823713105997,0.7328207559013206,651,-11,19.274842932318087,13.782811502508903
1.5291500522189911,0.7328134294164457,651,-11,19.274842932318087,13.782811502508903
1.5364763180858083,0.7328061030048184,651,-11,19.274842932318087,13.782811502508903
1.5438025107071816,0.732798776666438,651,-11,19.274842932318087,13.782811502508903
1.5511286300838438,0.7327914504013039,651,-11,19.274842932318087,13.782811502508903
1.5584546762165274,0.7327841242094151,651,-11,19.274842932318087,13.782811502508903
1.5657806491059656,0.7327767980907711,651,-11,19.274842932318087,13.782811502508903
1.5731065487528908,0.732769472045371,651,-11,19.274842932318087,13.782811502508903
1.5804323751580356,0.7327621460732142,651,-11,19.274842932318087,13.782811502508903
1.5877581283221331,0.7327548201742999,651,-11,19.274842932318087,13.782811502508903
1.595083808245916,0.7327474943486273,651,-11,19.274842932318087,13.782811502508903
1.6024094149301158,0.7327401685961958,651,-11,19.274842932318087,13.782811502508903
1.6097349483754666,0.7327328429170046,651,-11,19.274842932318087,13.782811502508903
1.6170604085826998,0.732725517311053,651,-11,19.274842932318087,13.782811502508903
1.624385795552548,0.7327181917783402,651,-11,19.274842932318087,13.782811502508903
1.631711109285744,0.7327108663188655,651,-11,19.274842932318087,13.782811502508903
1.6390363497830198,0.7327035409326282,651,-11,19.274842932318087,13.782811502508903
1.6463615170451082,0.7326962156196276,651,-11,19.274842932318087,13.782811502508903
1.6536866110727417,0.7326888903798628,651,-11,19.274842932318087,13.782811502508903
1.661011631866652,0.7326815652133333,651,-11,19.274842932318087,13.782811502508903
1.6683365794275713,0.7326742401200382,651,-11,19.274842932318087,13.782811502508903
1.6756614537562324,0.7326669150999768,651,-11,19.274842932318087,13.782811502508903
1.682986254853368,0.7326595901531484,651,-11,19.274842932318087,13.782811502508903
1.69031098271971,0.7326522652795522,651,-11,19.274842932318087,13.782811502508903
1.6976356373559902,0.7326449404791876,651,-11,19.274842932318087,13.782811502508903
1.7049602187629413,0.7326376157520538,651,-11,19.274842932318087,13.782811502508903
1.7122847269412955,0.7326302910981499,651,-11,19.274842932318087,13.782811502508903
1.719609161891785,0.7326229665174755,651,-11,19.274842932318087,13.782811502508903
