Vout,Iout,Irradiance,Temperature,MaxVoltage,MaxPower
0.003230168940683263,0.64604,521,45,22.841711304966054,14.215270182066577
0.00969044709316884,0.64604,521,45,22.841711304966054,14.215270182066577
0.016150593909819964,0.6460367052270592,521,45,22.841711304966054,14.215270182066577
0.022610585927533303,0.6460302449489068,521,45,22.841711304966054,14.215270182066577
0.029070415478159643,0.6460237848024196,521,45,22.841711304966054,14.215270182066577
0.03553009009425894,0.6460173248110479,521,45,22.841711304966054,14.215270182066577
0.04198961672908853,0.6460108649821433,521,45,22.841711304966054,14.215270182066577
0.04844900180103244,0.6460044053081732,521,45,22.841711304966054,14.215270182066577
0.05490825123468383,0.6459979457821844,521,45,22.841711304966054,14.215270182066577
0.06136737049883799,0.6459914863977584,521,45,22.841711304966054,14.215270182066577
0.0678263646415622,0.6459850271489707,521,45,22.841711304966054,14.215270182066577
0.07428523832256721,0.6459785680303525,521,45,22.841711304966054,14.215270182066577
0.08074399584308792,0.6459721090368556,521,45,22.841711304966054,14.215270182066577
0.0872026411734651,0.6459656501638206,521,45,22.841711304966054,14.215270182066577
0.09366117797860501,0.6459591914069459,521,45,22.841711304966054,14.215270182066577
0.10011960964147985,0.6459527327622615,521,45,22.841711304966054,14.215270182066577
0.10657793928482029,0.6459462742261022,521,45,22.841711304966054,14.215270182066577
0.11303616979113892,0.6459398157950852,521,45,22.841711304966054,14.215270182066577
0.11949430382121286,0.6459333574660877,521,45,22.841711304966054,14.215270182066577
0.12595234383114456,0.6459268992362273,521,45,22.841711304966054,14.215270182066577
0.1324102920881098,0.645920441102843,521,45,22.841711304966054,14.215270182066577
0.13886815068489386,0.6459139830634789,521,45,22.841711304966054,14.215270182066577
0.14532592155330953,0.6459075251158677,521,45,22.841711304966054,14.215270182066577
0.1517836064765826,0.6459010672579167,521,45,22.841711304966054,14.215270182066577
0.15824120710078418,0.6458946094876942,521,45,22.841711304966054,14.215270182066577
0.16469872494538382,0.6458881518034166,521,45,22.841711304966054,14.215270182066577
0.17115616141299048,0.6458816942034382,521,45,22.841711304966054,14.215270182066577
0.17761351779834364,0.6458752366862394,521,45,22.841711304966054,14.215270182066577
0.1840707952966132,0.6458687792504175,521,45,22.841711304966054,14.215270182066577
0.1905279950110605,0.645862321894678,521,45,22.841711304966054,14.215270182066577
0.19698511796010984,0.6458558646178254,521,45,22.841711304966054,14.215270182066577
0.20344216508387603,0.6458494074187567,521,45,22.841711304966054,14.215270182066577
0.20989913725018966,0.6458429502964533,521,45,22.841711304966054,14.215270182066577
0.2163560352601586,0.6458364932499754,521,45,22.841711304966054,14.215270182066577
0.22281285985330204,0.6458300362784547,521,45,22.841711304966054,14.215270182066577
0.2292696117122889,0.6458235793810905,521,45,22.841711304966054,14.215270182066577
0.2357262914673122,0.645817122557143,521,45,22.841711304966054,14.215270182066577
0.24218289970012657,0.6458106658059297,521,45,22.841711304966054,14.215270182066577
0.24863943694777518,0.6458042091268203,521,45,22.841711304966054,14.215270182066577
0.2550959037060299,0.6457977525192332,521,45,22.841711304966054,14.215270182066577
0.2615523004325667,0.6457912959826313,521,45,22.841711304966054,14.215270182066577
0.268008627549897,0.6457848395165187,521,45,22.841711304966054,14.215270182066577
0.27446488544807324,0.6457783831204378,521,45,22.841711304966054,14.215270182066577
0.28092107448718595,0.6457719267939661,521,45,22.841711304966054,14.215270182066577
0.28737719499966974,0.6457654705367135,521,45,22.841711304966054,14.215270182066577
0.29383324729243054,0.6457590143483201,521,45,22.841711304966054,14.215270182066577
0.30028923164881033,0.6457525582284532,521,45,22.841711304966054,14.215270182066577
0.3067451483303998,0.6457461021768061,521,45,22.841711304966054,14.215270182066577
0.3132009975787121,0.6457396461930953,521,45,22.841711304966054,14.215270182066577
0.3196567796167278,0.6457331902770593,521,45,22.841711304966054,14.215270182066577
0.32611249465032033,0.6457267344284566,521,45,22.841711304966054,14.215270182066577
0.33256814286957276,0.6457202786470642,521,45,22.841711304966054,14.215270182066577
0.3390237244499925,0.6457138229326762,521,45,22.841711304966054,14.215270182066577
0.3454792395536327,0.6457073672851025,521,45,22.841711304966054,14.215270182066577
0.3519346883301275,0.6457009117041677,521,45,22.841711304966054,14.215270182066577
0.35839007091764774,0.6456944561897096,521,45,22.841711304966054,14.215270182066577
0.36484538744378275,0.6456880007415786,521,45,22.841711304966054,14.215270182066577
0.3713006380263545,0.6456815453596367,521,45,22.841711304966054,14.215270182066577
0.37775582277416936,0.6456750900437561,521,45,22.841711304966054,14.215270182066577
0.3842109417877114,0.6456686347938191,521,45,22.841711304966054,14.215270182066577
0.390665995159783,0.6456621796097167,521,45,22.841711304966054,14.215270182066577
0.397120982976096,0.6456557244913488,521,45,22.841711304966054,14.215270182066577
0.4035759053158168,0.6456492694386222,521,45,22.841711304966054,14.215270182066577
0.4100307622520704,0.6456428144514514,521,45,22.841711304966054,14.215270182066577
0.416485553852405,0.6456363595297572,521,45,22.841711304966054,14.215270182066577
0.4229402801792213,0.6456299046734665,521,45,22.841711304966054,14.215270182066577
0.4293949412901682,0.6456234498825116,521,45,22.841711304966054,14.215270182066577
0.435849537238509,0.6456169951568302,521,45,22.841711304966054,14.215270182066577
0.4423040680734582,0.6456105404963648,521,45,22.841711304966054,14.215270182066577
0.4487585338404932,0.6456040859010619,521,45,22.841711304966054,14.215270182066577
0.4552129345816422,0.6455976313708724,521,45,22.841711304966054,14.215270182066577
0.4616672703357491,0.6455911769057509,521,45,22.841711304966054,14.215270182066577
0.4681215411387189,0.6455847225056551,521,45,22.841711304966054,14.215270182066577
0.47457574702374367,0.6455782681705465,521,45,22.841711304966054,14.215270182066577
0.48102988802151087,0.645571813900389,521,45,22.841711304966054,14.215270182066577
0.4874839641603969,0.6455653596951494,521,45,22.841711304966054,14.215270182066577
0.49393797546664436,0.645558905554797,521,45,22.841711304966054,14.215270182066577
0.5003919219645262,0.6455524514793036,521,45,22.841711304966054,14.215270182066577
0.5068458036764973,0.6455459974686427,521,45,22.841711304966054,14.215270182066577
0.5132996206233349,0.6455395435227903,521,45,22.841711304966054,14.215270182066577
0.5197533728242667,0.6455330896417237,521,45,22.841711304966054,14.215270182066577
0.5262070602970912,0.6455266358254222,521,45,22.841711304966054,14.215270182066577
0.5326606830582864,0.6455201820738667,521,45,22.841711304966054,14.215270182066577
0.5391142411231127,0.6455137283870392,521,45,22.841711304966054,14.215270182066577
0.5455677345057055,0.6455072747649234,521,45,22.841711304966054,14.215270182066577
0.5520211632191627,0.645500821207504,521,45,22.841711304966054,14.215270182066577
0.5584745272756236,0.6454943677147668,521,45,22.841711304966054,14.215270182066577
0.5649278266863433,0.6454879142866987,521,45,22.841711304966054,14.215270182066577
0.5713810614617605,0.6454814609232875,521,45,22.841711304966054,14.215270182066577
0.5778342316115606,0.6454750076245221,521,45,22.841711304966054,14.215270182066577
0.5842873371447329,0.6454685543903921,521,45,22.841711304966054,14.215270182066577
0.5907403780696251,0.6454621012208877,521,45,22.841711304966054,14.215270182066577
0.5971933543939922,0.6454556481159998,521,45,22.841711304966054,14.215270182066577
0.6036462661250418,0.6454491950757202,521,45,22.841711304966054,14.215270182066577
0.6100991132694773,0.6454427421000412,521,45,22.841711304966054,14.215270182066577
0.6165518958335349,0.6454362891889553,521,45,22.841711304966054,14.215270182066577
0.6230046138230212,0.6454298363424562,521,45,22.841711304966054,14.215270182066577
0.6294572672433459,0.6454233835605375,521,45,22.841711304966054,14.215270182066577
0.6359098560995518,0.6454169308431933,521,45,22.841711304966054,14.215270182066577
0.6423623803963429,0.6454104781904182,521,45,22.841711304966054,14.215270182066577
0.6488148401381116,0.6454040256022073,521,45,22.841711304966054,14.215270182066577
0.6552672353289616,0.6453975730785558,521,45,22.841711304966054,14.215270182066577
0.6617195659727306,0.6453911206194592,521,45,22.841711304966054,14.215270182066577
0.6681718320730105,0.6453846682249137,521,45,22.841711304966054,14.215270182066577
0.6746240336331664,0.6453782158949152,521,45,22.841711304966054,14.215270182066577
0.6810761706563542,0.6453717636294601,521,45,22.841711304966054,14.215270182066577
0.687528243145537,0.6453653114285451,521,45,22.841711304966054,14.215270182066577
0.6939802511034986,0.6453588592921672,521,45,22.841711304966054,14.215270182066577
0.700432194532859,0.6453524072203233,521,45,22.841711304966054,14.215270182066577
0.7068840734360861,0.6453459552130105,521,45,22.841711304966054,14.215270182066577
0.7133358878155072,0.6453395032702264,521,45,22.841711304966054,14.215270182066577
0.7197876376733203,0.6453330513919684,521,45,22.841711304966054,14.215270182066577
0.726239323011604,0.6453265995782341,521,45,22.841711304966054,14.215270182066577
0.732690943832327,0.6453201478290215,521,45,22.841711304966054,14.215270182066577
0.739142500137355,0.6453136961443284,521,45,22.841711304966054,14.215270182066577
0.7455939919284609,0.6453072445241529,521,45,22.841711304966054,14.215270182066577
0.7520454192073301,0.645300792968493,521,45,22.841711304966054,14.215270182066577
0.7584967819755681,0.645294341477347,521,45,22.841711304966054,14.215270182066577
0.7649480802347068,0.6452878900507133,521,45,22.841711304966054,14.215270182066577
0.7713993139862092,0.6452814386885902,521,45,22.841711304966054,14.215270182066577
0.7778504832314761,0.6452749873909762,521,45,22.841711304966054,14.215270182066577
0.7843015879718497,0.6452685361578698,521,45,22.841711304966054,14.215270182066577
0.7907526282086181,0.6452620849892697,521,45,22.841711304966054,14.215270182066577
0.7972036039430213,0.6452556338851745,521,45,22.841711304966054,14.215270182066577
0.8036545151762516,0.6452491828455829,521,45,22.841711304966054,14.215270182066577
0.8101053619094609,0.6452427318704935,521,45,22.841711304966054,14.215270182066577
0.8165561441437611,0.6452362809599054,521,45,22.841711304966054,14.215270182066577
0.8230068618802282,0.6452298301138173,521,45,22.841711304966054,14.215270182066577
0.8294575151199054,0.6452233793322281,521,45,22.841711304966054,14.215270182066577
0.835908103863805,0.6452169286151367,521,45,22.841711304966054,14.215270182066577
0.8423586281129108,0.6452104779625422,521,45,22.841711304966054,14.215270182066577
0.8488090878681812,0.6452040273744433,521,45,22.841711304966054,14.215270182066577
0.8552594831305497,0.6451975768508392,521,45,22.841711304966054,14.215270182066577
0.8617098139009282,0.645191126391729,521,45,22.841711304966054,14.215270182066577
0.8681600801802073,0.6451846759971117,521,45,22.841711304966054,14.215270182066577
0.8746102819692594,0.6451782256669863,521,45,22.841711304966054,14.215270182066577
0.8810604192689392,0.6451717754013522,521,45,22.841711304966054,14.215270182066577
0.8875104920800847,0.6451653252002081,521,45,22.841711304966054,14.215270182066577
0.8939605004035199,0.6451588750635535,521,45,22.841711304966054,14.215270182066577
0.9004104442400543,0.6451524249913874,521,45,22.841711304966054,14.215270182066577
0.9068603235904849,0.645145974983709,521,45,22.841711304966054,14.215270182066577
0.9133101384555973,0.6451395250405174,521,45,22.841711304966054,14.215270182066577
0.9197598888361657,0.645133075161812,521,45,22.841711304966054,14.215270182066577
0.9262095747329547,0.6451266253475918,521,45,22.841711304966054,14.215270182066577
0.9326591961467199,0.6451201755978563,521,45,22.841711304966054,14.215270182066577
0.9391087530782076,0.6451137259126044,521,45,22.841711304966054,14.215270182066577
0.9455582455281569,0.6451072762918356,521,45,22.841711304966054,14.215270182066577
0.9520076734972994,0.6451008267355491,521,45,22.841711304966054,14.215270182066577
0.9584570369863603,0.6450943772437442,521,45,22.841711304966054,14.215270182066577
0.964906335996058,0.64508792781642,521,45,22.841711304966054,14.215270182066577
0.9713555705271054,0.6450814784535759,521,45,22.841711304966054,14.215270182066577
0.9778047405802108,0.6450750291552111,521,45,22.841711304966054,14.215270182066577
0.9842538461560769,0.645068579921325,521,45,22.841711304966054,14.215270182066577
0.990702887255402,0.6450621307519169,521,45,22.841711304966054,14.215270182066577
0.9971518638788806,0.6450556816469859,521,45,22.841711304966054,14.215270182066577
1.0036007760272028,0.6450492326065315,521,45,22.841711304966054,14.215270182066577
1.0100496237010559,0.6450427836305529,521,45,22.841711304966054,14.215270182066577
1.0164984069011231,0.6450363347190495,521,45,22.841711304966054,14.215270182066577
1.0229471256280858,0.6450298858720205,521,45,22.841711304966054,14.215270182066577
1.029395779882621,0.6450234370894653,521,45,22.841711304966054,14.215270182066577
1.0358443696654043,0.6450169883713833,521,45,22.841711304966054,14.215270182066577
1.042292894977109,0.6450105397177737,521,45,22.841711304966054,14.215270182066577
1.0487413558184053,0.6450040911286357,521,45,22.841711304966054,14.215270182066577
1.055189752189962,0.6449976426039689,521,45,22.841711304966054,14.215270182066577
1.0616380840924464,0.6449911941437725,521,45,22.841711304966054,14.215270182066577
1.0680863515265233,0.6449847457480458,521,45,22.841711304966054,14.215270182066577
1.074534554492856,0.6449782974167881,521,45,22.841711304966054,14.215270182066577
1.080982692992107,0.6449718491499988,521,45,22.841711304966054,14.215270182066577
1.0874307670249364,0.6449654009476774,521,45,22.841711304966054,14.215270182066577
1.0938787765920044,0.644958952809823,521,45,22.841711304966054,14.215270182066577
1.1003267216939687,0.644952504736435,521,45,22.841711304966054,14.215270182066577
1.1067746023314873,0.6449460567275127,521,45,22.841711304966054,14.215270182066577
1.113222418505215,0.6449396087830555,521,45,22.841711304966054,14.215270182066577
1.119670170215809,0.6449331609030627,521,45,22.841711304966054,14.215270182066577
1.1261178574639223,0.6449267130875339,521,45,22.841711304966054,14.215270182066577
1.1325654802502094,0.6449202653364681,521,45,22.841711304966054,14.215270182066577
1.1390130385753234,0.6449138176498647,521,45,22.841711304966054,14.215270182066577
1.1454605324399156,0.6449073700277232,521,45,22.841711304966054,14.215270182066577
1.1519079618446388,0.6449009224700428,521,45,22.841711304966054,14.215270182066577
1.1583553267901439,0.6448944749768231,521,45,22.841711304966054,14.215270182066577
1.1648026272770813,0.6448880275480631,521,45,22.841711304966054,14.215270182066577
1.1712498633061015,0.6448815801837623,521,45,22.841711304966054,14.215270182066577
1.1776970348778535,0.6448751328839201,521,45,22.841711304966054,14.215270182066577
1.1841441419929877,0.6448686856485358,521,45,22.841711304966054,14.215270182066577
1.1905911846521522,0.6448622384776088,521,45,22.841711304966054,14.215270182066577
1.1970381628559956,0.6448557913711384,521,45,22.841711304966054,14.215270182066577
1.2034850766051661,0.644849344329124,521,45,22.841711304966054,14.215270182066577
1.2099319259003118,0.6448428973515649,521,45,22.841711304966054,14.215270182066577
1.216378710742081,0.6448364504384604,521,45,22.841711304966054,14.215270182066577
1.22282543113112,0.6448300035898099,521,45,22.841711304966054,14.215270182066577
1.2292720870680764,0.6448235568056129,521,45,22.841711304966054,14.215270182066577
1.2357186785535974,0.6448171100858685,521,45,22.841711304966054,14.215270182066577
1.2421652055883292,0.6448106634305761,521,45,22.841711304966054,14.215270182066577
1.2486116681729187,0.6448042168397353,521,45,22.841711304966054,14.215270182066577
1.255058066308012,0.6447977703133453,521,45,22.841711304966054,14.215270182066577
1.261504399994256,0.6447913238514054,521,45,22.841711304966054,14.215270182066577
1.267950669232296,0.6447848774539149,521,45,22.841711304966054,14.215270182066577
1.274396874022778,0.6447784311208733,521,45,22.841711304966054,14.215270182066577
1.2808430143663483,0.6447719848522799,521,45,22.841711304966054,14.215270182066577
1.2872890902636522,0.644765538648134,521,45,22.841711304966054,14.215270182066577
1.2937351017153351,0.6447590925084351,521,45,22.841711304966054,14.215270182066577
1.3001810487220429,0.6447526464331824,521,45,22.841711304966054,14.215270182066577
1.3066269312844205,0.6447462004223754,521,45,22.841711304966054,14.215270182066577
1.3130727494031136,0.6447397544760133,521,45,22.841711304966054,14.215270182066577
1.319518503078767,0.6447333085940955,521,45,22.841711304966054,14.215270182066577
1.3259641923120264,0.6447268627766214,521,45,22.841711304966054,14.215270182066577
1.3324098171035361,0.6447204170235903,521,45,22.841711304966054,14.215270182066577
1.3388553774539418,0.6447139713350016,521,45,22.841711304966054,14.215270182066577
1.3453008733638876,0.6447075257108547,521,45,22.841711304966054,14.215270182066577
1.3517463048340193,0.6447010801511489,521,45,22.841711304966054,14.215270182066577
1.358191671864981,0.6446946346558835,521,45,22.841711304966054,14.215270182066577
1.3646369744574174,0.6446881892250579,521,45,22.841711304966054,14.215270182066577
1.3710822126119735,0.6446817438586715,521,45,22.841711304966054,14.215270182066577
1.377527386329294,0.6446752985567236,521,45,22.841711304966054,14.215270182066577
1.3839724956100237,0.6446688533192136,521,45,22.841711304966054,14.215270182066577
1.390417540454807,0.6446624081461408,521,45,22.841711304966054,14.215270182066577
1.3968625208642884,0.6446559630375046,521,45,22.841711304966054,14.215270182066577
1.4033074368391123,0.6446495179933043,521,45,22.841711304966054,14.215270182066577
1.4097522883799236,0.6446430730135394,521,45,22.841711304966054,14.215270182066577
1.4161970754873663,0.644636628098209,521,45,22.841711304966054,14.215270182066577
1.4226417981620854,0.6446301832473127,521,45,22.841711304966054,14.215270182066577
1.4290864564047245,0.6446237384608497,521,45,22.841711304966054,14.215270182066577
1.4355310502159284,0.6446172937388195,521,45,22.841711304966054,14.215270182066577
1.4419755795963416,0.6446108490812213,521,45,22.841711304966054,14.215270182066577
1.4484200445466087,0.6446044044880547,521,45,22.841711304966054,14.215270182066577
1.4548644450673733,0.6445979599593187,521,45,22.841711304966054,14.215270182066577
1.46130878115928,0.6445915154950129,521,45,22.841711304966054,14.215270182066577
1.4677530528229734,0.6445850710951366,521,45,22.841711304966054,14.215270182066577
1.4741972600590973,0.6445786267596891,521,45,22.841711304966054,14.215270182066577
1.480641402868296,0.6445721824886699,521,45,22.841711304966054,14.215270182066577
1.487085481251214,0.6445657382820782,521,45,22.841711304966054,14.215270182066577
1.4935294952084954,0.6445592941399134,521,45,22.841711304966054,14.215270182066577
1.4999734447407846,0.6445528500621749,521,45,22.841711304966054,14.215270182066577
1.5064173298487253,0.644546406048862,521,45,22.841711304966054,14.215270182066577
1.5128611505329623,0.6445399620999741,521,45,22.841711304966054,14.215270182066577
1.5193049067941393,0.6445335182155106,521,45,22.841711304966054,14.215270182066577
1.5257485986329002,0.6445270743954707,521,45,22.841711304966054,14.215270182066577
