Vout,Iout,Irradiance,Temperature,MaxVoltage,MaxPower
0.008471438543860154,1.6943039999999998,1431,17,21.351675572378767,35.72104595653656
0.02541415898666389,1.6943039999999998,1431,17,21.351675572378767,35.72104595653656
0.04235653498821064,1.694295359131056,1431,17,21.351675572378767,35.72104595653656
0.05929850501418394,1.694278416410613,1431,17,21.351675572378767,35.72104595653656
0.07624004895410158,1.6942614740354758,1431,17,21.351675572378767,35.72104595653656
0.09318118656284952,1.694244532067144,1431,17,21.351675572378767,35.72104595653656
0.11012193607603496,1.6942275905248982,1431,17,21.351675572378767,35.72104595653656
0.12706231432650683,1.6942106493889837,1431,17,21.351675572378767,35.72104595653656
0.14400233685209857,1.6941937086411647,1431,17,21.351675572378767,35.72104595653656
0.16094201799526844,1.6941767682646083,1431,17,21.351675572378767,35.72104595653656
0.17788137099507376,1.6941598282437769,1431,17,21.351675572378767,35.72104595653656
0.19482040807206819,1.6941428885643277,1431,17,21.351675572378767,35.72104595653656
0.21175914050666717,1.6941259492130218,1431,17,21.351675572378767,35.72104595653656
0.22869757871148325,1.6941090101776388,1431,17,21.351675572378767,35.72104595653656
0.24563573229809665,1.6940920714468983,1431,17,21.351675572378767,35.72104595653656
0.2625736101386877,1.6940751330103874,1431,17,21.351675572378767,35.72104595653656
0.2795112204229276,1.6940581948584945,1431,17,21.351675572378767,35.72104595653656
0.29644857071049124,1.6940412569823478,1431,17,21.351675572378767,35.72104595653656
0.313385667979531,1.6940243193737574,1431,17,21.351675572378767,35.72104595653656
0.3303225186714191,1.6940073820251635,1431,17,21.351675572378767,35.72104595653656
0.34725912873204867,1.6939904449295884,1431,17,21.351675572378767,35.72104595653656
0.36419550364995723,1.6939735080805902,1431,17,21.351675572378767,35.72104595653656
0.3811316484915153,1.6939565714722233,1431,17,21.351675572378767,35.72104595653656
0.3980675679334093,1.693939635098999,1431,17,21.351675572378767,35.72104595653656
0.4150032662926243,1.6939226989558511,1431,17,21.351675572378767,35.72104595653656
0.4319387475541198,1.693905763038103,1431,17,21.351675572378767,35.72104595653656
0.44887401539637695,1.6938888273414372,1431,17,21.351675572378767,35.72104595653656
0.46580907321497844,1.6938718918618694,1431,17,21.351675572378767,35.72104595653656
0.48274392414437617,1.6938549565957206,1431,17,21.351675572378767,35.72104595653656
0.4996785710779823,1.6938380215395956,1431,17,21.351675572378767,35.72104595653656
0.5166130166867157,1.6938210866903598,1431,17,21.351675572378767,35.72104595653656
0.5335472634361207,1.6938041520451197,1431,17,21.351675572378767,35.72104595653656
0.5504813136021689,1.6937872176012043,1431,17,21.351675572378767,35.72104595653656
0.5674151692858457,1.6937702833561485,1431,17,21.351675572378767,35.72104595653656
0.5843488324266128,1.693753349307676,1431,17,21.351675572378767,35.72104595653656
0.6012823048148379,1.6937364154536856,1431,17,21.351675572378767,35.72104595653656
0.6182155881032644,1.6937194817922383,1431,17,21.351675572378767,35.72104595653656
0.6351486838176015,1.6937025483215433,1431,17,21.351675572378767,35.72104595653656
0.6520815933662982,1.6936856150399484,1431,17,21.351675572378767,35.72104595653656
0.6690143180495655,1.6936686819459275,1431,17,21.351675572378767,35.72104595653656
0.6859468590677039,1.693651749038072,1431,17,21.351675572378767,35.72104595653656
0.7028792175287919,1.693634816315082,1431,17,21.351675572378767,35.72104595653656
0.7198113944557801,1.6936178837757572,1431,17,21.351675572378767,35.72104595653656
0.7367433907930424,1.6936009514189894,1431,17,21.351675572378767,35.72104595653656
0.7536752074124209,1.6935840192437557,1431,17,21.351675572378767,35.72104595653656
0.7706068451188074,1.6935670872491115,1431,17,21.351675572378767,35.72104595653656
0.7875383046552937,1.6935501554341854,1431,17,21.351675572378767,35.72104595653656
0.8044695867079279,1.6935332237981722,1431,17,21.351675572378767,35.72104595653656
0.8214006919101021,1.693516292340329,1431,17,21.351675572378767,35.72104595653656
0.8383316208466047,1.6934993610599696,1431,17,21.351675572378767,35.72104595653656
0.8552623740573595,1.6934824299564604,1431,17,21.351675572378767,35.72104595653656
0.8721929520408779,1.693465499029217,1431,17,21.351675572378767,35.72104595653656
0.8891233552574457,1.6934485682776994,1431,17,21.351675572378767,35.72104595653656
0.9060535841320632,1.693431637701409,1431,17,21.351675572378767,35.72104595653656
0.9229836390571613,1.6934147072998855,1431,17,21.351675572378767,35.72104595653656
0.939913520395106,1.693397777072704,1431,17,21.351675572378767,35.72104595653656
0.9568432284805135,1.693380847019472,1431,17,21.351675572378767,35.72104595653656
0.9737727636223836,1.693363917139827,1431,17,21.351675572378767,35.72104595653656
0.9907021261060713,1.6933469874334346,1431,17,21.351675572378767,35.72104595653656
1.0076313161951067,1.6933300578999857,1431,17,21.351675572378767,35.72104595653656
1.0245603341328728,1.693313128539195,1431,17,21.351675572378767,35.72104595653656
1.0414891801441575,1.693296199350799,1431,17,21.351675572378767,35.72104595653656
1.0584178544365823,1.693279270334554,1431,17,21.351675572378767,35.72104595653656
1.0753463572019255,1.6932623414902357,1431,17,21.351675572378767,35.72104595653656
1.0922746886173385,1.6932454128176362,1431,17,21.351675572378767,35.72104595653656
1.1092028488464727,1.6932284843165637,1431,17,21.351675572378767,35.72104595653656
1.1261308380405197,1.6932115559868413,1431,17,21.351675572378767,35.72104595653656
1.143058656339166,1.693194627828305,1431,17,21.351675572378767,35.72104595653656
1.1599863038714824,1.6931776998408037,1431,17,21.351675572378767,35.72104595653656
1.1769137807567376,1.693160772024198,1431,17,21.351675572378767,35.72104595653656
1.1938410871051555,1.6931438443783584,1431,17,21.351675572378767,35.72104595653656
1.2107682230186072,1.693126916903166,1431,17,21.351675572378767,35.72104595653656
1.2276951885912575,1.6931099895985102,1431,17,21.351675572378767,35.72104595653656
1.2446219839101553,1.6930930624642895,1431,17,21.351675572378767,35.72104595653656
1.2615486090557826,1.6930761355004096,1431,17,21.351675572378767,35.72104595653656
1.2784750641025588,1.6930592087067835,1431,17,21.351675572378767,35.72104595653656
1.2954013491193073,1.6930422820833304,1431,17,21.351675572378767,35.72104595653656
1.3123274641696867,1.6930253556299764,1431,17,21.351675572378767,35.72104595653656
1.3292534093125874,1.6930084293466523,1431,17,21.351675572378767,35.72104595653656
1.3461791846024989,1.6929915032332945,1431,17,21.351675572378767,35.72104595653656
1.3631047900898496,1.6929745772898444,1431,17,21.351675572378767,35.72104595653656
1.3800302258213155,1.692957651516247,1431,17,21.351675572378767,35.72104595653656
1.3969554918401135,1.6929407259124523,1431,17,21.351675572378767,35.72104595653656
1.4138805881862646,1.6929238004784133,1431,17,21.351675572378767,35.72104595653656
1.430805514896841,1.692906875214087,1431,17,21.351675572378767,35.72104595653656
1.4477302720061922,1.6928899501194334,1431,17,21.351675572378767,35.72104595653656
1.464654859546155,1.6928730251944155,1431,17,21.351675572378767,35.72104595653656
1.4815792775462484,1.6928561004389986,1431,17,21.351675572378767,35.72104595653656
1.4985035260338473,1.6928391758531511,1431,17,21.351675572378767,35.72104595653656
1.515427605034353,1.6928222514368436,1431,17,21.351675572378767,35.72104595653656
1.5323515145713413,1.6928053271900483,1431,17,21.351675572378767,35.72104595653656
1.549275254666705,1.6927884031127403,1431,17,21.351675572378767,35.72104595653656
1.5661988253407817,1.6927714792048958,1431,17,21.351675572378767,35.72104595653656
1.5831222266124743,1.692754555466493,1431,17,21.351675572378767,35.72104595653656
1.6000454584993626,1.6927376318975111,1431,17,21.351675572378767,35.72104595653656
1.616968521017803,1.6927207084979319,1431,17,21.351675572378767,35.72104595653656
1.6338914141830232,1.6927037852677373,1431,17,21.351675572378767,35.72104595653656
1.65081413800921,1.6926868622069111,1431,17,21.351675572378767,35.72104595653656
1.6677366925095891,1.6926699393154383,1431,17,21.351675572378767,35.72104595653656
1.684659077696498,1.6926530165933045,1431,17,21.351675572378767,35.72104595653656
1.7015812935814552,1.6926360940404963,1431,17,21.351675572378767,35.72104595653656
1.7185033401752234,1.6926191716570016,1431,17,21.351675572378767,35.72104595653656
1.7354252174878673,1.692602249442809,1431,17,21.351675572378767,35.72104595653656
1.7523469255288069,1.6925853273979075,1431,17,21.351675572378767,35.72104595653656
1.7692684643068675,1.692568405522287,1431,17,21.351675572378767,35.72104595653656
1.7861898338303266,1.6925514838159383,1431,17,21.351675572378767,35.72104595653656
1.8031110341069534,1.6925345622788524,1431,17,21.351675572378767,35.72104595653656
1.820032065144051,1.6925176409110212,1431,17,21.351675572378767,35.72104595653656
1.8369529269484886,1.6925007197124367,1431,17,21.351675572378767,35.72104595653656
1.8538736195267391,1.6924837986830916,1431,17,21.351675572378767,35.72104595653656
1.8707941428849069,1.6924668778229794,1431,17,21.351675572378767,35.72104595653656
1.8877144970287558,1.6924499571320932,1431,17,21.351675572378767,35.72104595653656
1.9046346819637376,1.6924330366104272,1431,17,21.351675572378767,35.72104595653656
1.9215546976950142,1.6924161162579754,1431,17,21.351675572378767,35.72104595653656
1.9384745442274798,1.6923991960747324,1431,17,21.351675572378767,35.72104595653656
1.9553942215657834,1.6923822760606932,1431,17,21.351675572378767,35.72104595653656
1.9723137297143456,1.6923653562158527,1431,17,21.351675572378767,35.72104595653656
1.9892330686773771,1.6923484365402064,1431,17,21.351675572378767,35.72104595653656
2.0061522384588946,1.6923315170337498,1431,17,21.351675572378767,35.72104595653656
2.023071239062736,1.6923145976964789,1431,17,21.351675572378767,35.72104595653656
2.0399900704925735,1.6922976785283892,1431,17,21.351675572378767,35.72104595653656
2.0569087327519293,1.6922807595294773,1431,17,21.351675572378767,35.72104595653656
2.0738272258441803,1.6922638406997395,1431,17,21.351675572378767,35.72104595653656
2.0907455497725778,1.6922469220391718,1431,17,21.351675572378767,35.72104595653656
2.107663704540251,1.6922300035477715,1431,17,21.351675572378767,35.72104595653656
2.124581690150218,1.692213085225535,1431,17,21.351675572378767,35.72104595653656
2.1414995066053972,1.6921961670724592,1431,17,21.351675572378767,35.72104595653656
2.1584171539086086,1.692179249088541,1431,17,21.351675572378767,35.72104595653656
2.17533463206259,1.6921623312737777,1431,17,21.351675572378767,35.72104595653656
2.192251941069995,1.6921454136281664,1431,17,21.351675572378767,35.72104595653656
2.209169080933405,1.692128496151704,1431,17,21.351675572378767,35.72104595653656
2.2260860516553316,1.6921115788443883,1431,17,21.351675572378767,35.72104595653656
2.2430028532382247,1.6920946617062167,1431,17,21.351675572378767,35.72104595653656
2.2599194856844744,1.6920777447371866,1431,17,21.351675572378767,35.72104595653656
2.2768359489964176,1.6920608279372955,1431,17,21.351675572378767,35.72104595653656
2.2937522431763413,1.6920439113065409,1431,17,21.351675572378767,35.72104595653656
2.3106683682264877,1.6920269948449207,1431,17,21.351675572378767,35.72104595653656
2.3275843241490546,1.6920100785524324,1431,17,21.351675572378767,35.72104595653656
2.3445001109462025,1.6919931624290738,1431,17,21.351675572378767,35.72104595653656
2.3614157286200546,1.691976246474843,1431,17,21.351675572378767,35.72104595653656
2.3783311771727016,1.6919593306897374,1431,17,21.351675572378767,35.72104595653656
2.3952464566062033,1.6919424150737552,1431,17,21.351675572378767,35.72104595653656
2.4121615669225895,1.691925499626894,1431,17,21.351675572378767,35.72104595653656
2.429076508123867,1.6919085843491521,1431,17,21.351675572378767,35.72104595653656
2.4459912802120165,1.6918916692405273,1431,17,21.351675572378767,35.72104595653656
2.462905883188995,1.6918747543010175,1431,17,21.351675572378767,35.72104595653656
2.4798203170567414,1.691857839530621,1431,17,21.351675572378767,35.72104595653656
2.496734581817174,1.6918409249293354,1431,17,21.351675572378767,35.72104595653656
2.5136486774721947,1.6918240104971591,1431,17,21.351675572378767,35.72104595653656
2.530562604023688,1.69180709623409,1431,17,21.351675572378767,35.72104595653656
2.547476361473524,1.6917901821401267,1431,17,21.351675572378767,35.72104595653656
2.5643899498235596,1.6917732682152664,1431,17,21.351675572378767,35.72104595653656
2.581303369075637,1.691756354459508,1431,17,21.351675572378767,35.72104595653656
2.598216619231588,1.6917394408728494,1431,17,21.351675572378767,35.72104595653656
2.615129700293235,1.6917225274552887,1431,17,21.351675572378767,35.72104595653656
2.632042612262387,1.691705614206824,1431,17,21.351675572378767,35.72104595653656
2.648955355140846,1.6916887011274537,1431,17,21.351675572378767,35.72104595653656
2.665867928930405,1.691671788217176,1431,17,21.351675572378767,35.72104595653656
2.6827803336328504,1.6916548754759888,1431,17,21.351675572378767,35.72104595653656
2.699692569249957,1.6916379629038907,1431,17,21.351675572378767,35.72104595653656
2.7166046357834985,1.6916210505008795,1431,17,21.351675572378767,35.72104595653656
2.733516533235239,1.6916041382669535,1431,17,21.351675572378767,35.72104595653656
2.7504282616069364,1.6915872262021112,1431,17,21.351675572378767,35.72104595653656
2.7673398209003466,1.6915703143063507,1431,17,21.351675572378767,35.72104595653656
2.7842512111172164,1.6915534025796704,1431,17,21.351675572378767,35.72104595653656
2.801162432259291,1.691536491022068,1431,17,21.351675572378767,35.72104595653656
2.8180734843283104,1.6915195796335423,1431,17,21.351675572378767,35.72104595653656
2.8349843673260104,1.6915026684140915,1431,17,21.351675572378767,35.72104595653656
2.851895081254126,1.6914857573637134,1431,17,21.351675572378767,35.72104595653656
2.8688056261143844,1.691468846482407,1431,17,21.351675572378767,35.72104595653656
2.8857160019085124,1.69145193577017,1431,17,21.351675572378767,35.72104595653656
2.9026262086382344,1.6914350252270007,1431,17,21.351675572378767,35.72104595653656
2.919536246305271,1.6914181148528977,1431,17,21.351675572378767,35.72104595653656
2.936446114911341,1.691401204647859,1431,17,21.351675572378767,35.72104595653656
2.953355814458162,1.691384294611883,1431,17,21.351675572378767,35.72104595653656
2.970265344947446,1.691367384744968,1431,17,21.351675572378767,35.72104595653656
2.987174706380908,1.6913504750471122,1431,17,21.351675572378767,35.72104595653656
3.004083898760256,1.691333565518314,1431,17,21.351675572378767,35.72104595653656
3.0209929220872014,1.6913166561585713,1431,17,21.351675572378767,35.72104595653656
3.0379017763634524,1.691299746967883,1431,17,21.351675572378767,35.72104595653656
3.0548104615907135,1.691282837946247,1431,17,21.351675572378767,35.72104595653656
3.0717189777706917,1.6912659290936616,1431,17,21.351675572378767,35.72104595653656
3.0886273249050897,1.6912490204101254,1431,17,21.351675572378767,35.72104595653656
3.1055355029956098,1.6912321118956362,1431,17,21.351675572378767,35.72104595653656
3.122443512043954,1.6912152035501926,1431,17,21.351675572378767,35.72104595653656
3.139351352051825,1.691198295373793,1431,17,21.351675572378767,35.72104595653656
3.1562590230209215,1.6911813873664354,1431,17,21.351675572378767,35.72104595653656
3.173166524952942,1.6911644795281184,1431,17,21.351675572378767,35.72104595653656
3.190073857849587,1.6911475718588402,1431,17,21.351675572378767,35.72104595653656
3.206981021712553,1.6911306643585988,1431,17,21.351675572378767,35.72104595653656
3.223888016543537,1.691113757027393,1431,17,21.351675572378767,35.72104595653656
3.2407948423442368,1.6910968498652208,1431,17,21.351675572378767,35.72104595653656
3.2577014991163473,1.6910799428720806,1431,17,21.351675572378767,35.72104595653656
3.274607986861565,1.6910630360479706,1431,17,21.351675572378767,35.72104595653656
3.291514305581585,1.6910461293928891,1431,17,21.351675572378767,35.72104595653656
3.308420455278102,1.6910292229068347,1431,17,21.351675572378767,35.72104595653656
3.3253264359528094,1.6910123165898052,1431,17,21.351675572378767,35.72104595653656
3.3422322476074022,1.6909954104417995,1431,17,21.351675572378767,35.72104595653656
3.3591378902435736,1.6909785044628154,1431,17,21.351675572378767,35.72104595653656
3.3760433638630185,1.6909615986528514,1431,17,21.351675572378767,35.72104595653656
3.3929486684674273,1.6909446930119059,1431,17,21.351675572378767,35.72104595653656
3.4098538040584945,1.6909277875399769,1431,17,21.351675572378767,35.72104595653656
3.4267587706379117,1.690910882237063,1431,17,21.351675572378767,35.72104595653656
3.443663568207372,1.6908939771031626,1431,17,21.351675572378767,35.72104595653656
3.460568196768567,1.6908770721382738,1431,17,21.351675572378767,35.72104595653656
3.4774726563231892,1.6908601673423946,1431,17,21.351675572378767,35.72104595653656
3.4943769468729293,1.690843262715524,1431,17,21.351675572378767,35.72104595653656
3.5112810684194793,1.69082635825766,1431,17,21.351675572378767,35.72104595653656
3.5281850209645302,1.6908094539688006,1431,17,21.351675572378767,35.72104595653656
3.545088804509774,1.6907925498489444,1431,17,21.351675572378767,35.72104595653656
3.561992419056902,1.6907756458980898,1431,17,21.351675572378767,35.72104595653656
3.578895864607605,1.6907587421162351,1431,17,21.351675572378767,35.72104595653656
3.5957991411635724,1.6907418385033783,1431,17,21.351675572378767,35.72104595653656
3.612702248726496,1.690724935059518,1431,17,21.351675572378767,35.72104595653656
3.629605187298066,1.6907080317846523,1431,17,21.351675572378767,35.72104595653656
3.6465079568799736,1.6906911286787798,1431,17,21.351675572378767,35.72104595653656
3.663410557473909,1.6906742257418985,1431,17,21.351675572378767,35.72104595653656
3.6803129890815613,1.690657322974007,1431,17,21.351675572378767,35.72104595653656
3.6972152517046224,1.6906404203751033,1431,17,21.351675572378767,35.72104595653656
3.7141173453447824,1.690623517945186,1431,17,21.351675572378767,35.72104595653656
3.7310192700037303,1.6906066156842532,1431,17,21.351675572378767,35.72104595653656
3.7479210256831577,1.6905897135923031,1431,17,21.351675572378767,35.72104595653656
3.7648226123847515,1.6905728116693346,1431,17,21.351675572378767,35.72104595653656
3.7817240301102046,1.6905559099153453,1431,17,21.351675572378767,35.72104595653656
3.7986252788612056,1.690539008330334,1431,17,21.351675572378767,35.72104595653656
3.8155263586394446,1.6905221069142986,1431,17,21.351675572378767,35.72104595653656
3.832427269446611,1.6905052056672378,1431,17,21.351675572378767,35.72104595653656
3.849328011284395,1.6904883045891497,1431,17,21.351675572378767,35.72104595653656
3.8662285841544866,1.6904714036800326,1431,17,21.351675572378767,35.72104595653656
3.883128988058574,1.690454502939885,1431,17,21.351675572378767,35.72104595653656
3.9000292229983478,1.6904376023687049,1431,17,21.351675572378767,35.72104595653656
3.916929288975498,1.690420701966491,1431,17,21.351675572378767,35.72104595653656
3.9338291859917125,1.6904038017332412,1431,17,21.351675572378767,35.72104595653656
3.9507289140486823,1.6903869016689541,1431,17,21.351675572378767,35.72104595653656
3.9676284731480957,1.6903700017736278,1431,17,21.351675572378767,35.72104595653656
3.9845278632916425,1.6903531020472609,1431,17,21.351675572378767,35.72104595653656
4.001427084481012,1.6903362024898516,1431,17,21.351675572378767,35.72104595653656
4.018326136717893,1.6903193031013979,1431,17,21.351675572378767,35.72104595653656
