Vout,Iout,Irradiance,Temperature,MaxVoltage,MaxPower
0.011413240257305219,2.28267,1951,10,20.843007677764433,47.144215310270376
0.03423950973030109,2.28267,1951,10,20.843007677764433,47.144215310270376
0.05706531515096395,2.2826583584927427,1951,10,20.843007677764433,47.144215310270376
0.07989057361649815,2.28263553222327,1951,10,20.843007677764433,47.144215310270376
0.10271525803283184,2.2826127064190134,1951,10,20.843007677764433,47.144215310270376
0.12553939501495584,2.2825898811628305,1951,10,20.843007677764433,47.144215310270376
0.14836300913099582,2.2825670564806964,1951,10,20.843007677764433,47.144215310270376
0.17118612305919562,2.282544232345997,1951,10,20.843007677764433,47.144215310270376
0.194008757733075,2.2825214087341634,1951,10,20.843007677764433,47.144215310270376
0.21683093247567112,2.2824985856225175,1951,10,20.843007677764433,47.144215310270376
0.23965266512345193,2.282475762990126,1951,10,20.843007677764433,47.144215310270376
0.26247397214069496,2.2824529408176657,1951,10,20.843007677764433,47.144215310270376
0.2852948687250659,2.2824301190873,1951,10,20.843007677764433,47.144215310270376
0.3081153689050735,2.2824072977825653,1951,10,20.843007677764433,47.144215310270376
0.33093548563002656,2.282384476888263,1951,10,20.843007677764433,47.144215310270376
0.3537552308530692,2.282361656390365,1951,10,20.843007677764433,47.144215310270376
0.3765746156078273,2.282338836275922,1951,10,20.843007677764433,47.144215310270376
0.3993936500791578,2.2823160165329814,1951,10,20.843007677764433,47.144215310270376
0.422212343668454,2.2822931971505085,1951,10,20.843007677764433,47.144215310270376
0.4450307050539267,2.2822703781183193,1951,10,20.843007677764433,47.144215310270376
0.4678487422462474,2.2822475594270117,1951,10,20.843007677764433,47.144215310270376
0.49066646263990893,2.282224741067908,1951,10,20.843007677764433,47.144215310270376
0.5134838730606358,2.2822019230329977,1951,10,20.843007677764433,47.144215310270376
0.5363009798091463,2.282179105314886,1951,10,20.843007677764433,47.144215310270376
0.5591177887015466,2.282156287906747,1951,10,20.843007677764433,47.144215310270376
0.581934305106618,2.2821334708022802,1951,10,20.843007677764433,47.144215310270376
0.6047505339802351,2.2821106539956695,1951,10,20.843007677764433,47.144215310270376
0.6275664798971351,2.282087837481546,1951,10,20.843007677764433,47.144215310270376
0.6503821470802429,2.2820650212549545,1951,10,20.843007677764433,47.144215310270376
0.6731975394277406,2.282042205311319,1951,10,20.843007677764433,47.144215310270376
0.6960126605380533,2.282019389646418,1951,10,20.843007677764433,47.144215310270376
0.7188275137329135,2.2819965742563517,1951,10,20.843007677764433,47.144215310270376
0.7416421020786493,2.281973759137523,1951,10,20.843007677764433,47.144215310270376
0.7644564284058363,2.2819509442866095,1951,10,20.843007677764433,47.144215310270376
0.7872704953274366,2.2819281297005456,1951,10,20.843007677764433,47.144215310270376
0.8100843052555425,2.2819053153764997,1951,10,20.843007677764433,47.144215310270376
0.8328978604168312,2.2818825013118595,1951,10,20.843007677764433,47.144215310270376
0.855711162866832,2.281859687504213,1951,10,20.843007677764433,47.144215310270376
0.8785242145030928,2.281836873951333,1951,10,20.843007677764433,47.144215310270376
0.901337017077338,2.2818140606511643,1951,10,20.843007677764433,47.144215310270376
0.9241495722066858,2.2817912476018094,1951,10,20.843007677764433,47.144215310270376
0.9469618813840067,2.2817684348015166,1951,10,20.843007677764433,47.144215310270376
0.9697739459874829,2.2817456222486685,1951,10,20.843007677764433,47.144215310270376
0.9925857672894325,2.2817228099417726,1951,10,20.843007677764433,47.144215310270376
1.0153973464644548,2.2816999978794503,1951,10,20.843007677764433,47.144215310270376
1.0382086845969487,2.2816771860604295,1951,10,20.843007677764433,47.144215310270376
1.0610197826880539,2.281654374483536,1951,10,20.843007677764433,47.144215310270376
1.0838306416620551,2.2816315631476844,1951,10,20.843007677764433,47.144215310270376
1.1066412623722977,2.2816087520518744,1951,10,20.843007677764433,47.144215310270376
1.1294516456066441,2.2815859411951815,1951,10,20.843007677764433,47.144215310270376
1.152261792092513,2.2815631305767523,1951,10,20.843007677764433,47.144215310270376
1.1750717025015294,2.2815403201957993,1951,10,20.843007677764433,47.144215310270376
1.1978813774538182,2.2815175100515943,1951,10,20.843007677764433,47.144215310270376
1.2206908175219662,2.2814947001434662,1951,10,20.843007677764433,47.144215310270376
1.2435000232346798,2.281471890470795,1951,10,20.843007677764433,47.144215310270376
1.2663089950801611,2.281449081033008,1951,10,20.843007677764433,47.144215310270376
1.2891177335092252,2.2814262718295764,1951,10,20.843007677764433,47.144215310270376
1.3119262389381756,2.2814034628600117,1951,10,20.843007677764433,47.144215310270376
1.3347345117514602,2.2813806541238635,1951,10,20.843007677764433,47.144215310270376
1.3575425523041227,2.2813578456207155,1951,10,20.843007677764433,47.144215310270376
1.380350360924064,2.2813350373501833,1951,10,20.843007677764433,47.144215310270376
1.4031579379141312,2.2813122293119115,1951,10,20.843007677764433,47.144215310270376
1.4259652835540457,2.2812894215055723,1951,10,20.843007677764433,47.144215310270376
1.4487723981021818,2.281266613930863,1951,10,20.843007677764433,47.144215310270376
1.4715792817972098,2.281243806587504,1951,10,20.843007677764433,47.144215310270376
1.494385934859611,2.2812209994752366,1951,10,20.843007677764433,47.144215310270376
1.5171923574930783,2.281198192593822,1951,10,20.843007677764433,47.144215310270376
1.5399985498858075,2.2811753859430404,1951,10,20.843007677764433,47.144215310270376
1.5628045122116905,2.2811525795226877,1951,10,20.843007677764433,47.144215310270376
1.5856102446314135,2.2811297733325757,1951,10,20.843007677764433,47.144215310270376
1.6084157472934755,2.2811069673725304,1951,10,20.843007677764433,47.144215310270376
1.6312210203351252,2.2810841616423914,1951,10,20.843007677764433,47.144215310270376
1.6540260638832263,2.28106135614201,1951,10,20.843007677764433,47.144215310270376
1.6768308780550567,2.2810385508712487,1951,10,20.843007677764433,47.144215310270376
1.6996354629590462,2.2810157458299813,1951,10,20.843007677764433,47.144215310270376
1.7224398186954573,2.28099294101809,1951,10,20.843007677764433,47.144215310270376
1.7452439453570132,2.2809701364354664,1951,10,20.843007677764433,47.144215310270376
1.7680478430294793,2.2809473320820106,1951,10,20.843007677764433,47.144215310270376
1.790851511792196,2.2809245279576293,1951,10,20.843007677764433,47.144215310270376
1.8136549517185747,2.2809017240622373,1951,10,20.843007677764433,47.144215310270376
1.8364581628765548,2.280878920395755,1951,10,20.843007677764433,47.144215310270376
1.8592611453290222,2.280856116958109,1951,10,20.843007677764433,47.144215310270376
1.882063899134201,2.2808333137492314,1951,10,20.843007677764433,47.144215310270376
1.9048664243460096,2.2808105107690593,1951,10,20.843007677764433,47.144215310270376
1.9276687210143943,2.2807877080175345,1951,10,20.843007677764433,47.144215310270376
1.9504707891856332,2.280764905494603,1951,10,20.843007677764433,47.144215310270376
1.9732726289026195,2.2807421032002146,1951,10,20.843007677764433,47.144215310270376
1.99607424020512,2.2807193011343236,1951,10,20.843007677764433,47.144215310270376
2.0188756231300187,2.2806964992968872,1951,10,20.843007677764433,47.144215310270376
2.0416767777115363,2.2806736976878645,1951,10,20.843007677764433,47.144215310270376
2.0644777039814373,2.28065089630722,1951,10,20.843007677764433,47.144215310270376
2.0872784019692148,2.2806280951549187,1951,10,20.843007677764433,47.144215310270376
2.110078871702269,2.280605294230929,1951,10,20.843007677764433,47.144215310270376
2.1328791132060703,2.2805824935352215,1951,10,20.843007677764433,47.144215310270376
2.1556791265042996,2.2805596930677683,1951,10,20.843007677764433,47.144215310270376
2.178478911618994,2.2805368928285445,1951,10,20.843007677764433,47.144215310270376
2.20127846857067,2.2805140928175263,1951,10,20.843007677764433,47.144215310270376
2.224077797378442,2.2804912930346917,1951,10,20.843007677764433,47.144215310270376
2.2468768980601257,2.28046849348002,1951,10,20.843007677764433,47.144215310270376
2.269675770632345,2.2804456941534923,1951,10,20.843007677764433,47.144215310270376
2.292474415110618,2.2804228950550907,1951,10,20.843007677764433,47.144215310270376
2.315272831509444,2.280400096184798,1951,10,20.843007677764433,47.144215310270376
2.338071019842383,2.2803772975426,1951,10,20.843007677764433,47.144215310270376
2.360868980122127,2.2803544991284808,1951,10,20.843007677764433,47.144215310270376
2.383666712360566,2.280331700942428,1951,10,20.843007677764433,47.144215310270376
2.4064642165688506,2.280308902984428,1951,10,20.843007677764433,47.144215310270376
2.42926149275745,2.2802861052544694,1951,10,20.843007677764433,47.144215310270376
2.452058540936201,2.280263307752541,1951,10,20.843007677764433,47.144215310270376
2.47485536111436,2.280240510478632,1951,10,20.843007677764433,47.144215310270376
2.4976519533006476,2.280217713432733,1951,10,20.843007677764433,47.144215310270376
2.520448317503287,2.2801949166148345,1951,10,20.843007677764433,47.144215310270376
2.5432444537300443,2.280172120024928,1951,10,20.843007677764433,47.144215310270376
2.5660403619882644,2.280149323663005,1951,10,20.843007677764433,47.144215310270376
2.588836042284901,2.280126527529058,1951,10,20.843007677764433,47.144215310270376
2.6116314946265486,2.2801037316230794,1951,10,20.843007677764433,47.144215310270376
2.6344267190194715,2.2800809359450622,1951,10,20.843007677764433,47.144215310270376
2.657221715469623,2.2800581404950004,1951,10,20.843007677764433,47.144215310270376
2.6800164839826786,2.280035345272887,1951,10,20.843007677764433,47.144215310270376
2.7028110245640473,2.2800125502787165,1951,10,20.843007677764433,47.144215310270376
2.725605337218902,2.279989755512483,1951,10,20.843007677764433,47.144215310270376
2.74839942195219,2.279966960974181,1951,10,20.843007677764433,47.144215310270376
2.7711932787686537,2.2799441666638054,1951,10,20.843007677764433,47.144215310270376
2.7939869076728465,2.279921372581352,1951,10,20.843007677764433,47.144215310270376
2.816780308669147,2.2798985787268147,1951,10,20.843007677764433,47.144215310270376
2.839573481761771,2.27987578510019,1951,10,20.843007677764433,47.144215310270376
2.862366426954784,2.279852991701473,1951,10,20.843007677764433,47.144215310270376
2.885159144252118,2.2798301985306595,1951,10,20.843007677764433,47.144215310270376
2.907951633657575,2.279807405587746,1951,10,20.843007677764433,47.144215310270376
2.930743895174841,2.279784612872728,1951,10,20.843007677764433,47.144215310270376
2.9535359288074905,2.279761820385602,1951,10,20.843007677764433,47.144215310270376
2.976327734559003,2.2797390281263636,1951,10,20.843007677764433,47.144215310270376
2.999119312432761,2.2797162360950103,1951,10,20.843007677764433,47.144215310270376
3.021910662432066,2.279693444291538,1951,10,20.843007677764433,47.144215310270376
3.0447017845601385,2.279670652715944,1951,10,20.843007677764433,47.144215310270376
3.0674926788201256,2.2796478613682236,1951,10,20.843007677764433,47.144215310270376
3.090283345215111,2.2796250702483745,1951,10,20.843007677764433,47.144215310270376
3.1130737837481113,2.2796022793563937,1951,10,20.843007677764433,47.144215310270376
3.1358639944220914,2.2795794886922778,1951,10,20.843007677764433,47.144215310270376
3.1586539772399598,2.279556698256024,1951,10,20.843007677764433,47.144215310270376
3.1814437322045777,2.279533908047629,1951,10,20.843007677764433,47.144215310270376
3.2042332593187624,2.27951111806709,1951,10,20.843007677764433,47.144215310270376
3.227022558585288,2.2794883283144047,1951,10,20.843007677764433,47.144215310270376
3.2498116300068904,2.2794655387895695,1951,10,20.843007677764433,47.144215310270376
3.2726004735862717,2.2794427494925817,1951,10,20.843007677764433,47.144215310270376
3.2953890893261013,2.2794199604234393,1951,10,20.843007677764433,47.144215310270376
3.318177477229016,2.2793971715821386,1951,10,20.843007677764433,47.144215310270376
3.340965637297627,2.279374382968678,1951,10,20.843007677764433,47.144215310270376
3.363753569534521,2.2793515945830536,1951,10,20.843007677764433,47.144215310270376
3.3865412739422567,2.279328806425264,1951,10,20.843007677764433,47.144215310270376
3.4093287505233767,2.279306018495306,1951,10,20.843007677764433,47.144215310270376
3.432115999280398,2.279283230793177,1951,10,20.843007677764433,47.144215310270376
3.4549030202158235,2.279260443318875,1951,10,20.843007677764433,47.144215310270376
3.4776898133321357,2.2792376560723966,1951,10,20.843007677764433,47.144215310270376
3.500476378631802,2.2792148690537397,1951,10,20.843007677764433,47.144215310270376
3.5232627161172756,2.2791920822629024,1951,10,20.843007677764433,47.144215310270376
3.5460488257909972,2.2791692956998815,1951,10,20.843007677764433,47.144215310270376
3.5688347076553923,2.2791465093646743,1951,10,20.843007677764433,47.144215310270376
3.591620361712878,2.279123723257279,1951,10,20.843007677764433,47.144215310270376
3.6144057879658584,2.279100937377694,1951,10,20.843007677764433,47.144215310270376
3.6371909864167282,2.2790781517259147,1951,10,20.843007677764433,47.144215310270376
3.659975957067874,2.2790553663019404,1951,10,20.843007677764433,47.144215310270376
3.6827606999216735,2.279032581105768,1951,10,20.843007677764433,47.144215310270376
3.7055452149804964,2.2790097961373954,1951,10,20.843007677764433,47.144215310270376
3.728329502246705,2.2789870113968203,1951,10,20.843007677764433,47.144215310270376
3.751113561722656,2.2789642268840398,1951,10,20.843007677764433,47.144215310270376
3.7738973934107,2.278941442599052,1951,10,20.843007677764433,47.144215310270376
3.7966809973131803,2.278918658541855,1951,10,20.843007677764433,47.144215310270376
3.8194643734324383,2.278895874712445,1951,10,20.843007677764433,47.144215310270376
3.842247521770806,2.278873091110821,1951,10,20.843007677764433,47.144215310270376
3.865030442330615,2.27885030773698,1951,10,20.843007677764433,47.144215310270376
3.8878131351141905,2.27882752459092,1951,10,20.843007677764433,47.144215310270376
3.910595600123855,2.2788047416726385,1951,10,20.843007677764433,47.144215310270376
3.9333778373619275,2.278781958982133,1951,10,20.843007677764433,47.144215310270376
3.9561598468307233,2.2787591765194017,1951,10,20.843007677764433,47.144215310270376
3.9789416285325547,2.2787363942844423,1951,10,20.843007677764433,47.144215310270376
4.001723182469732,2.2787136122772518,1951,10,20.843007677764433,47.144215310270376
4.024504508644562,2.278690830497828,1951,10,20.843007677764433,47.144215310270376
4.047285607059351,2.278668048946169,1951,10,20.843007677764433,47.144215310270376
4.0700664777163995,2.2786452676222724,1951,10,20.843007677764433,47.144215310270376
4.09284712061801,2.2786224865261357,1951,10,20.843007677764433,47.144215310270376
4.115627535766479,2.278599705657757,1951,10,20.843007677764433,47.144215310270376
4.138407723164106,2.2785769250171333,1951,10,20.843007677764433,47.144215310270376
4.161187682813187,2.278554144604263,1951,10,20.843007677764433,47.144215310270376
4.183967414716014,2.2785313644191434,1951,10,20.843007677764433,47.144215310270376
4.206746918874882,2.2785085844617723,1951,10,20.843007677764433,47.144215310270376
4.229526195292079,2.2784858047321475,1951,10,20.843007677764433,47.144215310270376
4.252305243969901,2.2784630252302667,1951,10,20.843007677764433,47.144215310270376
4.275084064910633,2.2784402459561273,1951,10,20.843007677764433,47.144215310270376
4.297862658116566,2.2784174669097275,1951,10,20.843007677764433,47.144215310270376
4.320641023589985,2.2783946880910646,1951,10,20.843007677764433,47.144215310270376
4.343419161333179,2.278371909500137,1951,10,20.843007677764433,47.144215310270376
4.366197071348431,2.2783491311369413,1951,10,20.843007677764433,47.144215310270376
4.3889747536380295,2.278326353001476,1951,10,20.843007677764433,47.144215310270376
4.411752208204256,2.2783035750937386,1951,10,20.843007677764433,47.144215310270376
4.434529435049396,2.2782807974137267,1951,10,20.843007677764433,47.144215310270376
4.457306434175732,2.2782580199614384,1951,10,20.843007677764433,47.144215310270376
4.480083205585546,2.278235242736871,1951,10,20.843007677764433,47.144215310270376
4.5028597492811215,2.2782124657400225,1951,10,20.843007677764433,47.144215310270376
4.525636065264742,2.2781896889708904,1951,10,20.843007677764433,47.144215310270376
4.548412153538685,2.278166912429472,1951,10,20.843007677764433,47.144215310270376
4.571188014105234,2.2781441361157664,1951,10,20.843007677764433,47.144215310270376
4.593963646966668,2.27812136002977,1951,10,20.843007677764433,47.144215310270376
4.61673905212527,2.278098584171481,1951,10,20.843007677764433,47.144215310270376
4.639514229583318,2.278075808540897,1951,10,20.843007677764433,47.144215310270376
4.662289179343091,2.278053033138016,1951,10,20.843007677764433,47.144215310270376
4.68506390140687,2.2780302579628358,1951,10,20.843007677764433,47.144215310270376
4.707838395776934,2.2780074830153536,1951,10,20.843007677764433,47.144215310270376
4.73061266245556,2.277984708295567,1951,10,20.843007677764433,47.144215310270376
4.753386701445028,2.277961933803475,1951,10,20.843007677764433,47.144215310270376
4.776160512747618,2.2779391595390734,1951,10,20.843007677764433,47.144215310270376
4.798934096365606,2.2779163855023614,1951,10,20.843007677764433,47.144215310270376
4.821707452301271,2.2778936116933366,1951,10,20.843007677764433,47.144215310270376
4.844480580556891,2.277870838111996,1951,10,20.843007677764433,47.144215310270376
4.867253481134744,2.2778480647583375,1951,10,20.843007677764433,47.144215310270376
4.890026154037108,2.277825291632359,1951,10,20.843007677764433,47.144215310270376
4.91279859926626,2.2778025187340587,1951,10,20.843007677764433,47.144215310270376
4.935570816824478,2.277779746063434,1951,10,20.843007677764433,47.144215310270376
4.958342806714038,2.2777569736204817,1951,10,20.843007677764433,47.144215310270376
4.981114568937218,2.277734201405201,1951,10,20.843007677764433,47.144215310270376
5.003886103496296,2.2777114294175886,1951,10,20.843007677764433,47.144215310270376
5.026657410393548,2.2776886576576425,1951,10,20.843007677764433,47.144215310270376
5.04942848963125,2.277665886125361,1951,10,20.843007677764433,47.144215310270376
5.072199341211681,2.2776431148207408,1951,10,20.843007677764433,47.144215310270376
5.094969965137115,2.2776203437437803,1951,10,20.843007677764433,47.144215310270376
5.117740361409831,2.277597572894477,1951,10,20.843007677764433,47.144215310270376
5.140510530032105,2.2775748022728286,1951,10,20.843007677764433,47.144215310270376
5.163280471006213,2.277552031878833,1951,10,20.843007677764433,47.144215310270376
5.186050184334433,2.2775292617124876,1951,10,20.843007677764433,47.144215310270376
5.208819670019039,2.2775064917737904,1951,10,20.843007677764433,47.144215310270376
5.231588928062308,2.2774837220627395,1951,10,20.843007677764433,47.144215310270376
5.254357958466517,2.277460952579332,1951,10,20.843007677764433,47.144215310270376
5.277126761233942,2.2774381833235653,1951,10,20.843007677764433,47.144215310270376
5.299895336366859,2.2774154142954384,1951,10,20.843007677764433,47.144215310270376
5.322663683867544,2.2773926454949476,1951,10,20.843007677764433,47.144215310270376
5.345431803738275,2.2773698769220916,1951,10,20.843007677764433,47.144215310270376
5.368199695981326,2.2773471085768677,1951,10,20.843007677764433,47.144215310270376
5.390967360598971,2.2773243404592742,1951,10,20.843007677764433,47.144215310270376
