Vout,Iout,Irradiance,Temperature,MaxVoltage,MaxPower
0.002396806953779291,0.47936599999999996,391,38,22.874254175017235,10.44211597076834
0.0071903765421088076,0.47936599999999996,391,38,22.874254175017235,10.44211597076834
0.011983848678370934,0.4793635552564462,391,38,22.874254175017235,10.44211597076834
0.0167772059527861,0.47935876168685787,391,38,22.874254175017235,10.44211597076834
0.02157044267553631,0.47935396821496606,391,38,22.874254175017235,10.44211597076834
0.026363564435831422,0.479349174858171,391,38,22.874254175017235,10.44211597076834
0.03115657639303488,0.4793443816219276,391,38,22.874254175017235,10.44211597076834
0.03594948330963055,0.4793395885006466,391,38,22.874254175017235,10.44211597076834
0.040742289581706156,0.47933479548916874,391,38,22.874254175017235,10.44211597076834
0.04553499926714441,0.47933000258273145,391,38,22.874254175017235,10.44211597076834
0.05032761611164498,0.4793252097769387,391,38,22.874254175017235,10.44211597076834
0.05512014357274436,0.47932041706773254,391,38,22.874254175017235,10.44211597076834
0.05991258484198763,0.47931562445136733,391,38,22.874254175017235,10.44211597076834
0.06470494286539422,0.4793108319243855,391,38,22.874254175017235,10.44211597076834
0.06949722036234902,0.4793060394835955,391,38,22.874254175017235,10.44211597076834
0.0742894198430401,0.4793012471260514,391,38,22.874254175017235,10.44211597076834
0.07908154362455444,0.47929645484903366,391,38,22.874254175017235,10.44211597076834
0.08387359384573569,0.4792916626500322,391,38,22.874254175017235,10.44211597076834
0.08866557248089826,0.4792868705267299,391,38,22.874254175017235,10.44211597076834
0.09345748135248663,0.47928207847698795,391,38,22.874254175017235,10.44211597076834
0.09824932214276028,0.479277286498832,391,38,22.874254175017235,10.44211597076834
0.10304109640457995,0.47927249459043963,391,38,22.874254175017235,10.44211597076834
0.10783280557136367,0.47926770275012853,391,38,22.874254175017235,10.44211597076834
0.11262445096627684,0.47926291097634593,391,38,22.874254175017235,10.44211597076834
0.11741603381071529,0.4792581192676583,391,38,22.874254175017235,10.44211597076834
0.12220755523213558,0.4792533276227426,391,38,22.874254175017235,10.44211597076834
0.1269990162712829,0.4792485360403773,391,38,22.874254175017235,10.44211597076834
0.1317904178888626,0.4792437445194351,391,38,22.874254175017235,10.44211597076834
0.13658176097169877,0.4792389530588751,391,38,22.874254175017235,10.44211597076834
0.14137304633841868,0.47923416165773663,391,38,22.874254175017235,10.44211597076834
0.1461642747447,0.47922937031513296,391,38,22.874254175017235,10.44211597076834
0.1509554468881142,0.4792245790302454,391,38,22.874254175017235,10.44211597076834
0.15574656341259732,0.4792197878023182,391,38,22.874254175017235,10.44211597076834
0.16053762491257687,0.4792149966306539,391,38,22.874254175017235,10.44211597076834
0.16532863193678093,0.4792102055146086,391,38,22.874254175017235,10.44211597076834
0.17011958499175445,0.4792054144535877,391,38,22.874254175017235,10.44211597076834
0.17491048454510488,0.4792006234470426,391,38,22.874254175017235,10.44211597076834
0.17970133102849803,0.47919583249446673,391,38,22.874254175017235,10.44211597076834
0.18449212484042346,0.4791910415953925,391,38,22.874254175017235,10.44211597076834
0.18928286634874728,0.4791862507493882,391,38,22.874254175017235,10.44211597076834
0.1940735558930681,0.4791814599560554,391,38,22.874254175017235,10.44211597076834
0.19886419378689227,0.47917666921502616,391,38,22.874254175017235,10.44211597076834
0.2036547803196412,0.4791718785259609,391,38,22.874254175017235,10.44211597076834
0.2084453157585046,0.4791670878885462,391,38,22.874254175017235,10.44211597076834
0.2132358003501511,0.4791622973024925,391,38,22.874254175017235,10.44211597076834
0.218026234322307,0.47915750676753266,391,38,22.874254175017235,10.44211597076834
0.2228166178852139,0.4791527162834201,391,38,22.874254175017235,10.44211597076834
0.22760695123297378,0.479147925849927,391,38,22.874254175017235,10.44211597076834
0.2323972345447911,0.4791431354668431,391,38,22.874254175017235,10.44211597076834
0.23718746798611892,0.4791383451339744,391,38,22.874254175017235,10.44211597076834
0.24197765170971666,0.4791335548511416,391,38,22.874254175017235,10.44211597076834
0.24676778585662734,0.4791287646181793,391,38,22.874254175017235,10.44211597076834
0.2515578705570785,0.47912397443493476,391,38,22.874254175017235,10.44211597076834
0.25634790593131473,0.4791191843012669,391,38,22.874254175017235,10.44211597076834
0.2611378920903656,0.47911439421704544,391,38,22.874254175017235,10.44211597076834
0.2659278291367547,0.4791096041821502,391,38,22.874254175017235,10.44211597076834
0.2707177171651543,0.47910481419647016,391,38,22.874254175017235,10.44211597076834
0.2755075562629889,0.4791000242599028,391,38,22.874254175017235,10.44211597076834
0.2802973465109937,0.4790952343723534,391,38,22.874254175017235,10.44211597076834
0.28508708798372856,0.47909044453373456,391,38,22.874254175017235,10.44211597076834
0.2898767807500534,0.4790856547439655,391,38,22.874254175017235,10.44211597076834
0.2946664248735669,0.47908086500297176,391,38,22.874254175017235,10.44211597076834
0.29945602041301117,0.4790760753106844,391,38,22.874254175017235,10.44211597076834
0.3042455674226455,0.4790712856670399,391,38,22.874254175017235,10.44211597076834
0.309035065952591,0.47906649607197943,391,38,22.874254175017235,10.44211597076834
0.3138245160491495,0.47906170652544877,391,38,22.874254175017235,10.44211597076834
0.3186139177550968,0.4790569170273978,391,38,22.874254175017235,10.44211597076834
0.32340327110995454,0.47905212757778015,391,38,22.874254175017235,10.44211597076834
0.32819257615024033,0.47904733817655315,391,38,22.874254175017235,10.44211597076834
0.33298183290969874,0.47904254882367725,391,38,22.874254175017235,10.44211597076834
0.3377710414195148,0.4790377595191159,391,38,22.874254175017235,10.44211597076834
0.3425602017085112,0.47903297026283537,391,38,22.874254175017235,10.44211597076834
0.3473493138033295,0.4790281810548045,391,38,22.874254175017235,10.44211597076834
0.3521383777285984,0.47902339189499443,391,38,22.874254175017235,10.44211597076834
0.3569273935070885,0.47901860278337854,391,38,22.874254175017235,10.44211597076834
0.36171636115985506,0.4790138137199322,391,38,22.874254175017235,10.44211597076834
0.3665052807063702,0.4790090247046326,391,38,22.874254175017235,10.44211597076834
0.37129415216464445,0.4790042357374587,391,38,22.874254175017235,10.44211597076834
0.37608297555134,0.47899944681839113,391,38,22.874254175017235,10.44211597076834
0.3808717508818733,0.47899465794741175,391,38,22.874254175017235,10.44211597076834
0.38566047817051163,0.4789898691245039,391,38,22.874254175017235,10.44211597076834
0.3904491574304615,0.4789850803496523,391,38,22.874254175017235,10.44211597076834
0.39523778867394976,0.47898029162284256,391,38,22.874254175017235,10.44211597076834
0.40002637191229956,0.47897550294406144,391,38,22.874254175017235,10.44211597076834
0.4048149071559996,0.47897071431329685,391,38,22.874254175017235,10.44211597076834
0.40960339441476856,0.47896592573053737,391,38,22.874254175017235,10.44211597076834
0.41439183369761395,0.47896113719577255,391,38,22.874254175017235,10.44211597076834
0.41918022501288704,0.4789563487089926,391,38,22.874254175017235,10.44211597076834
0.4239685683683336,0.47895156027018865,391,38,22.874254175017235,10.44211597076834
0.4287568637711399,0.4789467718793522,391,38,22.874254175017235,10.44211597076834
0.4335451112279764,0.4789419835364756,391,38,22.874254175017235,10.44211597076834
0.4383333107450372,0.47893719524155165,391,38,22.874254175017235,10.44211597076834
0.4431214623280762,0.4789324069945736,391,38,22.874254175017235,10.44211597076834
0.44790956598244175,0.4789276187955354,391,38,22.874254175017235,10.44211597076834
0.4526976217131076,0.4789228306444312,391,38,22.874254175017235,10.44211597076834
0.45748562952470145,0.47891804254125564,391,38,22.874254175017235,10.44211597076834
0.4622735894215317,0.4789132544860038,391,38,22.874254175017235,10.44211597076834
0.4670615014076121,0.478908466478671,391,38,22.874254175017235,10.44211597076834
0.4718493654866845,0.478903678519253,391,38,22.874254175017235,10.44211597076834
0.47663718166223956,0.4788988906077457,391,38,22.874254175017235,10.44211597076834
0.4814249499375363,0.4788941027441454,391,38,22.874254175017235,10.44211597076834
0.48621267031561965,0.47888931492844866,391,38,22.874254175017235,10.44211597076834
0.4910003427993374,0.47888452716065216,391,38,22.874254175017235,10.44211597076834
0.49578796739135444,0.47887973944075285,391,38,22.874254175017235,10.44211597076834
0.5005755440941682,0.4788749517687479,391,38,22.874254175017235,10.44211597076834
0.50536307291012,0.4788701641446347,391,38,22.874254175017235,10.44211597076834
0.5101505538414082,0.4788653765684106,391,38,22.874254175017235,10.44211597076834
0.5149379868900991,0.47886058904007345,391,38,22.874254175017235,10.44211597076834
0.5197253720581362,0.4788558015596209,391,38,22.874254175017235,10.44211597076834
0.524512709347351,0.47885101412705094,391,38,22.874254175017235,10.44211597076834
0.5292999987594702,0.47884622674236166,391,38,22.874254175017235,10.44211597076834
0.5340872402961251,0.4788414394055512,391,38,22.874254175017235,10.44211597076834
0.5388744339588577,0.4788366521166178,391,38,22.874254175017235,10.44211597076834
0.5436615797491287,0.4788318648755599,391,38,22.874254175017235,10.44211597076834
0.5484486776683225,0.47882707768237587,391,38,22.874254175017235,10.44211597076834
0.5532357277177548,0.4788222905370643,391,38,22.874254175017235,10.44211597076834
0.558022729898676,0.47881750343962387,391,38,22.874254175017235,10.44211597076834
0.5628096842122777,0.47881271639005313,391,38,22.874254175017235,10.44211597076834
0.5675965906596961,0.47880792938835093,391,38,22.874254175017235,10.44211597076834
0.5723834492420172,0.47880314243451605,391,38,22.874254175017235,10.44211597076834
0.5771702599602802,0.4787983555285473,391,38,22.874254175017235,10.44211597076834
0.5819570228154809,0.4787935686704437,391,38,22.874254175017235,10.44211597076834
0.5867437378085756,0.4787887818602041,391,38,22.874254175017235,10.44211597076834
0.5915304049404835,0.4787839950978276,391,38,22.874254175017235,10.44211597076834
0.5963170242120903,0.47877920838331317,391,38,22.874254175017235,10.44211597076834
0.6011035956242498,0.47877442171665996,391,38,22.874254175017235,10.44211597076834
0.6058901191777876,0.478769635097867,391,38,22.874254175017235,10.44211597076834
0.610676594873502,0.4787648485269335,391,38,22.874254175017235,10.44211597076834
0.6154630227121668,0.4787600620038587,391,38,22.874254175017235,10.44211597076834
0.6202494026945334,0.4787552755286416,391,38,22.874254175017235,10.44211597076834
0.6250357348213319,0.4787504891012816,391,38,22.874254175017235,10.44211597076834
0.6298220190932732,0.47874570272177785,391,38,22.874254175017235,10.44211597076834
0.6346082555110502,0.4787409163901297,391,38,22.874254175017235,10.44211597076834
0.639394444075339,0.4787361301063364,391,38,22.874254175017235,10.44211597076834
0.6441805847868011,0.4787313438703973,391,38,22.874254175017235,10.44211597076834
0.6489666776460834,0.4787265576823116,391,38,22.874254175017235,10.44211597076834
0.6537527226538201,0.4787217715420788,391,38,22.874254175017235,10.44211597076834
0.6585387198106334,0.4787169854496981,391,38,22.874254175017235,10.44211597076834
0.6633246691171343,0.47871219940516896,391,38,22.874254175017235,10.44211597076834
0.6681105705739235,0.47870741340849077,391,38,22.874254175017235,10.44211597076834
0.6728964241815927,0.4787026274596629,391,38,22.874254175017235,10.44211597076834
0.6776822299407245,0.47869784155868467,391,38,22.874254175017235,10.44211597076834
0.6824679878518934,0.47869305570555565,391,38,22.874254175017235,10.44211597076834
0.6872536979156667,0.4786882699002751,391,38,22.874254175017235,10.44211597076834
0.692039360132605,0.4786834841428425,391,38,22.874254175017235,10.44211597076834
0.6968249745032625,0.4786786984332573,391,38,22.874254175017235,10.44211597076834
0.7016105410281871,0.47867391277151894,391,38,22.874254175017235,10.44211597076834
0.7063960597079222,0.47866912715762683,391,38,22.874254175017235,10.44211597076834
0.7111815305430055,0.4786643415915805,391,38,22.874254175017235,10.44211597076834
0.7159669535339698,0.47865955607337934,391,38,22.874254175017235,10.44211597076834
0.7207523286813449,0.4786547706030228,391,38,22.874254175017235,10.44211597076834
0.7255376559856554,0.4786499851805104,391,38,22.874254175017235,10.44211597076834
0.7303229354474237,0.4786451998058416,391,38,22.874254175017235,10.44211597076834
0.735108167067167,0.4786404144790158,391,38,22.874254175017235,10.44211597076834
0.7398933508454012,0.47863562920003255,391,38,22.874254175017235,10.44211597076834
0.7446784867826383,0.47863084396889133,391,38,22.874254175017235,10.44211597076834
0.7494635748793882,0.4786260587855916,391,38,22.874254175017235,10.44211597076834
0.7542486151361578,0.4786212736501329,391,38,22.874254175017235,10.44211597076834
0.7590336075534524,0.4786164885625147,391,38,22.874254175017235,10.44211597076834
0.7638185521317753,0.4786117035227364,391,38,22.874254175017235,10.44211597076834
0.7686034488716268,0.4786069185307977,391,38,22.874254175017235,10.44211597076834
0.7733882977735067,0.47860213358669784,391,38,22.874254175017235,10.44211597076834
0.7781730988379127,0.47859734869043646,391,38,22.874254175017235,10.44211597076834
0.7829578520653411,0.4785925638420131,391,38,22.874254175017235,10.44211597076834
0.7877425574562862,0.4785877790414272,391,38,22.874254175017235,10.44211597076834
0.792527215011242,0.47858299428867823,391,38,22.874254175017235,10.44211597076834
0.7973118247307006,0.4785782095837658,391,38,22.874254175017235,10.44211597076834
0.8020963866151535,0.4785734249266893,391,38,22.874254175017235,10.44211597076834
0.8068809006650907,0.4785686403174483,391,38,22.874254175017235,10.44211597076834
0.8116653668810014,0.4785638557560423,391,38,22.874254175017235,10.44211597076834
0.8164497852633744,0.4785590712424708,391,38,22.874254175017235,10.44211597076834
0.8212341558126974,0.4785542867767334,391,38,22.874254175017235,10.44211597076834
0.826018478529457,0.4785495023588295,391,38,22.874254175017235,10.44211597076834
0.8308027534141397,0.4785447179887586,391,38,22.874254175017235,10.44211597076834
0.835586980467231,0.47853993366652026,391,38,22.874254175017235,10.44211597076834
0.8403711596892164,0.478535149392114,391,38,22.874254175017235,10.44211597076834
0.8451552910805797,0.4785303651655394,391,38,22.874254175017235,10.44211597076834
0.8499393746418058,0.4785255809867958,391,38,22.874254175017235,10.44211597076834
0.8547234103733775,0.47852079685588284,391,38,22.874254175017235,10.44211597076834
0.8595073982757782,0.47851601277280004,391,38,22.874254175017235,10.44211597076834
0.8642913383494907,0.4785112287375469,391,38,22.874254175017235,10.44211597076834
0.8690752305949975,0.4785064447501229,391,38,22.874254175017235,10.44211597076834
0.8738590750127806,0.4785016608105276,391,38,22.874254175017235,10.44211597076834
0.8786428716033219,0.47849687691876047,391,38,22.874254175017235,10.44211597076834
0.8834266203671027,0.4784920930748211,391,38,22.874254175017235,10.44211597076834
0.8882103213046043,0.47848730927870897,391,38,22.874254175017235,10.44211597076834
0.892993974416308,0.47848252553042353,391,38,22.874254175017235,10.44211597076834
0.8977775797026941,0.47847774182996444,391,38,22.874254175017235,10.44211597076834
0.9025611371642435,0.4784729581773311,391,38,22.874254175017235,10.44211597076834
0.9073446468014363,0.4784681745725231,391,38,22.874254175017235,10.44211597076834
0.9121281086147531,0.4784633910155399,391,38,22.874254175017235,10.44211597076834
0.9169115226046733,0.4784586075063811,391,38,22.874254175017235,10.44211597076834
0.9216948887716775,0.4784538240450461,391,38,22.874254175017235,10.44211597076834
0.9264782071162451,0.47844904063153454,391,38,22.874254175017235,10.44211597076834
0.9312614776388556,0.4784442572658459,391,38,22.874254175017235,10.44211597076834
0.9360447003399885,0.47843947394797964,391,38,22.874254175017235,10.44211597076834
0.9408278752201233,0.47843469067793537,391,38,22.874254175017235,10.44211597076834
0.9456110022797393,0.47842990745571257,391,38,22.874254175017235,10.44211597076834
0.9503940815193154,0.4784251242813108,391,38,22.874254175017235,10.44211597076834
0.9551771129393312,0.4784203411547295,391,38,22.874254175017235,10.44211597076834
0.9599600965402654,0.4784155580759682,391,38,22.874254175017235,10.44211597076834
0.9647430323225968,0.4784107750450265,391,38,22.874254175017235,10.44211597076834
0.9695259202868045,0.4784059920619039,391,38,22.874254175017235,10.44211597076834
0.9743087604333672,0.47840120912659984,391,38,22.874254175017235,10.44211597076834
0.9790915527627637,0.47839642623911394,391,38,22.874254175017235,10.44211597076834
0.9838742972754728,0.4783916433994457,391,38,22.874254175017235,10.44211597076834
0.9886569939719727,0.47838686060759456,391,38,22.874254175017235,10.44211597076834
0.9934396428527424,0.47838207786356013,391,38,22.874254175017235,10.44211597076834
0.9982222439182602,0.4783772951673419,391,38,22.874254175017235,10.44211597076834
1.0030047971690048,0.4783725125189394,391,38,22.874254175017235,10.44211597076834
1.0077873026054542,0.4783677299183522,391,38,22.874254175017235,10.44211597076834
1.0125697602280876,0.4783629473655797,391,38,22.874254175017235,10.44211597076834
1.0173521700373829,0.4783581648606215,391,38,22.874254175017235,10.44211597076834
1.0221345320338184,0.47835338240347713,391,38,22.874254175017235,10.44211597076834
1.0269168462178724,0.4783485999941461,391,38,22.874254175017235,10.44211597076834
1.031699112590023,0.4783438176326279,391,38,22.874254175017235,10.44211597076834
1.0364813311507493,0.4783390353189221,391,38,22.874254175017235,10.44211597076834
1.0412635019005287,0.4783342530530282,391,38,22.874254175017235,10.44211597076834
1.0460456248398398,0.4783294708349457,391,38,22.874254175017235,10.44211597076834
1.0508276999691604,0.47832468866467415,391,38,22.874254175017235,10.44211597076834
1.0556097272889693,0.478319906542213,391,38,22.874254175017235,10.44211597076834
1.0603917067997441,0.4783151244675619,391,38,22.874254175017235,10.44211597076834
1.0651736385019634,0.47831034244072035,391,38,22.874254175017235,10.44211597076834
1.069955522396105,0.47830556046168776,391,38,22.874254175017235,10.44211597076834
1.074737358482647,0.47830077853046377,391,38,22.874254175017235,10.44211597076834
1.0795191467620677,0.4782959966470478,391,38,22.874254175017235,10.44211597076834
1.0843008872348447,0.47829121481143944,391,38,22.874254175017235,10.44211597076834
1.0890825799014567,0.4782864330236382,391,38,22.874254175017235,10.44211597076834
1.0938642247623813,0.47828165128364364,391,38,22.874254175017235,10.44211597076834
1.0986458218180968,0.4782768695914552,391,38,22.874254175017235,10.44211597076834
1.1034273710690812,0.47827208794707243,391,38,22.874254175017235,10.44211597076834
1.1082088725158121,0.4782673063504949,391,38,22.874254175017235,10.44211597076834
1.112990326158768,0.4782625248017221,391,38,22.874254175017235,10.44211597076834
1.1177717319984266,0.4782577433007535,391,38,22.874254175017235,10.44211597076834
1.1225530900352665,0.4782529618475887,391,38,22.874254175017235,10.44211597076834
1.127334400269765,0.4782481804422272,391,38,22.874254175017235,10.44211597076834
1.1321156627023998,0.4782433990846685,391,38,22.874254175017235,10.44211597076834
1.1368968773336499,0.47823861777491217,391,38,22.874254175017235,10.44211597076834
