Vout,Iout,Irradiance,Temperature,MaxVoltage,MaxPower
0.010247361467678196,2.049492,1691,31,22.385404425036327,45.37850376894564
0.030741894919622308,2.049492,1691,31,22.385404425036327,45.37850376894564
0.05123601172284184,2.049481547689332,1691,31,22.385404425036327,45.37850376894564
0.07172963744318014,2.04946105315588,1691,31,22.385404425036327,45.37850376894564
0.09222274775426345,2.0494405590401223,1691,31,22.385404425036327,45.37850376894564
0.11271536655232335,2.0494200654164514,1691,31,22.385404425036327,45.37850376894564
0.13320751589581628,2.04939957230819,1691,31,22.385404425036327,45.37850376894564
0.15369921614637114,2.049379079691441,1691,31,22.385404425036327,45.37850376894564
0.17419048609911872,2.049358587544147,1691,31,22.385404425036327,45.37850376894564
0.19468134310322044,2.0493380958459455,1691,31,22.385404425036327,45.37850376894564
0.21517180317312348,2.049317604578042,1691,31,22.385404425036327,45.37850376894564
0.23566188109125602,2.049297113723087,1691,31,22.385404425036327,45.37850376894564
0.25615159050282027,2.049276623265066,1691,31,22.385404425036327,45.37850376894564
0.27664094400329303,2.049256133189197,1691,31,22.385404425036327,45.37850376894564
0.29712995321919256,2.049235643481835,1691,31,22.385404425036327,45.37850376894564
0.31761862888263237,2.0492151541303834,1691,31,22.385404425036327,45.37850376894564
0.33810698090013763,2.0491946651232165,1691,31,22.385404425036327,45.37850376894564
0.35859501841616753,2.049174176449602,1691,31,22.385404425036327,45.37850376894564
0.3790827498717497,2.0491536880996333,1691,31,22.385404425036327,45.37850376894564
0.3995701830586035,2.049133200064166,1691,31,22.385404425036327,45.37850376894564
0.42005732516909855,2.0491127123347592,1691,31,22.385404425036327,45.37850376894564
0.44054418284236985,2.0490922249036214,1691,31,22.385404425036327,45.37850376894564
0.4610307622068843,2.0490717377635597,1691,31,22.385404425036327,45.37850376894564
0.4815170689197329,2.049051250907935,1691,31,22.385404425036327,45.37850376894564
0.5020031082028983,2.0490307643306194,1691,31,22.385404425036327,45.37850376894564
0.5224888848767332,2.049010278025955,1691,31,22.385404425036327,45.37850376894564
0.5429744033908623,2.0489897919887206,1691,31,22.385404425036327,45.37850376894564
0.5634596678527072,2.0489693062140955,1691,31,22.385404425036327,45.37850376894564
0.5839446820538144,2.0489488206976296,1691,31,22.385404425036327,45.37850376894564
0.6044294494941618,2.0489283354352166,1691,31,22.385404425036327,45.37850376894564
0.6249139734045901,2.048907850423064,1691,31,22.385404425036327,45.37850376894564
0.6453982567675116,2.0488873656576723,1691,31,22.385404425036327,45.37850376894564
0.6658823023360251,2.0488668811358104,1691,31,22.385404425036327,45.37850376894564
0.6863661126515587,2.0488463968544957,1691,31,22.385404425036327,45.37850376894564
0.7068496900601566,2.0488259128109756,1691,31,22.385404425036327,45.37850376894564
0.7273330367275128,2.0488054290027087,1691,31,22.385404425036327,45.37850376894564
0.7478161546528459,2.0487849454273483,1691,31,22.385404425036327,45.37850376894564
0.7682990456817095,2.0487644620827297,1691,31,22.385404425036327,45.37850376894564
0.7887817115178156,2.0487439789668525,1691,31,22.385404425036327,45.37850376894564
0.809264153733946,2.048723496077872,1691,31,22.385404425036327,45.37850376894564
0.8297463737820289,2.0487030134140842,1691,31,22.385404425036327,45.37850376894564
0.8502283730024355,2.0486825309739163,1691,31,22.385404425036327,45.37850376894564
0.870710152632565,2.0486620487559164,1691,31,22.385404425036327,45.37850376894564
0.8911917138147661,2.0486415667587443,1691,31,22.385404425036327,45.37850376894564
0.9116730576036514,2.0486210849811624,1691,31,22.385404425036327,45.37850376894564
0.9321541849728469,2.0486006034220283,1691,31,22.385404425036327,45.37850376894564
0.952635096821224,2.0485801220802875,1691,31,22.385404425036327,45.37850376894564
0.9731157939786511,2.048559640954967,1691,31,22.385404425036327,45.37850376894564
0.9935962772113025,2.0485391600451663,1691,31,22.385404425036327,45.37850376894564
1.0140765472265598,2.048518679350057,1691,31,22.385404425036327,45.37850376894564
1.034556604677534,2.0484981988688724,1691,31,22.385404425036327,45.37850376894564
1.055036450167244,2.0484777186009056,1691,31,22.385404425036327,45.37850376894564
1.0755160842524671,2.0484572385455024,1691,31,22.385404425036327,45.37850376894564
1.0959955074472998,2.048436758702061,1691,31,22.385404425036327,45.37850376894564
1.1164747202264402,2.0484162790700235,1691,31,22.385404425036327,45.37850376894564
1.1369537230282205,2.0483957996488766,1691,31,22.385404425036327,45.37850376894564
1.1574325162574035,2.0483753204381454,1691,31,22.385404425036327,45.37850376894564
1.1779111002877671,2.0483548414373915,1691,31,22.385404425036327,45.37850376894564
1.198389475464488,2.0483343626462105,1691,31,22.385404425036327,45.37850376894564
1.2188676421063402,2.048313884064228,1691,31,22.385404425036327,45.37850376894564
1.2393456005077301,2.048293405691099,1691,31,22.385404425036327,45.37850376894564
1.2598233509405687,2.0482729275265052,1691,31,22.385404425036327,45.37850376894564
1.2803008936560027,2.0482524495701515,1691,31,22.385404425036327,45.37850376894564
1.3007782288860137,2.0482319718217665,1691,31,22.385404425036327,45.37850376894564
1.3212553568448908,2.048211494281099,1691,31,22.385404425036327,45.37850376894564
1.3417322777305933,2.0481910169479165,1691,31,22.385404425036327,45.37850376894564
1.3622089917260067,2.0481705398220056,1691,31,22.385404425036327,45.37850376894564
1.3826854990001023,2.0481500629031677,1691,31,22.385404425036327,45.37850376894564
1.4031617997090082,2.04812958619122,1691,31,22.385404425036327,45.37850376894564
1.4236378939969967,2.0481091096859934,1691,31,22.385404425036327,45.37850376894564
1.4441137819973977,2.0480886333873323,1691,31,22.385404425036327,45.37850376894564
1.464589463833439,2.048068157295092,1691,31,22.385404425036327,45.37850376894564
1.4850649396190254,2.0480476814091393,1691,31,22.385404425036327,45.37850376894564
1.5055402094594548,2.0480272057293507,1691,31,22.385404425036327,45.37850376894564
1.5260152734520807,2.048006730255613,1691,31,22.385404425036327,45.37850376894564
1.546490131686923,2.04798625498782,1691,31,22.385404425036327,45.37850376894564
1.5669647842472345,2.0479657799258746,1691,31,22.385404425036327,45.37850376894564
1.5874392312100178,2.0479453050696876,1691,31,22.385404425036327,45.37850376894564
1.6079134726465099,2.047924830419175,1691,31,22.385404425036327,45.37850376894564
1.628387508622623,2.0479043559742593,1691,31,22.385404425036327,45.37850376894564
1.6488613391993556,2.04788388173487,1691,31,22.385404425036327,45.37850376894564
1.669334964433171,2.0478634077009414,1691,31,22.385404425036327,45.37850376894564
1.6898083843763438,2.0478429338724125,1691,31,22.385404425036327,45.37850376894564
1.7102815990772866,2.047822460249226,1691,31,22.385404425036327,45.37850376894564
1.7307546085808423,2.04780198683133,1691,31,22.385404425036327,45.37850376894564
1.7512274129285614,2.0477815136186766,1691,31,22.385404425036327,45.37850376894564
1.7717000121589561,2.0477610406112206,1691,31,22.385404425036327,45.37850376894564
1.7921724063077311,2.04774056780892,1691,31,22.385404425036327,45.37850376894564
1.8126445954080028,2.0477200952117367,1691,31,22.385404425036327,45.37850376894564
1.833116579490496,2.0476996228196356,1691,31,22.385404425036327,45.37850376894564
1.8535883585837292,2.0476791506325824,1691,31,22.385404425036327,45.37850376894564
1.8740599327141843,2.047658678650547,1691,31,22.385404425036327,45.37850376894564
1.8945313019064633,2.047638206873501,1691,31,22.385404425036327,45.37850376894564
1.9150024661834315,2.0476177353014178,1691,31,22.385404425036327,45.37850376894564
1.9354734255663533,2.0475972639342728,1691,31,22.385404425036327,45.37850376894564
1.9559441800750148,2.047576792772043,1691,31,22.385404425036327,45.37850376894564
1.9764147297278356,2.047556321814707,1691,31,22.385404425036327,45.37850376894564
1.996885074541977,2.0475358510622454,1691,31,22.385404425036327,45.37850376894564
2.0173552145334375,2.04751538051464,1691,31,22.385404425036327,45.37850376894564
2.0378251497171402,2.047494910171873,1691,31,22.385404425036327,45.37850376894564
2.058294880107019,2.047474440033928,1691,31,22.385404425036327,45.37850376894564
2.0787644057160923,2.0474539701007917,1691,31,22.385404425036327,45.37850376894564
2.0992337265565344,2.0474335003724486,1691,31,22.385404425036327,45.37850376894564
2.119702842639741,2.0474130308488867,1691,31,22.385404425036327,45.37850376894564
2.1401717539763867,2.0473925615300934,1691,31,22.385404425036327,45.37850376894564
2.1606404605764857,2.047372092416057,1691,31,22.385404425036327,45.37850376894564
2.181108962449434,2.0473516235067675,1691,31,22.385404425036327,45.37850376894564
2.201577259604066,2.047331154802214,1691,31,22.385404425036327,45.37850376894564
2.2220453520486934,2.047310686302388,1691,31,22.385404425036327,45.37850376894564
2.242513239791143,2.0472902180072805,1691,31,22.385404425036327,45.37850376894564
2.2629809228388003,2.0472697499168824,1691,31,22.385404425036327,45.37850376894564
2.283448401198637,2.0472492820311867,1691,31,22.385404425036327,45.37850376894564
2.3039156748772482,2.047228814350186,1691,31,22.385404425036327,45.37850376894564
2.3243827438808777,2.047208346873873,1691,31,22.385404425036327,45.37850376894564
2.344849608215446,2.0471878796022414,1691,31,22.385404425036327,45.37850376894564
2.3653162678865765,2.047167412535284,1691,31,22.385404425036327,45.37850376894564
2.385782722899616,2.0471469456729965,1691,31,22.385404425036327,45.37850376894564
2.4062489732596584,2.0471264790153723,1691,31,22.385404425036327,45.37850376894564
2.4267150189715623,2.0471060125624057,1691,31,22.385404425036327,45.37850376894564
2.4471808600399707,2.0470855463140922,1691,31,22.385404425036327,45.37850376894564
2.4676464964693254,2.047065080270427,1691,31,22.385404425036327,45.37850376894564
2.4881119282638857,2.0470446144314054,1691,31,22.385404425036327,45.37850376894564
2.5085771554277385,2.0470241487970227,1691,31,22.385404425036327,45.37850376894564
2.5290421779648153,2.0470036833672745,1691,31,22.385404425036327,45.37850376894564
2.549506995878901,2.0469832181421572,1691,31,22.385404425036327,45.37850376894564
2.5699716091736486,2.0469627531216665,1691,31,22.385404425036327,45.37850376894564
2.590436017852586,2.0469422883057993,1691,31,22.385404425036327,45.37850376894564
2.6109002219191253,2.046921823694551,1691,31,22.385404425036327,45.37850376894564
2.6313642213765776,2.0469013592879186,1691,31,22.385404425036327,45.37850376894564
2.6518280162281536,2.0468808950858985,1691,31,22.385404425036327,45.37850376894564
2.6722916064769757,2.0468604310884873,1691,31,22.385404425036327,45.37850376894564
2.6927549921260816,2.046839967295682,1691,31,22.385404425036327,45.37850376894564
2.713218173178435,2.04681950370748,1691,31,22.385404425036327,45.37850376894564
2.733681149636927,2.046799040323877,1691,31,22.385404425036327,45.37850376894564
2.7541439215043853,2.046778577144871,1691,31,22.385404425036327,45.37850376894564
2.774606488783576,2.046758114170459,1691,31,22.385404425036327,45.37850376894564
2.7950688514772097,2.0467376514006377,1691,31,22.385404425036327,45.37850376894564
2.815531009587947,2.0467171888354048,1691,31,22.385404425036327,45.37850376894564
2.8359929631183998,2.0466967264747575,1691,31,22.385404425036327,45.37850376894564
2.856454712071137,2.046676264318693,1691,31,22.385404425036327,45.37850376894564
2.8769162564486876,2.046655802367209,1691,31,22.385404425036327,45.37850376894564
2.8973775962535426,2.0466353406203024,1691,31,22.385404425036327,45.37850376894564
2.917838731488159,2.046614879077971,1691,31,22.385404425036327,45.37850376894564
2.9382996621549635,2.0465944177402124,1691,31,22.385404425036327,45.37850376894564
2.9587603882563505,2.046573956607024,1691,31,22.385404425036327,45.37850376894564
2.9792209097946905,2.046553495678403,1691,31,22.385404425036327,45.37850376894564
2.9996812267723256,2.046533034954348,1691,31,22.385404425036327,45.37850376894564
3.020141339191578,2.0465125744348556,1691,31,22.385404425036327,45.37850376894564
3.0406012470547474,2.046492114119924,1691,31,22.385404425036327,45.37850376894564
3.061060950364115,2.046471654009551,1691,31,22.385404425036327,45.37850376894564
3.08152044912194,2.0464511941037338,1691,31,22.385404425036327,45.37850376894564
3.1019797433304706,2.0464307344024704,1691,31,22.385404425036327,45.37850376894564
3.1224388329919357,2.0464102749057584,1691,31,22.385404425036327,45.37850376894564
3.1428977181085505,2.046389815613596,1691,31,22.385404425036327,45.37850376894564
3.1633563986825184,2.0463693565259806,1691,31,22.385404425036327,45.37850376894564
3.183814874716029,2.04634889764291,1691,31,22.385404425036327,45.37850376894564
3.2042731462112615,2.0463284389643817,1691,31,22.385404425036327,45.37850376894564
3.224731213170386,2.046307980490394,1691,31,22.385404425036327,45.37850376894564
3.24518907559556,2.0462875222209447,1691,31,22.385404425036327,45.37850376894564
3.2656467334889347,2.0462670641560314,1691,31,22.385404425036327,45.37850376894564
3.286104186852653,2.046246606295652,1691,31,22.385404425036327,45.37850376894564
3.3065614356888484,2.0462261486398043,1691,31,22.385404425036327,45.37850376894564
3.327018479999649,2.0462056911884865,1691,31,22.385404425036327,45.37850376894564
3.347475319787178,2.046185233941696,1691,31,22.385404425036327,45.37850376894564
3.3679319550535483,2.046164776899431,1691,31,22.385404425036327,45.37850376894564
3.3883883858008716,2.046144320061689,1691,31,22.385404425036327,45.37850376894564
3.4088446120312526,2.0461238634284684,1691,31,22.385404425036327,45.37850376894564
3.4293006337467906,2.046103406999767,1691,31,22.385404425036327,45.37850376894564
3.4497564509495837,2.0460829507755824,1691,31,22.385404425036327,45.37850376894564
3.470212063641722,2.0460624947559123,1691,31,22.385404425036327,45.37850376894564
3.4906674718252946,2.0460420389407554,1691,31,22.385404425036327,45.37850376894564
3.5111226755023863,2.0460215833301088,1691,31,22.385404425036327,45.37850376894564
3.531577674675079,2.0460011279239705,1691,31,22.385404425036327,45.37850376894564
3.552032469345453,2.0459806727223393,1691,31,22.385404425036327,45.37850376894564
3.572487059515583,2.045960217725212,1691,31,22.385404425036327,45.37850376894564
3.5929414451875425,2.045939762932587,1691,31,22.385404425036327,45.37850376894564
3.6133956263634044,2.0459193083444625,1691,31,22.385404425036327,45.37850376894564
3.6338496030452374,2.045898853960836,1691,31,22.385404425036327,45.37850376894564
3.65430337523511,2.0458783997817056,1691,31,22.385404425036327,45.37850376894564
3.6747569429350873,2.0458579458070694,1691,31,22.385404425036327,45.37850376894564
3.695210306147232,2.0458374920369247,1691,31,22.385404425036327,45.37850376894564
3.7156634648736087,2.04581703847127,1691,31,22.385404425036327,45.37850376894564
3.736116419116278,2.0457965851101036,1691,31,22.385404425036327,45.37850376894564
3.7565691688772986,2.0457761319534224,1691,31,22.385404425036327,45.37850376894564
3.777021714158731,2.0457556790012252,1691,31,22.385404425036327,45.37850376894564
3.7974740549626302,2.0457352262535093,1691,31,22.385404425036327,45.37850376894564
3.817926191291055,2.0457147737102734,1691,31,22.385404425036327,45.37850376894564
3.8383781231460596,2.0456943213715144,1691,31,22.385404425036327,45.37850376894564
3.858829850529699,2.0456738692372314,1691,31,22.385404425036327,45.37850376894564
3.879281373444028,2.0456534173074217,1691,31,22.385404425036327,45.37850376894564
3.8997326918910975,2.045632965582083,1691,31,22.385404425036327,45.37850376894564
3.9201838058729614,2.0456125140612142,1691,31,22.385404425036327,45.37850376894564
3.94063471539167,2.045592062744812,1691,31,22.385404425036327,45.37850376894564
3.9610854204492756,2.0455716116328757,1691,31,22.385404425036327,45.37850376894564
3.9815359210478287,2.045551160725402,1691,31,22.385404425036327,45.37850376894564
4.001986217189379,2.0455307100223896,1691,31,22.385404425036327,45.37850376894564
4.022436308875975,2.045510259523836,1691,31,22.385404425036327,45.37850376894564
4.042886196109668,2.0454898092297396,1691,31,22.385404425036327,45.37850376894564
4.063335878892507,2.045469359140098,1691,31,22.385404425036327,45.37850376894564
4.083785357226537,2.045448909254909,1691,31,22.385404425036327,45.37850376894564
4.104234631113808,2.0454284595741714,1691,31,22.385404425036327,45.37850376894564
4.124683700556368,2.045408010097882,1691,31,22.385404425036327,45.37850376894564
4.145132565556263,2.04538756082604,1691,31,22.385404425036327,45.37850376894564
4.165581226115542,2.0453671117586425,1691,31,22.385404425036327,45.37850376894564
4.186029682236251,2.0453466628956876,1691,31,22.385404425036327,45.37850376894564
4.206477933920436,2.045326214237173,1691,31,22.385404425036327,45.37850376894564
4.226925981170143,2.0453057657830973,1691,31,22.385404425036327,45.37850376894564
4.24737382398742,2.045285317533458,1691,31,22.385404425036327,45.37850376894564
4.267821462374311,2.0452648694882534,1691,31,22.385404425036327,45.37850376894564
4.288268896332863,2.0452444216474808,1691,31,22.385404425036327,45.37850376894564
4.30871612586512,2.0452239740111384,1691,31,22.385404425036327,45.37850376894564
4.329163150973129,2.045203526579225,1691,31,22.385404425036327,45.37850376894564
4.349609971658935,2.0451830793517374,1691,31,22.385404425036327,45.37850376894564
4.370056587924583,2.0451626323286742,1691,31,22.385404425036327,45.37850376894564
4.390502999772117,2.045142185510033,1691,31,22.385404425036327,45.37850376894564
4.410949207203583,2.045121738895812,1691,31,22.385404425036327,45.37850376894564
4.431395210221027,2.045101292486009,1691,31,22.385404425036327,45.37850376894564
4.45184100882649,2.0450808462806225,1691,31,22.385404425036327,45.37850376894564
4.4722866030220185,2.0450604002796497,1691,31,22.385404425036327,45.37850376894564
4.49273199280966,2.0450399544830886,1691,31,22.385404425036327,45.37850376894564
4.513177178191454,2.0450195088909378,1691,31,22.385404425036327,45.37850376894564
4.5336221591694486,2.044999063503195,1691,31,22.385404425036327,45.37850376894564
4.554066935745686,2.0449786183198575,1691,31,22.385404425036327,45.37850376894564
4.574511507922211,2.044958173340924,1691,31,22.385404425036327,45.37850376894564
4.594955875701067,2.0449377285663926,1691,31,22.385404425036327,45.37850376894564
4.6154000390842995,2.04491728399626,1691,31,22.385404425036327,45.37850376894564
4.63584399807395,2.044896839630526,1691,31,22.385404425036327,45.37850376894564
4.656287752672067,2.044876395469187,1691,31,22.385404425036327,45.37850376894564
4.676731302880688,2.044855951512242,1691,31,22.385404425036327,45.37850376894564
4.697174648701861,2.0448355077596885,1691,31,22.385404425036327,45.37850376894564
4.717617790137628,2.044815064211524,1691,31,22.385404425036327,45.37850376894564
4.738060727190034,2.0447946208677474,1691,31,22.385404425036327,45.37850376894564
4.7585034598611236,2.044774177728356,1691,31,22.385404425036327,45.37850376894564
4.778945988152938,2.0447537347933475,1691,31,22.385404425036327,45.37850376894564
4.799388312067522,2.044733292062721,1691,31,22.385404425036327,45.37850376894564
4.819830431606919,2.0447128495364733,1691,31,22.385404425036327,45.37850376894564
4.8402723467731725,2.0446924072146033,1691,31,22.385404425036327,45.37850376894564
4.860714057568325,2.044671965097108,1691,31,22.385404425036327,45.37850376894564
4.8811555639944215,2.044651523183986,1691,31,22.385404425036327,45.37850376894564
