Vout,Iout,Irradiance,Temperature,MaxVoltage,MaxPower
0.007428638570782973,1.485742,1301,-4,19.808312914246414,29.038250907096383
0.022285778349790814,1.485742,1301,-4,19.808312914246414,29.038250907096383
0.03714261608687346,1.4857344227872291,1301,-4,19.808312914246414,29.038250907096383
0.05199909782234101,1.48571956564745,1301,-4,19.808312914246414,29.038250907096383
0.06685520592123066,1.4857047088104707,1301,-4,19.808312914246414,29.038250907096383
0.08171095770668144,1.4856898523302209,1301,-4,19.808312914246414,29.038250907096383
0.09656636916957072,1.4856749962236078,1301,-4,19.808312914246414,29.038250907096383
0.11142145507069157,1.485660140473308,1301,-4,19.808312914246414,29.038250907096383
0.12627622903523258,1.4856452850633306,1301,-4,19.808312914246414,29.038250907096383
0.14113070364015323,1.4856304299789151,1301,-4,19.808312914246414,29.038250907096383
0.1559848904948362,1.4856155752064362,1301,-4,19.808312914246414,29.038250907096383
0.17083880031553422,1.4856007207333168,1301,-4,19.808312914246414,29.038250907096383
0.1856924429940889,1.4855858665479476,1301,-4,19.808312914246414,29.038250907096383
0.20054582766136222,1.4855710126396122,1301,-4,19.808312914246414,29.038250907096383
0.2153989627457876,1.4855561589984192,1301,-4,19.808312914246414,29.038250907096383
0.2302518560274156,1.4855413056152373,1301,-4,19.808312914246414,29.038250907096383
0.24510451468780184,1.4855264524816383,1301,-4,19.808312914246414,29.038250907096383
0.25995694535605585,1.485511599589842,1301,-4,19.808312914246414,29.038250907096383
0.27480915415134743,1.4854967469326668,1301,-4,19.808312914246414,29.038250907096383
0.2896611467221418,1.4854818945034838,1301,-4,19.808312914246414,29.038250907096383
0.3045129282824167,1.4854670422961738,1301,-4,19.808312914246414,29.038250907096383
0.3193645036450926,1.4854521903050883,1301,-4,19.808312914246414,29.038250907096383
0.33421587725289037,1.4854373385250133,1301,-4,19.808312914246414,29.038250907096383
0.3490670532068151,1.4854224869511359,1301,-4,19.808312914246414,29.038250907096383
0.3639180352924483,1.4854076355790131,1301,-4,19.808312914246414,29.038250907096383
0.3787688270042174,1.4853927844045445,1301,-4,19.808312914246414,29.038250907096383
0.39361943156779655,1.4853779334239439,1301,-4,19.808312914246414,29.038250907096383
0.4084698519607868,1.4853630826337172,1301,-4,19.808312914246414,29.038250907096383
0.4233200909318009,1.4853482320306388,1301,-4,19.808312914246414,29.038250907096383
0.43817015101808404,1.485333381611731,1301,-4,19.808312914246414,29.038250907096383
0.45302003456177553,1.485318531374245,1301,-4,19.808312914246414,29.038250907096383
0.46786974372492124,1.4853036813156437,1301,-4,19.808312914246414,29.038250907096383
0.4827192805033299,1.485288831433585,1301,-4,19.808312914246414,29.038250907096383
0.4975686467393639,1.4852739817259069,1301,-4,19.808312914246414,29.038250907096383
0.5124178441337451,1.4852591321906135,1301,-4,19.808312914246414,29.038250907096383
0.527266874256454,1.4852442828258623,1301,-4,19.808312914246414,29.038250907096383
0.5421157385567882,1.485229433629953,1301,-4,19.808312914246414,29.038250907096383
0.5569644383726481,1.4852145846013152,1301,-4,19.808312914246414,29.038250907096383
0.5718129749391082,1.4851997357384998,1301,-4,19.808312914246414,29.038250907096383
0.586661349396329,1.4851848870401687,1301,-4,19.808312914246414,29.038250907096383
0.6015095627968589,1.4851700385050872,1301,-4,19.808312914246414,29.038250907096383
0.6163576161123758,1.485155190132115,1301,-4,19.808312914246414,29.038250907096383
0.6312055102399098,1.4851403419201992,1301,-4,19.808312914246414,29.038250907096383
0.6460532460075858,1.4851254938683685,1301,-4,19.808312914246414,29.038250907096383
0.6609008241799261,1.4851106459757257,1301,-4,19.808312914246414,29.038250907096383
0.675748245462743,1.485095798241443,1301,-4,19.808312914246414,29.038250907096383
0.6905955105076574,1.4850809506647553,1301,-4,19.808312914246414,29.038250907096383
0.7054426199162669,1.4850661032449572,1301,-4,19.808312914246414,29.038250907096383
0.7202895742439961,1.485051255981397,1301,-4,19.808312914246414,29.038250907096383
0.7351363740036478,1.4850364088734733,1301,-4,19.808312914246414,29.038250907096383
0.7499830196686837,1.4850215619206304,1301,-4,19.808312914246414,29.038250907096383
0.7648295116762507,1.4850067151223554,1301,-4,19.808312914246414,29.038250907096383
0.7796758504299748,1.484991868478175,1301,-4,19.808312914246414,29.038250907096383
0.7945220363025409,1.4849770219876521,1301,-4,19.808312914246414,29.038250907096383
0.8093680696380727,1.484962175650383,1301,-4,19.808312914246414,29.038250907096383
0.824213950754331,1.4849473294659952,1301,-4,19.808312914246414,29.038250907096383
0.8390596799447416,1.4849324834341442,1301,-4,19.808312914246414,29.038250907096383
0.8539052574802678,1.4849176375545126,1301,-4,19.808312914246414,29.038250907096383
0.8687506836111388,1.4849027918268067,1301,-4,19.808312914246414,29.038250907096383
0.8835959585684449,1.4848879462507558,1301,-4,19.808312914246414,29.038250907096383
0.8984410825656097,1.4848731008261096,1301,-4,19.808312914246414,29.038250907096383
0.9132860557997508,1.4848582555526368,1301,-4,19.808312914246414,29.038250907096383
0.9281308784529322,1.4848434104301242,1301,-4,19.808312914246414,29.038250907096383
0.9429755506933248,1.4848285654583746,1301,-4,19.808312914246414,29.038250907096383
0.957820072676274,1.4848137206372058,1301,-4,19.808312914246414,29.038250907096383
0.9726644445452861,1.48479887596645,1301,-4,19.808312914246414,29.038250907096383
0.987508666432941,1.4847840314459515,1301,-4,19.808312914246414,29.038250907096383
1.0023527384617312,1.484769187075567,1301,-4,19.808312914246414,29.038250907096383
1.0171966607448393,1.4847543428551637,1301,-4,19.808312914246414,29.038250907096383
1.0320404333868523,1.4847394987846194,1301,-4,19.808312914246414,29.038250907096383
1.0468840564844255,1.4847246548638209,1301,-4,19.808312914246414,29.038250907096383
1.0617275301268907,1.484709811092663,1301,-4,19.808312914246414,29.038250907096383
1.0765708543968215,1.48469496747105,1301,-4,19.808312914246414,29.038250907096383
1.091414029370551,1.4846801239988918,1301,-4,19.808312914246414,29.038250907096383
1.1062570551186544,1.4846652806761063,1301,-4,19.808312914246414,29.038250907096383
1.12109993170639,1.484650437502617,1301,-4,19.808312914246414,29.038250907096383
1.1359426591941102,1.4846355944783531,1301,-4,19.808312914246414,29.038250907096383
1.1507852376376364,1.4846207516032497,1301,-4,19.808312914246414,29.038250907096383
1.1656276670886108,1.4846059088772463,1301,-4,19.808312914246414,29.038250907096383
1.1804699475948155,1.484591066300287,1301,-4,19.808312914246414,29.038250907096383
1.1953120792004701,1.4845762238723204,1301,-4,19.808312914246414,29.038250907096383
1.210154061946506,1.4845613815932985,1301,-4,19.808312914246414,29.038250907096383
1.2249958958708198,1.484546539463177,1301,-4,19.808312914246414,29.038250907096383
1.2398375810085067,1.4845316974819152,1301,-4,19.808312914246414,29.038250907096383
1.2546791173920746,1.4845168556494752,1301,-4,19.808312914246414,29.038250907096383
1.2695205050516454,1.4845020139658216,1301,-4,19.808312914246414,29.038250907096383
1.2843617440151371,1.4844871724309223,1301,-4,19.808312914246414,29.038250907096383
1.2992028343084343,1.484472331044747,1301,-4,19.808312914246414,29.038250907096383
1.3140437759555426,1.4844574898072675,1301,-4,19.808312914246414,29.038250907096383
1.3288845689787365,1.4844426487184583,1301,-4,19.808312914246414,29.038250907096383
1.34372521339869,1.4844278077782953,1301,-4,19.808312914246414,29.038250907096383
1.3585657092346002,1.4844129669867563,1301,-4,19.808312914246414,29.038250907096383
1.3734060565043014,1.4843981263438204,1301,-4,19.808312914246414,29.038250907096383
1.3882462552243704,1.4843832858494685,1301,-4,19.808312914246414,29.038250907096383
1.403086305410222,1.484368445503683,1301,-4,19.808312914246414,29.038250907096383
1.4179262070761998,1.484353605306447,1301,-4,19.808312914246414,29.038250907096383
1.4327659602356566,1.484338765257745,1301,-4,19.808312914246414,29.038250907096383
1.4476055649010335,1.484323925357563,1301,-4,19.808312914246414,29.038250907096383
1.4624450210839277,1.4843090856058878,1301,-4,19.808312914246414,29.038250907096383
1.4772843287951578,1.4842942460027064,1301,-4,19.808312914246414,29.038250907096383
1.4921234880448249,1.4842794065480074,1301,-4,19.808312914246414,29.038250907096383
1.5069624988423669,1.4842645672417802,1301,-4,19.808312914246414,29.038250907096383
1.5218013611966088,1.4842497280840143,1301,-4,19.808312914246414,29.038250907096383
1.5366400751158116,1.4842348890747008,1301,-4,19.808312914246414,29.038250907096383
1.5514786406077146,1.4842200502138305,1301,-4,19.808312914246414,29.038250907096383
1.5663170576795757,1.4842052115013953,1301,-4,19.808312914246414,29.038250907096383
1.5811553263382088,1.484190372937387,1301,-4,19.808312914246414,29.038250907096383
1.5959934465900165,1.484175534521799,1301,-4,19.808312914246414,29.038250907096383
1.6108314184410235,1.4841606962546243,1301,-4,19.808312914246414,29.038250907096383
1.6256692418969056,1.4841458581358564,1301,-4,19.808312914246414,29.038250907096383
1.640506916963016,1.4841310201654891,1301,-4,19.808312914246414,29.038250907096383
1.6553444436444091,1.4841161823435172,1301,-4,19.808312914246414,29.038250907096383
1.6701818219458648,1.484101344669935,1301,-4,19.808312914246414,29.038250907096383
1.68501905187191,1.4840865071447373,1301,-4,19.808312914246414,29.038250907096383
1.6998561334268365,1.4840716697679195,1301,-4,19.808312914246414,29.038250907096383
1.7146930666147215,1.4840568325394772,1301,-4,19.808312914246414,29.038250907096383
1.7295298514394406,1.4840419954594062,1301,-4,19.808312914246414,29.038250907096383
1.7443664879046867,1.4840271585277018,1301,-4,19.808312914246414,29.038250907096383
1.7592029760139816,1.4840123217443608,1301,-4,19.808312914246414,29.038250907096383
1.774039315770692,1.4839974851093793,1301,-4,19.808312914246414,29.038250907096383
1.788875507178037,1.4839826486227536,1301,-4,19.808312914246414,29.038250907096383
1.8037115502391043,1.4839678122844806,1301,-4,19.808312914246414,29.038250907096383
1.8185474449568575,1.483952976094557,1301,-4,19.808312914246414,29.038250907096383
1.8333831913341458,1.4839381400529796,1301,-4,19.808312914246414,29.038250907096383
1.8482187893737136,1.4839233041597455,1301,-4,19.808312914246414,29.038250907096383
1.8630542390782079,1.4839084684148518,1301,-4,19.808312914246414,29.038250907096383
1.8778895404501872,1.4838936328182957,1301,-4,19.808312914246414,29.038250907096383
1.8927246934921258,1.4838787973700749,1301,-4,19.808312914246414,29.038250907096383
1.9075596982064231,1.4838639620701863,1301,-4,19.808312914246414,29.038250907096383
1.9223945545954066,1.483849126918628,1301,-4,19.808312914246414,29.038250907096383
1.9372292626613394,1.4838342919153973,1301,-4,19.808312914246414,29.038250907096383
1.9520638224064248,1.483819457060492,1301,-4,19.808312914246414,29.038250907096383
1.9668982338328103,1.4838046223539094,1301,-4,19.808312914246414,29.038250907096383
1.9817324969425918,1.4837897877956479,1301,-4,19.808312914246414,29.038250907096383
1.9965666117378194,1.4837749533857048,1301,-4,19.808312914246414,29.038250907096383
2.011400578220498,1.4837601191240786,1301,-4,19.808312914246414,29.038250907096383
2.026234396392594,1.4837452850107666,1301,-4,19.808312914246414,29.038250907096383
2.0410680662560345,1.4837304510457674,1301,-4,19.808312914246414,29.038250907096383
2.0559015878127136,1.4837156172290789,1301,-4,19.808312914246414,29.038250907096383
2.0707349610644945,1.4837007835606988,1301,-4,19.808312914246414,29.038250907096383
2.0855681860132087,1.4836859500406254,1301,-4,19.808312914246414,29.038250907096383
2.100401262660664,1.483671116668857,1301,-4,19.808312914246414,29.038250907096383
2.1152341910086396,1.4836562834453917,1301,-4,19.808312914246414,29.038250907096383
2.1300669710588958,1.4836414503702275,1301,-4,19.808312914246414,29.038250907096383
2.1448996028131684,1.483626617443363,1301,-4,19.808312914246414,29.038250907096383
2.1597320862731753,1.483611784664796,1301,-4,19.808312914246414,29.038250907096383
2.174564421440614,1.483596952034525,1301,-4,19.808312914246414,29.038250907096383
2.1893966083171694,1.4835821195525483,1301,-4,19.808312914246414,29.038250907096383
2.204228646904508,1.483567287218864,1301,-4,19.808312914246414,29.038250907096383
2.219060537204282,1.4835524550334707,1301,-4,19.808312914246414,29.038250907096383
2.233892279218132,1.4835376229963666,1301,-4,19.808312914246414,29.038250907096383
2.2487238729476866,1.4835227911075501,1301,-4,19.808312914246414,29.038250907096383
2.2635553183945603,1.4835079593670195,1301,-4,19.808312914246414,29.038250907096383
2.2783866155603603,1.4834931277747732,1301,-4,19.808312914246414,29.038250907096383
2.2932177644466836,1.4834782963308093,1301,-4,19.808312914246414,29.038250907096383
2.3080487650551174,1.4834634650351268,1301,-4,19.808312914246414,29.038250907096383
2.3228796173872417,1.4834486338877235,1301,-4,19.808312914246414,29.038250907096383
2.337710321444629,1.4834338028885983,1301,-4,19.808312914246414,29.038250907096383
2.3525408772288445,1.4834189720377493,1301,-4,19.808312914246414,29.038250907096383
2.367371284741447,1.483404141335175,1301,-4,19.808312914246414,29.038250907096383
2.382201543983989,1.4833893107808738,1301,-4,19.808312914246414,29.038250907096383
2.3970316549580195,1.4833744803748443,1301,-4,19.808312914246414,29.038250907096383
2.4118616176650796,1.483359650117085,1301,-4,19.808312914246414,29.038250907096383
2.426691432106708,1.4833448200075938,1301,-4,19.808312914246414,29.038250907096383
2.4415210982844378,1.48332999004637,1301,-4,19.808312914246414,29.038250907096383
2.4563506161997988,1.4833151602334111,1301,-4,19.808312914246414,29.038250907096383
2.4711799858543175,1.4833003305687165,1301,-4,19.808312914246414,29.038250907096383
2.4860092072495155,1.483285501052284,1301,-4,19.808312914246414,29.038250907096383
2.5008382803869136,1.4832706716841124,1301,-4,19.808312914246414,29.038250907096383
2.5156672052680267,1.4832558424642002,1301,-4,19.808312914246414,29.038250907096383
2.5304959818943704,1.4832410133925458,1301,-4,19.808312914246414,29.038250907096383
2.5453246102674556,1.4832261844691477,1301,-4,19.808312914246414,29.038250907096383
2.56015309038879,1.483211355694004,1301,-4,19.808312914246414,29.038250907096383
2.5749814222598824,1.483196527067114,1301,-4,19.808312914246414,29.038250907096383
2.589809605882238,1.4831816985884756,1301,-4,19.808312914246414,29.038250907096383
2.604637641257361,1.4831668702580874,1301,-4,19.808312914246414,29.038250907096383
2.6194655283867503,1.4831520420759479,1301,-4,19.808312914246414,29.038250907096383
2.634293267271909,1.4831372140420556,1301,-4,19.808312914246414,29.038250907096383
2.6491208579143337,1.483122386156409,1301,-4,19.808312914246414,29.038250907096383
2.663948300315523,1.4831075584190065,1301,-4,19.808312914246414,29.038250907096383
2.6787755944769733,1.483092730829847,1301,-4,19.808312914246414,29.038250907096383
2.69360274040018,1.4830779033889285,1301,-4,19.808312914246414,29.038250907096383
2.708429738086637,1.4830630760962498,1301,-4,19.808312914246414,29.038250907096383
2.723256587537837,1.4830482489518093,1301,-4,19.808312914246414,29.038250907096383
2.7380832887552735,1.4830334219556056,1301,-4,19.808312914246414,29.038250907096383
2.7529098417404367,1.4830185951076371,1301,-4,19.808312914246414,29.038250907096383
2.767736246494818,1.4830037684079025,1301,-4,19.808312914246414,29.038250907096383
2.782562503019908,1.4829889418564,1301,-4,19.808312914246414,29.038250907096383
2.7973886113171953,1.4829741154531282,1301,-4,19.808312914246414,29.038250907096383
2.812214571388168,1.4829592891980858,1301,-4,19.808312914246414,29.038250907096383
2.8270403832343165,1.4829444630912711,1301,-4,19.808312914246414,29.038250907096383
2.841866046857127,1.4829296371326828,1301,-4,19.808312914246414,29.038250907096383
2.856691562258088,1.4829148113223192,1301,-4,19.808312914246414,29.038250907096383
2.8715169294386858,1.482899985660179,1301,-4,19.808312914246414,29.038250907096383
2.886342148400407,1.4828851601462607,1301,-4,19.808312914246414,29.038250907096383
2.901167219144738,1.4828703347805627,1301,-4,19.808312914246414,29.038250907096383
2.9159921416731636,1.4828555095630835,1301,-4,19.808312914246414,29.038250907096383
2.9308169159871698,1.4828406844938218,1301,-4,19.808312914246414,29.038250907096383
2.945641542088242,1.4828258595727757,1301,-4,19.808312914246414,29.038250907096383
2.960466019977864,1.4828110347999444,1301,-4,19.808312914246414,29.038250907096383
2.9752903496575223,1.4827962101753256,1301,-4,19.808312914246414,29.038250907096383
2.9901145311287007,1.4827813856989185,1301,-4,19.808312914246414,29.038250907096383
3.004938564392883,1.4827665613707213,1301,-4,19.808312914246414,29.038250907096383
3.0197624494515534,1.4827517371907326,1301,-4,19.808312914246414,29.038250907096383
3.0345861863061954,1.482736913158951,1301,-4,19.808312914246414,29.038250907096383
3.0494097749582934,1.4827220892753745,1301,-4,19.808312914246414,29.038250907096383
3.0642332154093297,1.4827072655400024,1301,-4,19.808312914246414,29.038250907096383
3.079056507660788,1.4826924419528327,1301,-4,19.808312914246414,29.038250907096383
3.093879651714151,1.482677618513864,1301,-4,19.808312914246414,29.038250907096383
3.108702647570903,1.4826627952230949,1301,-4,19.808312914246414,29.038250907096383
3.1235254952325255,1.482647972080524,1301,-4,19.808312914246414,29.038250907096383
3.138348194700503,1.4826331490861495,1301,-4,19.808312914246414,29.038250907096383
3.153170745976317,1.4826183262399701,1301,-4,19.808312914246414,29.038250907096383
3.16799314906145,1.4826035035419844,1301,-4,19.808312914246414,29.038250907096383
3.1828154039573855,1.4825886809921909,1301,-4,19.808312914246414,29.038250907096383
3.197637510665604,1.482573858590588,1301,-4,19.808312914246414,29.038250907096383
3.2124594691875905,1.4825590363371743,1301,-4,19.808312914246414,29.038250907096383
3.2272812795248247,1.4825442142319485,1301,-4,19.808312914246414,29.038250907096383
3.24210294167879,1.4825293922749088,1301,-4,19.808312914246414,29.038250907096383
3.2569244556509687,1.4825145704660536,1301,-4,19.808312914246414,29.038250907096383
3.2717458214428423,1.482499748805382,1301,-4,19.808312914246414,29.038250907096383
3.286567039055893,1.482484927292892,1301,-4,19.808312914246414,29.038250907096383
3.3013881084916035,1.482470105928582,1301,-4,19.808312914246414,29.038250907096383
3.3162090297514544,1.4824552847124512,1301,-4,19.808312914246414,29.038250907096383
3.331029802836927,1.4824404636444977,1301,-4,19.808312914246414,29.038250907096383
3.345850427749505,1.48242564272472,1301,-4,19.808312914246414,29.038250907096383
3.3606709044906697,1.4824108219531167,1301,-4,19.808312914246414,29.038250907096383
3.3754912330619025,1.4823960013296862,1301,-4,19.808312914246414,29.038250907096383
3.390311413464684,1.482381180854427,1301,-4,19.808312914246414,29.038250907096383
3.4051314457004977,1.4823663605273378,1301,-4,19.808312914246414,29.038250907096383
3.419951329770824,1.482351540348417,1301,-4,19.808312914246414,29.038250907096383
3.4347710656771446,1.4823367203176634,1301,-4,19.808312914246414,29.038250907096383
3.44959065342094,1.482321900435075,1301,-4,19.808312914246414,29.038250907096383
3.4644100930036936,1.4823070807006506,1301,-4,19.808312914246414,29.038250907096383
3.479229384426887,1.482292261114389,1301,-4,19.808312914246414,29.038250907096383
3.4940485276919984,1.482277441676288,1301,-4,19.808312914246414,29.038250907096383
