Vout,Iout,Irradiance,Temperature,MaxVoltage,MaxPower
0.0105252787953962,2.105076,1821,3,20.326356730297903,42.37620802553292
0.03157564176382188,2.105076,1821,3,20.326356730297903,42.37620802553292
0.052625576783648355,2.1050652642136045,1821,3,20.326356730297903,42.37620802553292
0.07367500740200006,2.1050442138506362,1821,3,20.326356730297903,42.37620802553292
0.09472390863275092,2.10502316391669,1821,3,20.326356730297903,42.37620802553292
0.11577230502021897,2.1050021144881765,1821,3,20.326356730297903,42.37620802553292
0.1368202192211052,2.1049810655890506,1821,3,20.326356730297903,42.37620802553292
0.15786767214926356,2.1049600171947684,1821,3,20.326356730297903,42.37620802553292
0.17891468310956493,2.104938969282672,1821,3,20.326356730297903,42.37620802553292
0.19996126992169516,2.104917921831849,1821,3,20.326356730297903,42.37620802553292
0.22100744903442715,2.1048968748229933,1821,3,20.326356730297903,42.37620802553292
0.24205323563110115,2.1048758282382862,1821,3,20.326356730297903,42.37620802553292
0.2630986437269894,2.104854782061278,1821,3,20.326356730297903,42.37620802553292
0.28414368625916864,2.104833736276786,1821,3,20.326356730297903,42.37620802553292
0.30518837516947867,2.1048126908707947,1821,3,20.326356730297903,42.37620802553292
0.32623272148109694,2.104791645830367,1821,3,20.326356730297903,42.37620802553292
0.3472767353692223,2.1047706011435614,1821,3,20.326356730297903,42.37620802553292
0.3683204262263196,2.104749556799354,1821,3,20.326356730297903,42.37620802553292
0.38936380272234455,2.104728512787571,1821,3,20.326356730297903,42.37620802553292
0.41040687286033456,2.104707469098818,1821,3,20.326356730297903,42.37620802553292
0.4314496440277226,2.1046864257244264,1821,3,20.326356730297903,42.37620802553292
0.45249212304370273,2.1046653826563926,1821,3,20.326356730297903,42.37620802553292
0.47353431620295133,2.10464433988733,1821,3,20.326356730297903,42.37620802553292
0.49457622931598444,2.1046232974104178,1821,3,20.326356730297903,42.37620802553292
0.5156178677464095,2.104602255219363,1821,3,20.326356730297903,42.37620802553292
0.5366592364453113,2.104581213308354,1821,3,20.326356730297903,42.37620802553292
0.5577003399829924,2.104560171672028,1821,3,20.326356730297903,42.37620802553292
0.5787411825782708,2.1045391303054335,1821,3,20.326356730297903,42.37620802553292
0.5997817681255236,2.104518089204,1821,3,20.326356730297903,42.37620802553292
0.6208221002196507,2.1044970483635086,1821,3,20.326356730297903,42.37620802553292
0.641862182179116,2.1044760077800655,1821,3,20.326356730297903,42.37620802553292
0.6629020170672177,2.1044549674500757,1821,3,20.326356730297903,42.37620802553292
0.6839416077117209,2.10443392737022,1821,3,20.326356730297903,42.37620802553292
0.7049809567229793,2.104412887537436,1821,3,20.326356730297903,42.37620802553292
0.7260200665106644,2.1043918479488957,1821,3,20.326356730297903,42.37620802553292
0.7470589392992047,2.1043708086019883,1821,3,20.326356730297903,42.37620802553292
0.7680975771420403,2.1043497694943043,1821,3,20.326356730297903,42.37620802553292
0.7891359819347774,2.10432873062362,1821,3,20.326356730297903,42.37620802553292
0.810174155427334,2.104307691987881,1821,3,20.326356730297903,42.37620802553292
0.8312120992351473,2.1042866535851923,1821,3,20.326356730297903,42.37620802553292
0.8522498148495228,2.1042656154138033,1821,3,20.326356730297903,42.37620802553292
0.8732873036471842,2.1042445774720995,1821,3,20.326356730297903,42.37620802553292
0.89432456689909,2.1042235397585887,1821,3,20.326356730297903,42.37620802553292
0.91536160577857,2.104202502271895,1821,3,20.326356730297903,42.37620802553292
0.9363984213688388,2.104181465010747,1821,3,20.326356730297903,42.37620802553292
0.9574350146699282,2.104160427973971,1821,3,20.326356730297903,42.37620802553292
0.9784713866050879,2.1041393911604844,1821,3,20.326356730297903,42.37620802553292
0.9995075380266928,2.1041183545692874,1821,3,20.326356730297903,42.37620802553292
1.0205434697216966,2.1040973181994556,1821,3,20.326356730297903,42.37620802553292
1.041579182416666,2.104076282050138,1821,3,20.326356730297903,42.37620802553292
1.062614676782425,2.1040552461205464,1821,3,20.326356730297903,42.37620802553292
1.0836499534383455,2.104034210409955,1821,3,20.326356730297903,42.37620802553292
1.1046850129563066,2.104013174917693,1821,3,20.326356730297903,42.37620802553292
1.125719855864347,2.1039921396431405,1821,3,20.326356730297903,42.37620802553292
1.1467544826500395,2.1039711045857263,1821,3,20.326356730297903,42.37620802553292
1.1677888937636034,2.1039500697449216,1821,3,20.326356730297903,42.37620802553292
1.1888230896207796,2.1039290351202395,1821,3,20.326356730297903,42.37620802553292
1.2098570706054832,2.1039080007112294,1821,3,20.326356730297903,42.37620802553292
1.2308908370722516,2.1038869665174755,1821,3,20.326356730297903,42.37620802553292
1.2519243893485055,2.103865932538594,1821,3,20.326356730297903,42.37620802553292
1.2729577277366348,2.103844898774231,1821,3,20.326356730297903,42.37620802553292
1.2939908525159254,2.1038238652240584,1821,3,20.326356730297903,42.37620802553292
1.3150237639443354,2.1038028318877733,1821,3,20.326356730297903,42.37620802553292
1.3360564622601379,2.1037817987650973,1821,3,20.326356730297903,42.37620802553292
1.3570889476834331,2.1037607658557724,1821,3,20.326356730297903,42.37620802553292
1.3781212204175506,2.1037397331595598,1821,3,20.326356730297903,42.37620802553292
1.3991532806503346,2.10371870067624,1821,3,20.326356730297903,42.37620802553292
1.4201851285553393,2.103697668405609,1821,3,20.326356730297903,42.37620802553292
1.441216764292927,2.1036766363474797,1821,3,20.326356730297903,42.37620802553292
1.4622481880112834,2.103655604501678,1821,3,20.326356730297903,42.37620802553292
1.4832793998473537,2.1036345728680432,1821,3,20.326356730297903,42.37620802553292
1.5043103999277085,2.1036135414464283,1821,3,20.326356730297903,42.37620802553292
1.5253411883693415,2.1035925102366955,1821,3,20.326356730297903,42.37620802553292
1.5463717652804063,2.103571479238718,1821,3,20.326356730297903,42.37620802553292
1.5674021307608963,2.1035504484523795,1821,3,20.326356730297903,42.37620802553292
1.5884322849032741,2.1035294178775716,1821,3,20.326356730297903,42.37620802553292
1.6094622277930486,2.1035083875141942,1821,3,20.326356730297903,42.37620802553292
1.6304919595093126,2.103487357362155,1821,3,20.326356730297903,42.37620802553292
1.6515214801252334,2.1034663274213683,1821,3,20.326356730297903,42.37620802553292
1.6725507897085117,2.103445297691755,1821,3,20.326356730297903,42.37620802553292
1.6935798883218003,2.103424268173242,1821,3,20.326356730297903,42.37620802553292
1.7146087760230933,2.1034032388657615,1821,3,20.326356730297903,42.37620802553292
1.7356374528660843,2.103382209769251,1821,3,20.326356730297903,42.37620802553292
1.7566659189004976,2.103361180883653,1821,3,20.326356730297903,42.37620802553292
1.7776941741723926,2.103340152208913,1821,3,20.326356730297903,42.37620802553292
1.7987222187244476,2.1033191237449813,1821,3,20.326356730297903,42.37620802553292
1.8197500525962178,2.1032980954918123,1821,3,20.326356730297903,42.37620802553292
1.8407776758243775,2.1032770674493633,1821,3,20.326356730297903,42.37620802553292
1.86180508844294,2.103256039617594,1821,3,20.326356730297903,42.37620802553292
1.8828322904834647,2.103235011996469,1821,3,20.326356730297903,42.37620802553292
1.903859281975243,2.103213984585953,1821,3,20.326356730297903,42.37620802553292
1.9248860629454745,2.1031929573860153,1821,3,20.326356730297903,42.37620802553292
1.9459126334194286,2.103171930396626,1821,3,20.326356730297903,42.37620802553292
1.9669389934205914,2.1031509036177587,1821,3,20.326356730297903,42.37620802553292
1.9879651429708038,2.1031298770493874,1821,3,20.326356730297903,42.37620802553292
2.008991082090388,2.103108850691489,1821,3,20.326356730297903,42.37620802553292
2.030016810798264,2.1030878245440414,1821,3,20.326356730297903,42.37620802553292
2.0510423291120574,2.1030667986070246,1821,3,20.326356730297903,42.37620802553292
2.072067637048202,2.103045772880419,1821,3,20.326356730297903,42.37620802553292
2.093092734622024,2.103024747364208,1821,3,20.326356730297903,42.37620802553292
2.1141176218478352,2.1030037220583746,1821,3,20.326356730297903,42.37620802553292
2.135142298739009,2.1029826969629033,1821,3,20.326356730297903,42.37620802553292
2.156166765308049,2.1029616720777797,1821,3,20.326356730297903,42.37620802553292
2.1771910215666592,2.102940647402991,1821,3,20.326356730297903,42.37620802553292
2.1982150675258056,2.1029196229385247,1821,3,20.326356730297903,42.37620802553292
2.2192389031957713,2.1028985986843685,1821,3,20.326356730297903,42.37620802553292
2.2402625285862086,2.102877574640512,1821,3,20.326356730297903,42.37620802553292
2.2612859437061923,2.102856550806944,1821,3,20.326356730297903,42.37620802553292
2.282309148564257,2.102835527183656,1821,3,20.326356730297903,42.37620802553292
2.3033321431684444,2.1028145037706385,1821,3,20.326356730297903,42.37620802553292
2.324354927526339,2.102793480567883,1821,3,20.326356730297903,42.37620802553292
2.3453775016451024,2.102772457575381,1821,3,20.326356730297903,42.37620802553292
2.3663998655315077,2.1027514347931255,1821,3,20.326356730297903,42.37620802553292
2.387422019191968,2.102730412221109,1821,3,20.326356730297903,42.37620802553292
2.408443962632565,2.1027093898593248,1821,3,20.326356730297903,42.37620802553292
2.429465695859073,2.1026883677077666,1821,3,20.326356730297903,42.37620802553292
2.4504872188769866,2.102667345766428,1821,3,20.326356730297903,42.37620802553292
2.471508531691536,2.102646324035304,1821,3,20.326356730297903,42.37620802553292
2.492529634307712,2.1026253025143884,1821,3,20.326356730297903,42.37620802553292
2.513550526730283,2.102604281203676,1821,3,20.326356730297903,42.37620802553292
2.534571208963812,2.1025832601031618,1821,3,20.326356730297903,42.37620802553292
2.555591681012674,2.1025622392128414,1821,3,20.326356730297903,42.37620802553292
2.576611942881066,2.10254121853271,1821,3,20.326356730297903,42.37620802553292
2.597631994573026,2.1025201980627632,1821,3,20.326356730297903,42.37620802553292
2.618651836092443,2.102499177802997,1821,3,20.326356730297903,42.37620802553292
2.6396714674430672,2.1024781577534073,1821,3,20.326356730297903,42.37620802553292
2.660690888628522,2.10245713791399,1821,3,20.326356730297903,42.37620802553292
2.681710099652315,2.102436118284741,1821,3,20.326356730297903,42.37620802553292
2.702729100517845,2.1024150988656576,1821,3,20.326356730297903,42.37620802553292
2.7237478912284088,2.1023940796567357,1821,3,20.326356730297903,42.37620802553292
2.744766471787215,2.102373060657972,1821,3,20.326356730297903,42.37620802553292
2.7657848421973843,2.1023520418693638,1821,3,20.326356730297903,42.37620802553292
2.786803002461959,2.1023310232909065,1821,3,20.326356730297903,42.37620802553292
2.807820952583909,2.1023100049225985,1821,3,20.326356730297903,42.37620802553292
2.8288386925661393,2.1022889867644357,1821,3,20.326356730297903,42.37620802553292
2.84985622241149,2.1022679688164154,1821,3,20.326356730297903,42.37620802553292
2.870873542122747,2.102246951078535,1821,3,20.326356730297903,42.37620802553292
2.8918906517026417,2.1022259335507916,1821,3,20.326356730297903,42.37620802553292
2.9129075511538582,2.102204916233182,1821,3,20.326356730297903,42.37620802553292
2.933924240479034,2.102183899125704,1821,3,20.326356730297903,42.37620802553292
2.9549407196807658,2.1021628822283547,1821,3,20.326356730297903,42.37620802553292
2.975956988761614,2.102141865541131,1821,3,20.326356730297903,42.37620802553292
2.996973047724102,2.102120849064031,1821,3,20.326356730297903,42.37620802553292
3.0179888965707207,2.1020998327970517,1821,3,20.326356730297903,42.37620802553292
3.03900453530393,2.102078816740191,1821,3,20.326356730297903,42.37620802553292
3.0600199639261643,2.102057800893446,1821,3,20.326356730297903,42.37620802553292
3.0810351824398317,2.1020367852568143,1821,3,20.326356730297903,42.37620802553292
3.1020501908473146,2.1020157698302935,1821,3,20.326356730297903,42.37620802553292
3.1230649891509765,2.1019947546138815,1821,3,20.326356730297903,42.37620802553292
3.144079577353159,2.1019737396075757,1821,3,20.326356730297903,42.37620802553292
3.1650939554561863,2.1019527248113734,1821,3,20.326356730297903,42.37620802553292
3.1861081234623634,2.101931710225273,1821,3,20.326356730297903,42.37620802553292
3.207122081373981,2.1019106958492713,1821,3,20.326356730297903,42.37620802553292
3.228135829193316,2.1018896816833665,1821,3,20.326356730297903,42.37620802553292
3.2491493669226292,2.1018686677275564,1821,3,20.326356730297903,42.37620802553292
3.270162694564171,2.1018476539818383,1821,3,20.326356730297903,42.37620802553292
3.2911758121201795,2.1018266404462107,1821,3,20.326356730297903,42.37620802553292
3.3121887195928825,2.10180562712067,1821,3,20.326356730297903,42.37620802553292
3.3332014169844975,2.101784614005216,1821,3,20.326356730297903,42.37620802553292
3.3542139042972337,2.101763601099844,1821,3,20.326356730297903,42.37620802553292
3.375226181533291,2.101742588404554,1821,3,20.326356730297903,42.37620802553292
3.396238248694862,2.1017215759193424,1821,3,20.326356730297903,42.37620802553292
3.417250105784133,2.101700563644208,1821,3,20.326356730297903,42.37620802553292
3.438261752803283,2.1016795515791475,1821,3,20.326356730297903,42.37620802553292
3.4592731897544837,2.1016585397241596,1821,3,20.326356730297903,42.37620802553292
3.480284416639903,2.1016375280792414,1821,3,20.326356730297903,42.37620802553292
3.5012954334617037,2.1016165166443916,1821,3,20.326356730297903,42.37620802553292
3.5223062402220418,2.101595505419607,1821,3,20.326356730297903,42.37620802553292
3.5433168369230708,2.1015744944048866,1821,3,20.326356730297903,42.37620802553292
3.5643272235669388,2.1015534836002274,1821,3,20.326356730297903,42.37620802553292
3.585337400155792,2.1015324730056273,1821,3,20.326356730297903,42.37620802553292
3.6063473666917716,2.1015114626210845,1821,3,20.326356730297903,42.37620802553292
3.6273571231770156,2.1014904524465967,1821,3,20.326356730297903,42.37620802553292
3.64836666961366,2.101469442482162,1821,3,20.326356730297903,42.37620802553292
3.6693760060038363,2.1014484327277776,1821,3,20.326356730297903,42.37620802553292
3.6903851323496752,2.1014274231834422,1821,3,20.326356730297903,42.37620802553292
3.7113940486533052,2.101406413849153,1821,3,20.326356730297903,42.37620802553292
3.7324027549168504,2.101385404724908,1821,3,20.326356730297903,42.37620802553292
3.7534112511424356,2.1013643958107053,1821,3,20.326356730297903,42.37620802553292
3.7744195373321823,2.101343387106543,1821,3,20.326356730297903,42.37620802553292
3.7954276134882097,2.101322378612418,1821,3,20.326356730297903,42.37620802553292
3.816435479612638,2.101301370328329,1821,3,20.326356730297903,42.37620802553292
3.837443135707583,2.1012803622542737,1821,3,20.326356730297903,42.37620802553292
3.85845058177516,2.1012593543902502,1821,3,20.326356730297903,42.37620802553292
3.8794578178174848,2.101238346736256,1821,3,20.326356730297903,42.37620802553292
3.900464843836669,2.1012173392922895,1821,3,20.326356730297903,42.37620802553292
3.9214716598348254,2.1011963320583478,1821,3,20.326356730297903,42.37620802553292
3.942478265814066,2.101175325034429,1821,3,20.326356730297903,42.37620802553292
3.9634846617765005,2.101154318220532,1821,3,20.326356730297903,42.37620802553292
3.984490847724239,2.1011333116166533,1821,3,20.326356730297903,42.37620802553292
4.00549682365939,2.1011123052227916,1821,3,20.326356730297903,42.37620802553292
4.0265025895840605,2.1010912990389445,1821,3,20.326356730297903,42.37620802553292
4.047508145500358,2.10107029306511,1821,3,20.326356730297903,42.37620802553292
4.068513491410391,2.101049287301286,1821,3,20.326356730297903,42.37620802553292
4.089518627316264,2.10102828174747,1821,3,20.326356730297903,42.37620802553292
4.110523553220083,2.101007276403661,1821,3,20.326356730297903,42.37620802553292
4.131528269123953,2.1009862712698557,1821,3,20.326356730297903,42.37620802553292
4.152532775029978,2.1009652663460523,1821,3,20.326356730297903,42.37620802553292
4.173537070940265,2.100944261632249,1821,3,20.326356730297903,42.37620802553292
4.194541156856915,2.1009232571284433,1821,3,20.326356730297903,42.37620802553292
4.215545032782033,2.1009022528346337,1821,3,20.326356730297903,42.37620802553292
4.236548698717722,2.1008812487508175,1821,3,20.326356730297903,42.37620802553292
4.257552154666084,2.1008602448769924,1821,3,20.326356730297903,42.37620802553292
4.278555400629221,2.1008392412131576,1821,3,20.326356730297903,42.37620802553292
4.299558436609238,2.1008182377593094,1821,3,20.326356730297903,42.37620802553292
4.320561262608236,2.1007972345154466,1821,3,20.326356730297903,42.37620802553292
4.341563878628316,2.100776231481567,1821,3,20.326356730297903,42.37620802553292
4.362566284671578,2.1007552286576683,1821,3,20.326356730297903,42.37620802553292
4.383568480740128,2.1007342260437483,1821,3,20.326356730297903,42.37620802553292
4.404570466836065,2.1007132236398056,1821,3,20.326356730297903,42.37620802553292
4.425572242961487,2.1006922214458372,1821,3,20.326356730297903,42.37620802553292
4.446573809118499,2.1006712194618413,1821,3,20.326356730297903,42.37620802553292
4.467575165309201,2.100650217687816,1821,3,20.326356730297903,42.37620802553292
4.488576311535692,2.1006292161237594,1821,3,20.326356730297903,42.37620802553292
4.509577247800074,2.100608214769669,1821,3,20.326356730297903,42.37620802553292
4.530577974104446,2.1005872136255426,1821,3,20.326356730297903,42.37620802553292
4.551578490450909,2.1005662126913784,1821,3,20.326356730297903,42.37620802553292
4.572578796841564,2.100545211967174,1821,3,20.326356730297903,42.37620802553292
4.593578893278511,2.1005242114529277,1821,3,20.326356730297903,42.37620802553292
4.614578779763847,2.100503211148637,1821,3,20.326356730297903,42.37620802553292
4.635578456299676,2.1004822110543,1821,3,20.326356730297903,42.37620802553292
4.656577922888094,2.100461211169915,1821,3,20.326356730297903,42.37620802553292
4.6775771795312036,2.100440211495479,1821,3,20.326356730297903,42.37620802553292
4.698576226231102,2.1004192120309906,1821,3,20.326356730297903,42.37620802553292
4.719575062989891,2.100398212776448,1821,3,20.326356730297903,42.37620802553292
4.740573689809669,2.1003772137318477,1821,3,20.326356730297903,42.37620802553292
4.761572106692535,2.1003562148971886,1821,3,20.326356730297903,42.37620802553292
4.78257031364059,2.100335216272469,1821,3,20.326356730297903,42.37620802553292
4.80356831065593,2.100314217857686,1821,3,20.326356730297903,42.37620802553292
4.824566097740656,2.100293219652838,1821,3,20.326356730297903,42.37620802553292
4.845563674896869,2.100272221657922,1821,3,20.326356730297903,42.37620802553292
4.8665610421266665,2.100251223872937,1821,3,20.326356730297903,42.37620802553292
4.8875581994321475,2.1002302262978807,1821,3,20.326356730297903,42.37620802553292
4.908555146815411,2.100209228932751,1821,3,20.326356730297903,42.37620802553292
4.929551884278556,2.1001882317775453,1821,3,20.326356730297903,42.37620802553292
4.950548411823682,2.1001672348322615,1821,3,20.326356730297903,42.37620802553292
4.971544729452887,2.1001462380968983,1821,3,20.326356730297903,42.37620802553292
4.9925408371682725,2.100125241571453,1821,3,20.326356730297903,42.37620802553292
5.013536734971932,2.100104245255923,1821,3,20.326356730297903,42.37620802553292
5.0345324228659685,2.1000832491503076,1821,3,20.326356730297903,42.37620802553292
5.055527900852481,2.1000622532546034,1821,3,20.326356730297903,42.37620802553292
5.076523168933568,2.100041257568809,1821,3,20.326356730297903,42.37620802553292
5.097518227111326,2.1000202620929223,1821,3,20.326356730297903,42.37620802553292
