Vout,Iout,Irradiance,Temperature,MaxVoltage,MaxPower
0.01116262266708974,2.2325459999999997,1821,38,22.905173264881885,50.613212949444645
0.0334876615938111,2.2325459999999997,1821,38,22.905173264881885,50.613212949444645
0.05581224665809071,2.2325346141227325,1821,38,22.905173264881885,50.613212949444645
0.07813629677755368,2.232512289083806,1821,38,22.905173264881885,50.613212949444645
0.10045978545307319,2.23248996449988,1821,38,22.905173264881885,50.613212949444645
0.12278273871521492,2.2324676404519934,1821,38,22.905173264881885,50.613212949444645
0.14510518059262537,2.23244531696555,1821,38,22.905173264881885,50.613212949444645
0.16742713326556838,2.2324229940145206,1821,38,22.905173264881885,50.613212949444645
0.18974861720789496,2.2324006715748754,1821,38,22.905173264881885,50.613212949444645
0.21206965131833755,2.232378349624435,1821,38,22.905173264881885,50.613212949444645
0.23439025304170205,2.232356028142725,1821,38,22.905173264881885,50.613212949444645
0.2567104384807352,2.2323337071108464,1821,38,22.905173264881885,50.613212949444645
0.2790302224993849,2.232311386511355,1821,38,22.905173264881885,50.613212949444645
0.30134961881811473,2.232289066328148,1821,38,22.905173264881885,50.613212949444645
0.3236686401018864,2.2322667465463617,1821,38,22.905173264881885,50.613212949444645
0.34598729804137085,2.232244427152275,1821,38,22.905173264881885,50.613212949444645
0.3683056034279121,2.232222108133223,1821,38,22.905173264881885,50.613212949444645
0.390623566222723,2.2321997894775154,1821,38,22.905173264881885,50.613212949444645
0.4129411956207563,2.232177471174361,1821,38,22.905173264881885,50.613212949444645
0.43525850010966266,2.232155153213798,1821,38,22.905173264881885,50.613212949444645
0.45757548752421084,2.232132835586632,1821,38,22.905173264881885,50.613212949444645
0.479892165096522,2.2321105182843746,1821,38,22.905173264881885,50.613212949444645
0.5022085395024379,2.232088201299192,1821,38,22.905173264881885,50.613212949444645
0.5245246169043225,2.2320658846238515,1821,38,22.905173264881885,50.613212949444645
0.5468404029905691,2.2320435682516773,1821,38,22.905173264881885,50.613212949444645
0.5691559030120689,2.232021252176507,1821,38,22.905173264881885,50.613212949444645
0.5914711218158725,2.2319989363926522,1821,38,22.905173264881885,50.613212949444645
0.6137860638762629,2.2319766208948626,1821,38,22.905173264881885,50.613212949444645
0.636100733323436,2.2319543056782902,1821,38,22.905173264881885,50.613212949444645
0.6584151339699755,2.2319319907384614,1821,38,22.905173264881885,50.613212949444645
0.6807292693352908,2.2319096760712456,1821,38,22.905173264881885,50.613212949444645
0.7030431426681738,2.2318873616728307,1821,38,22.905173264881885,50.613212949444645
0.725356756967621,2.2318650475396966,1821,38,22.905173264881885,50.613212949444645
0.7476701150020525,2.2318427336685955,1821,38,22.905173264881885,50.613212949444645
0.7699832193270539,2.2318204200565273,1821,38,22.905173264881885,50.613212949444645
0.7922960723017516,2.231798106700724,1821,38,22.905173264881885,50.613212949444645
0.8146086761039282,2.2317757935986307,1821,38,22.905173264881885,50.613212949444645
0.8369210327439767,2.231753480747887,1821,38,22.905173264881885,50.613212949444645
0.8592331440777777,2.2317311681463163,1821,38,22.905173264881885,50.613212949444645
0.8815450118185905,2.231708855791908,1821,38,22.905173264881885,50.613212949444645
0.9038566375480235,2.2316865436828053,1821,38,22.905173264881885,50.613212949444645
0.9261680227261662,2.2316642318172955,1821,38,22.905173264881885,50.613212949444645
0.9484791687009381,2.2316419201937974,1821,38,22.905173264881885,50.613212949444645
0.9707900767167187,2.2316196088108504,1821,38,22.905173264881885,50.613212949444645
0.9931007479223151,2.231597297667107,1821,38,22.905173264881885,50.613212949444645
1.0154111833783148,2.231574986761322,1821,38,22.905173264881885,50.613212949444645
1.0377213840638735,2.2315526760923476,1821,38,22.905173264881885,50.613212949444645
1.0600313508829804,2.2315303656591228,1821,38,22.905173264881885,50.613212949444645
1.0823410846702424,2.2315080554606683,1821,38,22.905173264881885,50.613212949444645
1.1046505861962217,2.23148574549608,1821,38,22.905173264881885,50.613212949444645
1.126959856172364,2.2314634357645238,1821,38,22.905173264881885,50.613212949444645
1.1492688952555463,2.2314411262652287,1821,38,22.905173264881885,50.613212949444645
1.1715777040522768,2.2314188169974836,1821,38,22.905173264881885,50.613212949444645
1.1938862831225685,2.2313965079606315,1821,38,22.905173264881885,50.613212949444645
1.216194632983519,2.231374199154066,1821,38,22.905173264881885,50.613212949444645
1.2385027541126103,2.2313518905772263,1821,38,22.905173264881885,50.613212949444645
1.2608106469507574,2.231329582229596,1821,38,22.905173264881885,50.613212949444645
1.283118311905123,2.231307274110698,1821,38,22.905173264881885,50.613212949444645
1.305425749351713,2.2312849662200906,1821,38,22.905173264881885,50.613212949444645
1.3277329596377745,2.2312626585573674,1821,38,22.905173264881885,50.613212949444645
1.3500399430840084,2.2312403511221515,1821,38,22.905173264881885,50.613212949444645
1.372346699986612,2.231218043914096,1821,38,22.905173264881885,50.613212949444645
1.3946532306191648,2.2311957369328805,1821,38,22.905173264881885,50.613212949444645
1.4169595352343671,2.2311734301782087,1821,38,22.905173264881885,50.613212949444645
1.439265614065648,2.231151123649807,1821,38,22.905173264881885,50.613212949444645
1.4615714673286477,2.231128817347422,1821,38,22.905173264881885,50.613212949444645
1.4838770952225866,2.2311065112708217,1821,38,22.905173264881885,50.613212949444645
1.5061824979315275,2.2310842054197892,1821,38,22.905173264881885,50.613212949444645
1.5284876756255437,2.231061899794126,1821,38,22.905173264881885,50.613212949444645
1.5507926284617937,2.2310395943936476,1821,38,22.905173264881885,50.613212949444645
1.5730973565855153,2.231017289218184,1821,38,22.905173264881885,50.613212949444645
1.5954018601309434,2.2309949842675785,1821,38,22.905173264881885,50.613212949444645
1.6177061392221561,2.230972679541685,1821,38,22.905173264881885,50.613212949444645
1.640010193973856,2.2309503750403703,1821,38,22.905173264881885,50.613212949444645
1.6623140244920918,2.2309280707635097,1821,38,22.905173264881885,50.613212949444645
1.684617630874925,2.2309057667109884,1821,38,22.905173264881885,50.613212949444645
1.7069210132130426,2.2308834628827006,1821,38,22.905173264881885,50.613212949444645
1.729224171590326,2.230861159278548,1821,38,22.905173264881885,50.613212949444645
1.7515271060843733,2.2308388558984404,1821,38,22.905173264881885,50.613212949444645
1.773829816766985,2.2308165527422936,1821,38,22.905173264881885,50.613212949444645
1.7961323037046077,2.23079424981003,1821,38,22.905173264881885,50.613212949444645
1.818434566958747,2.2307719471015774,1821,38,22.905173264881885,50.613212949444645
1.8407366065863484,2.23074964461687,1821,38,22.905173264881885,50.613212949444645
1.8630384226401466,2.2307273423558462,1821,38,22.905173264881885,50.613212949444645
1.8853400151689907,2.230705040318449,1821,38,22.905173264881885,50.613212949444645
1.9076413842181423,2.2306827385046253,1821,38,22.905173264881885,50.613212949444645
1.9299425298295527,2.230660436914327,1821,38,22.905173264881885,50.613212949444645
1.9522434520421166,2.230638135547508,1821,38,22.905173264881885,50.613212949444645
1.974544150891907,2.2306158344041265,1821,38,22.905173264881885,50.613212949444645
1.9968446264123942,2.2305935334841442,1821,38,22.905173264881885,50.613212949444645
2.019144878634643,2.2305712327875242,1821,38,22.905173264881885,50.613212949444645
2.041444907587501,2.230548932314234,1821,38,22.905173264881885,50.613212949444645
2.0637447132977673,2.2305266320642416,1821,38,22.905173264881885,50.613212949444645
2.08604429579035,2.230504332037519,1821,38,22.905173264881885,50.613212949444645
2.1083436550884125,2.230482032234039,1821,38,22.905173264881885,50.613212949444645
2.1306427912135075,2.230459732653776,1821,38,22.905173264881885,50.613212949444645
2.152941704185702,2.230437433296708,1821,38,22.905173264881885,50.613212949444645
2.175240394023687,2.230415134162813,1821,38,22.905173264881885,50.613212949444645
2.197538860744891,2.2303928352520708,1821,38,22.905173264881885,50.613212949444645
2.219837104365571,2.2303705365644624,1821,38,22.905173264881885,50.613212949444645
2.2421351249009045,2.230348238099971,1821,38,22.905173264881885,50.613212949444645
2.264432922365073,2.2303259398585804,1821,38,22.905173264881885,50.613212949444645
2.2867304967713387,2.230303641840275,1821,38,22.905173264881885,50.613212949444645
2.3090278481321143,2.2302813440450406,1821,38,22.905173264881885,50.613212949444645
2.3313249764590287,2.230259046472864,1821,38,22.905173264881885,50.613212949444645
2.3536218817629884,2.2302367491237334,1821,38,22.905173264881885,50.613212949444645
2.3759185640542313,2.230214451997636,1821,38,22.905173264881885,50.613212949444645
2.3982150233423796,2.230192155094562,1821,38,22.905173264881885,50.613212949444645
2.4205112596364864,2.2301698584145004,1821,38,22.905173264881885,50.613212949444645
2.44280727294508,2.230147561957442,1821,38,22.905173264881885,50.613212949444645
2.465103063276203,2.230125265723377,1821,38,22.905173264881885,50.613212949444645
2.4873986306374523,2.2301029697122985,1821,38,22.905173264881885,50.613212949444645
2.5096939750360097,2.230080673924197,1821,38,22.905173264881885,50.613212949444645
2.531989096478678,2.230058378359065,1821,38,22.905173264881885,50.613212949444645
2.5542839949719065,2.230036083016896,1821,38,22.905173264881885,50.613212949444645
2.57657867052182,2.230013787897683,1821,38,22.905173264881885,50.613212949444645
2.598873123134243,2.2299914930014193,1821,38,22.905173264881885,50.613212949444645
2.6211673528147257,2.229969198328099,1821,38,22.905173264881885,50.613212949444645
2.6434613595685597,2.229946903877716,1821,38,22.905173264881885,50.613212949444645
2.6657551434008027,2.229924609650265,1821,38,22.905173264881885,50.613212949444645
2.688048704316293,2.2299023156457407,1821,38,22.905173264881885,50.613212949444645
2.71034204231967,2.229880021864138,1821,38,22.905173264881885,50.613212949444645
2.7326351574153867,2.229857728305452,1821,38,22.905173264881885,50.613212949444645
2.7549280496077255,2.2298354349696776,1821,38,22.905173264881885,50.613212949444645
2.777220718900809,2.2298131418568117,1821,38,22.905173264881885,50.613212949444645
2.799513165298616,2.2297908489668483,1821,38,22.905173264881885,50.613212949444645
2.82180538880499,2.229768556299785,1821,38,22.905173264881885,50.613212949444645
2.84409738942365,2.229746263855616,1821,38,22.905173264881885,50.613212949444645
2.866389167158199,2.229723971634339,1821,38,22.905173264881885,50.613212949444645
2.8886807220121375,2.2297016796359497,1821,38,22.905173264881885,50.613212949444645
2.9109720539888646,2.229679387860444,1821,38,22.905173264881885,50.613212949444645
2.933263163091691,2.2296570963078195,1821,38,22.905173264881885,50.613212949444645
2.9555540493238444,2.229634804978072,1821,38,22.905173264881885,50.613212949444645
2.9778447126884737,2.2296125138711984,1821,38,22.905173264881885,50.613212949444645
3.0001351531886584,2.2295902229871953,1821,38,22.905173264881885,50.613212949444645
3.0224253708274134,2.2295679323260598,1821,38,22.905173264881885,50.613212949444645
3.0447153656076913,2.2295456418877886,1821,38,22.905173264881885,50.613212949444645
3.0670051375323886,2.229523351672379,1821,38,22.905173264881885,50.613212949444645
3.089294686604353,2.229501061679828,1821,38,22.905173264881885,50.613212949444645
3.1115840128263823,2.229478771910132,1821,38,22.905173264881885,50.613212949444645
3.1338731162012308,2.229456482363289,1821,38,22.905173264881885,50.613212949444645
3.156161996731611,2.229434193039296,1821,38,22.905173264881885,50.613212949444645
3.178450654420201,2.2294119039381504,1821,38,22.905173264881885,50.613212949444645
3.200739089269642,2.2293896150598487,1821,38,22.905173264881885,50.613212949444645
3.2230273012825443,2.229367326404389,1821,38,22.905173264881885,50.613212949444645
3.245315290461489,2.2293450379717688,1821,38,22.905173264881885,50.613212949444645
3.267603056809029,2.2293227497619843,1821,38,22.905173264881885,50.613212949444645
3.2898906003276918,2.2293004617750345,1821,38,22.905173264881885,50.613212949444645
3.3121779210199844,2.2292781740109158,1821,38,22.905173264881885,50.613212949444645
3.3344650188883893,2.229255886469626,1821,38,22.905173264881885,50.613212949444645
3.3567518939353715,2.2292335991511623,1821,38,22.905173264881885,50.613212949444645
3.3790385461633767,2.2292113120555226,1821,38,22.905173264881885,50.613212949444645
3.4013249755748327,2.2291890251827042,1821,38,22.905173264881885,50.613212949444645
3.423611182172155,2.229166738532705,1821,38,22.905173264881885,50.613212949444645
3.4458971659577413,2.229144452105522,1821,38,22.905173264881885,50.613212949444645
3.468182926933979,2.2291221659011535,1821,38,22.905173264881885,50.613212949444645
3.4904684651032403,2.229099879919597,1821,38,22.905173264881885,50.613212949444645
3.5127537804678894,2.229077594160849,1821,38,22.905173264881885,50.613212949444645
3.535038873030277,2.2290553086249085,1821,38,22.905173264881885,50.613212949444645
3.5573237427927467,2.2290330233117723,1821,38,22.905173264881885,50.613212949444645
3.5796083897576314,2.2290107382214384,1821,38,22.905173264881885,50.613212949444645
3.6018928139272566,2.228988453353905,1821,38,22.905173264881885,50.613212949444645
3.62417701530394,2.228966168709168,1821,38,22.905173264881885,50.613212949444645
3.646460993889993,2.228943884287227,1821,38,22.905173264881885,50.613212949444645
3.6687447496877197,2.228921600088079,1821,38,22.905173264881885,50.613212949444645
3.6910282826994187,2.2288993161117214,1821,38,22.905173264881885,50.613212949444645
3.7133115929273837,2.228877032358152,1821,38,22.905173264881885,50.613212949444645
3.735594680373902,2.2288547488273687,1821,38,22.905173264881885,50.613212949444645
3.757877545041256,2.228832465519369,1821,38,22.905173264881885,50.613212949444645
3.7801601869317256,2.228810182434151,1821,38,22.905173264881885,50.613212949444645
3.802442606047586,2.228787899571712,1821,38,22.905173264881885,50.613212949444645
3.824724802391108,2.2287656169320496,1821,38,22.905173264881885,50.613212949444645
3.847006775964559,2.228743334515162,1821,38,22.905173264881885,50.613212949444645
3.8692885267702044,2.228721052321047,1821,38,22.905173264881885,50.613212949444645
3.891570054810305,2.228698770349702,1821,38,22.905173264881885,50.613212949444645
3.913851360087121,2.228676488601124,1821,38,22.905173264881885,50.613212949444645
3.9361324426029083,2.228654207075312,1821,38,22.905173264881885,50.613212949444645
3.9584133023599217,2.2286319257722638,1821,38,22.905173264881885,50.613212949444645
3.9806939393604135,2.228609644691976,1821,38,22.905173264881885,50.613212949444645
4.002974353606633,2.228587363834447,1821,38,22.905173264881885,50.613212949444645
4.025254545100828,2.228565083199675,1821,38,22.905173264881885,50.613212949444645
4.047534513845248,2.228542802787657,1821,38,22.905173264881885,50.613212949444645
4.069814259842135,2.2285205225983904,1821,38,22.905173264881885,50.613212949444645
4.092093783093735,2.2284982426318742,1821,38,22.905173264881885,50.613212949444645
4.11437308360229,2.2284759628881052,1821,38,22.905173264881885,50.613212949444645
4.1366521613700415,2.2284536833670816,1821,38,22.905173264881885,50.613212949444645
4.1589310163992295,2.228431404068801,1821,38,22.905173264881885,50.613212949444645
4.181209648692092,2.228409124993261,1821,38,22.905173264881885,50.613212949444645
4.203488058250869,2.22838684614046,1821,38,22.905173264881885,50.613212949444645
4.225766245077794,2.228364567510395,1821,38,22.905173264881885,50.613212949444645
4.248044209175107,2.228342289103064,1821,38,22.905173264881885,50.613212949444645
4.270321950545043,2.2283200109184653,1821,38,22.905173264881885,50.613212949444645
4.292599469189836,2.228297732956596,1821,38,22.905173264881885,50.613212949444645
4.314876765111722,2.2282754552174535,1821,38,22.905173264881885,50.613212949444645
4.3371538383129336,2.2282531777010366,1821,38,22.905173264881885,50.613212949444645
4.359430688795705,2.2282309004073424,1821,38,22.905173264881885,50.613212949444645
4.381707316562267,2.228208623336369,1821,38,22.905173264881885,50.613212949444645
4.403983721614851,2.2281863464881138,1821,38,22.905173264881885,50.613212949444645
4.426259903955692,2.2281640698625753,1821,38,22.905173264881885,50.613212949444645
4.448535863587017,2.2281417934597503,1821,38,22.905173264881885,50.613212949444645
4.4708116005110625,2.228119517279637,1821,38,22.905173264881885,50.613212949444645
4.493087114730054,2.2280972413222333,1821,38,22.905173264881885,50.613212949444645
4.515362406246223,2.228074965587537,1821,38,22.905173264881885,50.613212949444645
4.537637475061801,2.2280526900755455,1821,38,22.905173264881885,50.613212949444645
4.559912321179016,2.228030414786257,1821,38,22.905173264881885,50.613212949444645
4.582186944600096,2.2280081397196687,1821,38,22.905173264881885,50.613212949444645
4.604461345327274,2.2279858648757793,1821,38,22.905173264881885,50.613212949444645
4.626735523362776,2.2279635902545856,1821,38,22.905173264881885,50.613212949444645
4.649009478708834,2.227941315856086,1821,38,22.905173264881885,50.613212949444645
4.671283211367672,2.227919041680278,1821,38,22.905173264881885,50.613212949444645
4.693556721341519,2.2278967677271595,1821,38,22.905173264881885,50.613212949444645
4.715830008632606,2.227874493996728,1821,38,22.905173264881885,50.613212949444645
4.7381030732431615,2.2278522204889812,1821,38,22.905173264881885,50.613212949444645
4.760375915175408,2.227829947203918,1821,38,22.905173264881885,50.613212949444645
4.782648534431578,2.2278076741415345,1821,38,22.905173264881885,50.613212949444645
4.804920931013897,2.2277854013018294,1821,38,22.905173264881885,50.613212949444645
4.827193104924593,2.2277631286848005,1821,38,22.905173264881885,50.613212949444645
4.849465056165893,2.2277408562904455,1821,38,22.905173264881885,50.613212949444645
4.871736784740024,2.227718584118762,1821,38,22.905173264881885,50.613212949444645
4.894008290649214,2.227696312169748,1821,38,22.905173264881885,50.613212949444645
4.91627957389569,2.2276740404434014,1821,38,22.905173264881885,50.613212949444645
4.938550634481677,2.2276517689397193,1821,38,22.905173264881885,50.613212949444645
4.960821472409402,2.2276294976587,1821,38,22.905173264881885,50.613212949444645
4.9830920876810945,2.227607226600341,1821,38,22.905173264881885,50.613212949444645
5.00536248029898,2.2275849557646406,1821,38,22.905173264881885,50.613212949444645
5.027632650265285,2.2275626851515957,1821,38,22.905173264881885,50.613212949444645
5.049902597582234,2.2275404147612052,1821,38,22.905173264881885,50.613212949444645
5.0721723222520545,2.227518144593466,1821,38,22.905173264881885,50.613212949444645
5.094441824276975,2.227495874648376,1821,38,22.905173264881885,50.613212949444645
5.11671110365922,2.227473604925933,1821,38,22.905173264881885,50.613212949444645
5.138980160401016,2.227451335426135,1821,38,22.905173264881885,50.613212949444645
5.16124899450459,2.22742906614898,1821,38,22.905173264881885,50.613212949444645
5.183517605972168,2.2274067970944653,1821,38,22.905173264881885,50.613212949444645
5.205785994805975,2.2273845282625886,1821,38,22.905173264881885,50.613212949444645
5.228054161008238,2.227362259653348,1821,38,22.905173264881885,50.613212949444645
5.250322104581182,2.227339991266741,1821,38,22.905173264881885,50.613212949444645
5.272589825527036,2.2273177231027654,1821,38,22.905173264881885,50.613212949444645
