Vout,Iout,Irradiance,Temperature,MaxVoltage,MaxPower
0.008170931433351602,1.6342019999999997,1431,-4,19.803588632525834,31.971518107424757
0.02451264321179912,1.6342019999999997,1431,-4,19.803588632525834,31.971518107424757
0.040854022767345066,1.6341936656483664,1431,-4,19.803588632525834,31.971518107424757
0.05719501074847808,1.634177323936588,1431,-4,19.803588632525834,31.971518107424757
0.0735355877580946,1.6341609825578658,1431,-4,19.803588632525834,31.971518107424757
0.08987577285031599,1.6341446415715188,1431,-4,19.803588632525834,31.971518107424757
0.10621558361387828,1.6341283009961434,1431,-4,19.803588632525834,31.971518107424757
0.12255503628451926,1.6341119608126853,1431,-4,19.803588632525834,31.971518107424757
0.13889414584889906,1.6340956210035558,1431,-4,19.803588632525834,31.971518107424757
0.15523292614070652,1.6340792815525191,1431,-4,19.803588632525834,31.971518107424757
0.17157138992937013,1.6340629424445887,1431,-4,19.803588632525834,31.971518107424757
0.18790954900194415,1.634046603665931,1431,-4,19.803588632525834,31.971518107424757
0.20424741423869416,1.6340302652037761,1431,-4,19.803588632525834,31.971518107424757
0.22058499568286644,1.6340139270463374,1431,-4,19.803588632525834,31.971518107424757
0.23692230260508984,1.6339975891827345,1431,-4,19.803588632525834,31.971518107424757
0.25325934356282204,1.6339812516029242,1431,-4,19.803588632525834,31.971518107424757
0.26959612645522235,1.6339649142976358,1431,-4,19.803588632525834,31.971518107424757
0.28593265857380146,1.6339485772583118,1431,-4,19.803588632525834,31.971518107424757
0.30226894664917586,1.633932240477053,1431,-4,19.803588632525834,31.971518107424757
0.31860499689422334,1.6339159039465683,1431,-4,19.803588632525834,31.971518107424757
0.33494081504391854,1.6338995676601265,1431,-4,19.803588632525834,31.971518107424757
0.3512764063921039,1.633883231611515,1431,-4,19.803588632525834,31.971518107424757
0.367611775825431,1.633866895794999,1431,-4,19.803588632525834,31.971518107424757
0.3839469278546903,1.6338505602052844,1431,-4,19.803588632525834,31.971518107424757
0.4002818666437304,1.6338342248374846,1431,-4,19.803588632525834,31.971518107424757
0.4166165960361527,1.633817889687089,1431,-4,19.803588632525834,31.971518107424757
0.4329511195799513,1.6338015547499336,1431,-4,19.803588632525834,31.971518107424757
0.4492854405502578,1.6337852200221745,1431,-4,19.803588632525834,31.971518107424757
0.46561956197033555,1.6337688855002643,1431,-4,19.803588632525834,31.971518107424757
0.4819534866309591,1.6337525511809274,1431,-4,19.803588632525834,31.971518107424757
0.4982872171083016,1.633736217061141,1431,-4,19.803588632525834,31.971518107424757
0.5146207557804473,1.6337198831381137,1431,-4,19.803588632525834,31.971518107424757
0.5309541048426324,1.6337035494092698,1431,-4,19.803588632525834,31.971518107424757
0.5472872663213137,1.6336872158722309,1431,-4,19.803588632525834,31.971518107424757
0.563620242087155,1.633670882524802,1431,-4,19.803588632525834,31.971518107424757
0.5799530338670139,1.6336545493649568,1431,-4,19.803588632525834,31.971518107424757
0.5962856432550064,1.6336382163908243,1431,-4,19.803588632525834,31.971518107424757
0.61261807172272,1.6336218836006777,1431,-4,19.803588632525834,31.971518107424757
0.628950320628642,1.633605550992923,1431,-4,19.803588632525834,31.971518107424757
0.6452823912268609,1.6335892185660887,1431,-4,19.803588632525834,31.971518107424757
0.6616142846750994,1.633572886318816,1431,-4,19.803588632525834,31.971518107424757
0.6779460020421285,1.633556554249851,1431,-4,19.803588632525834,31.971518107424757
0.6942775443146121,1.633540222358036,1431,-4,19.803588632525834,31.971518107424757
0.7106089124034242,1.6335238906423022,1431,-4,19.803588632525834,31.971518107424757
0.7269401071494803,1.6335075591016628,1431,-4,19.803588632525834,31.971518107424757
0.74327112932912,1.6334912277352072,1431,-4,19.803588632525834,31.971518107424757
0.7596019796590756,1.6334748965420942,1431,-4,19.803588632525834,31.971518107424757
0.7759326588010589,1.633458565521548,1431,-4,19.803588632525834,31.971518107424757
0.7922631673659938,1.633442234672851,1431,-4,19.803588632525834,31.971518107424757
0.8085935059179243,1.633425903995342,1431,-4,19.803588632525834,31.971518107424757
0.824923674977622,1.6334095734884102,1431,-4,19.803588632525834,31.971518107424757
0.8412536750259143,1.6333932431514915,1431,-4,19.803588632525834,31.971518107424757
0.8575835065067593,1.6333769129840647,1431,-4,19.803588632525834,31.971518107424757
0.8739131698300813,1.6333605829856495,1431,-4,19.803588632525834,31.971518107424757
0.8902426653743901,1.6333442531558016,1431,-4,19.803588632525834,31.971518107424757
0.9065719934891985,1.6333279234941114,1431,-4,19.803588632525834,31.971518107424757
0.922901154497252,1.6333115940002,1431,-4,19.803588632525834,31.971518107424757
0.9392301486965894,1.6332952646737182,1431,-4,19.803588632525834,31.971518107424757
0.9555589763624435,1.633278935514343,1431,-4,19.803588632525834,31.971518107424757
0.9718876377489959,1.6332626065217766,1431,-4,19.803588632525834,31.971518107424757
0.9882161330909969,1.6332462776957437,1431,-4,19.803588632525834,31.971518107424757
1.0045444626052593,1.63322994903599,1431,-4,19.803588632525834,31.971518107424757
1.020872626492041,1.633213620542281,1431,-4,19.803588632525834,31.971518107424757
1.0372006249363162,1.6331972922143996,1431,-4,19.803588632525834,31.971518107424757
1.0535284581089523,1.6331809640521455,1431,-4,19.803588632525834,31.971518107424757
1.069856126167797,1.6331646360553342,1431,-4,19.803588632525834,31.971518107424757
1.0861836292586764,1.6331483082237943,1431,-4,19.803588632525834,31.971518107424757
1.1025109675163236,1.6331319805573683,1431,-4,19.803588632525834,31.971518107424757
1.1188381410652302,1.63311565305591,1431,-4,19.803588632525834,31.971518107424757
1.1351651500204343,1.6330993257192854,1431,-4,19.803588632525834,31.971518107424757
1.1514919944882491,1.6330829985473692,1431,-4,19.803588632525834,31.971518107424757
1.1678186745669332,1.6330666715400468,1431,-4,19.803588632525834,31.971518107424757
1.1841451903473106,1.6330503446972116,1431,-4,19.803588632525834,31.971518107424757
1.2004715419133423,1.6330340180187657,1431,-4,19.803588632525834,31.971518107424757
1.216797729342655,1.633017691504618,1431,-4,19.803588632525834,31.971518107424757
1.2331237527070285,1.6330013651546846,1431,-4,19.803588632525834,31.971518107424757
1.2494496120728453,1.6329850389688878,1431,-4,19.803588632525834,31.971518107424757
1.265775307501505,1.6329687129471562,1431,-4,19.803588632525834,31.971518107424757
1.2821008390498099,1.632952387089423,1431,-4,19.803588632525834,31.971518107424757
1.298426206770316,1.632936061395627,1431,-4,19.803588632525834,31.971518107424757
1.3147514107116622,1.6329197358657113,1431,-4,19.803588632525834,31.971518107424757
1.3310764509188702,1.6329034104996232,1431,-4,19.803588632525834,31.971518107424757
1.347401327433623,1.6328870852973145,1431,-4,19.803588632525834,31.971518107424757
1.363726040294522,1.6328707602587398,1431,-4,19.803588632525834,31.971518107424757
1.380050589537324,1.6328544353838577,1431,-4,19.803588632525834,31.971518107424757
1.3963749751951615,1.632838110672629,1431,-4,19.803588632525834,31.971518107424757
1.4126991972987408,1.632821786125019,1431,-4,19.803588632525834,31.971518107424757
1.4290232558765332,1.6328054617409935,1431,-4,19.803588632525834,31.971518107424757
1.4453471509549438,1.6327891375205223,1431,-4,19.803588632525834,31.971518107424757
1.461670882558472,1.632772813463577,1431,-4,19.803588632525834,31.971518107424757
1.477994450709858,1.632756489570131,1431,-4,19.803588632525834,31.971518107424757
1.494317855430217,1.63274016584016,1431,-4,19.803588632525834,31.971518107424757
1.5106410967391657,1.632723842273641,1431,-4,19.803588632525834,31.971518107424757
1.526964174654937,1.6327075188705529,1431,-4,19.803588632525834,31.971518107424757
1.543287089194486,1.6326911956308763,1431,-4,19.803588632525834,31.971518107424757
1.5596098403735896,1.632674872554593,1431,-4,19.803588632525834,31.971518107424757
1.5759324282069354,1.6326585496416857,1431,-4,19.803588632525834,31.971518107424757
1.5922548527082068,1.6326422268921388,1431,-4,19.803588632525834,31.971518107424757
1.60857711389016,1.632625904305938,1431,-4,19.803588632525834,31.971518107424757
1.6248992117646957,1.6326095818830688,1431,-4,19.803588632525834,31.971518107424757
1.641221146342923,1.632593259623519,1431,-4,19.803588632525834,31.971518107424757
1.657542917635223,1.6325769375272767,1431,-4,19.803588632525834,31.971518107424757
1.6738645256513032,1.6325606155943309,1431,-4,19.803588632525834,31.971518107424757
1.6901859704002498,1.6325442938246708,1431,-4,19.803588632525834,31.971518107424757
1.7065072518905755,1.6325279722182868,1431,-4,19.803588632525834,31.971518107424757
1.7228283701302631,1.63251165077517,1431,-4,19.803588632525834,31.971518107424757
1.7391493251268073,1.632495329495312,1431,-4,19.803588632525834,31.971518107424757
1.7554701168872502,1.6324790083787044,1431,-4,19.803588632525834,31.971518107424757
1.7717907454182205,1.63246268742534,1431,-4,19.803588632525834,31.971518107424757
1.7881112107259587,1.6324463666352116,1431,-4,19.803588632525834,31.971518107424757
1.8044315128163533,1.6324300460083128,1431,-4,19.803588632525834,31.971518107424757
1.8207516516949644,1.6324137255446372,1431,-4,19.803588632525834,31.971518107424757
1.8370716273670495,1.6323974052441788,1431,-4,19.803588632525834,31.971518107424757
1.8533914398375881,1.6323810851069323,1431,-4,19.803588632525834,31.971518107424757
1.8697110891113007,1.632364765132892,1431,-4,19.803588632525834,31.971518107424757
1.8860305751926714,1.6323484453220536,1431,-4,19.803588632525834,31.971518107424757
1.9023498980859634,1.6323321256744119,1431,-4,19.803588632525834,31.971518107424757
1.9186690577952386,1.6323158061899625,1431,-4,19.803588632525834,31.971518107424757
1.9349880543243712,1.632299486868701,1431,-4,19.803588632525834,31.971518107424757
1.951306887677063,1.6322831677106238,1431,-4,19.803588632525834,31.971518107424757
1.9676255578568562,1.6322668487157266,1431,-4,19.803588632525834,31.971518107424757
1.9839440648671463,1.632250529884006,1431,-4,19.803588632525834,31.971518107424757
2.000262408711193,1.632234211215458,1431,-4,19.803588632525834,31.971518107424757
2.01658058939213,1.6322178927100797,1431,-4,19.803588632525834,31.971518107424757
2.0328986069129766,1.6322015743678675,1431,-4,19.803588632525834,31.971518107424757
2.0492164612766444,1.6321852561888184,1431,-4,19.803588632525834,31.971518107424757
2.0655341524859465,1.6321689381729294,1431,-4,19.803588632525834,31.971518107424757
2.081851680543606,1.6321526203201975,1431,-4,19.803588632525834,31.971518107424757
2.0981690454522597,1.63213630263062,1431,-4,19.803588632525834,31.971518107424757
2.11448624721447,1.632119985104194,1431,-4,19.803588632525834,31.971518107424757
2.130803285832725,1.632103667740917,1431,-4,19.803588632525834,31.971518107424757
2.1471201613094486,1.6320873505407867,1431,-4,19.803588632525834,31.971518107424757
2.1634368736470027,1.6320710335038002,1431,-4,19.803588632525834,31.971518107424757
2.1797534228476922,1.6320547166299553,1431,-4,19.803588632525834,31.971518107424757
2.196069808913773,1.6320383999192494,1431,-4,19.803588632525834,31.971518107424757
2.2123860318474495,1.6320220833716803,1431,-4,19.803588632525834,31.971518107424757
2.2287020916508844,1.6320057669872459,1431,-4,19.803588632525834,31.971518107424757
2.245017988326198,1.6319894507659438,1431,-4,19.803588632525834,31.971518107424757
2.2613337218754745,1.6319731347077722,1431,-4,19.803588632525834,31.971518107424757
2.277649292300761,1.6319568188127285,1431,-4,19.803588632525834,31.971518107424757
2.293964699604075,1.6319405030808107,1431,-4,19.803588632525834,31.971518107424757
2.3102799437874015,1.6319241875120172,1431,-4,19.803588632525834,31.971518107424757
2.3265950248527005,1.6319078721063454,1431,-4,19.803588632525834,31.971518107424757
2.342909942801905,1.6318915568637935,1431,-4,19.803588632525834,31.971518107424757
2.3592246976369275,1.6318752417843598,1431,-4,19.803588632525834,31.971518107424757
2.3755392893596556,1.6318589268680421,1431,-4,19.803588632525834,31.971518107424757
2.3918537179719577,1.6318426121148386,1431,-4,19.803588632525834,31.971518107424757
2.408167983475686,1.6318262975247473,1431,-4,19.803588632525834,31.971518107424757
2.424482085872674,1.6318099830977666,1431,-4,19.803588632525834,31.971518107424757
2.44079602516474,1.6317936688338943,1431,-4,19.803588632525834,31.971518107424757
2.457109801353686,1.6317773547331287,1431,-4,19.803588632525834,31.971518107424757
2.4734234144413043,1.6317610407954681,1431,-4,19.803588632525834,31.971518107424757
2.489736864429372,1.6317447270209104,1431,-4,19.803588632525834,31.971518107424757
2.5060501513196565,1.6317284134094543,1431,-4,19.803588632525834,31.971518107424757
2.5223632751139142,1.6317120999610977,1431,-4,19.803588632525834,31.971518107424757
2.53867623581389,1.6316957866758388,1431,-4,19.803588632525834,31.971518107424757
2.554989033421323,1.6316794735536757,1431,-4,19.803588632525834,31.971518107424757
2.571301667937942,1.6316631605946073,1431,-4,19.803588632525834,31.971518107424757
2.5876141393654684,1.631646847798631,1431,-4,19.803588632525834,31.971518107424757
2.6039264477056183,1.6316305351657456,1431,-4,19.803588632525834,31.971518107424757
2.6202385929600984,1.6316142226959494,1431,-4,19.803588632525834,31.971518107424757
2.6365505751306104,1.6315979103892406,1431,-4,19.803588632525834,31.971518107424757
2.652862394218853,1.6315815982456174,1431,-4,19.803588632525834,31.971518107424757
2.6691740502265167,1.631565286265078,1431,-4,19.803588632525834,31.971518107424757
2.685485543155288,1.631548974447621,1431,-4,19.803588632525834,31.971518107424757
2.7017968730068502,1.6315326627932445,1431,-4,19.803588632525834,31.971518107424757
2.718108039782881,1.631516351301947,1431,-4,19.803588632525834,31.971518107424757
2.734419043485055,1.6315000399737265,1431,-4,19.803588632525834,31.971518107424757
2.750729884115044,1.6314837288085817,1431,-4,19.803588632525834,31.971518107424757
2.7670405616745164,1.6314674178065107,1431,-4,19.803588632525834,31.971518107424757
2.783351076165137,1.6314511069675117,1431,-4,19.803588632525834,31.971518107424757
2.7996614275885676,1.6314347962915834,1431,-4,19.803588632525834,31.971518107424757
2.8159716159464705,1.631418485778724,1431,-4,19.803588632525834,31.971518107424757
2.8322816412405016,1.6314021754289316,1431,-4,19.803588632525834,31.971518107424757
2.8485915034723157,1.6313858652422046,1431,-4,19.803588632525834,31.971518107424757
2.864901202643569,1.6313695552185417,1431,-4,19.803588632525834,31.971518107424757
2.8812107387559105,1.631353245357941,1431,-4,19.803588632525834,31.971518107424757
2.8975201118109917,1.6313369356604006,1431,-4,19.803588632525834,31.971518107424757
2.9138293218104616,1.6313206261259192,1431,-4,19.803588632525834,31.971518107424757
2.930138368755967,1.6313043167544952,1431,-4,19.803588632525834,31.971518107424757
2.946447252649154,1.6312880075461267,1431,-4,19.803588632525834,31.971518107424757
2.9627559734916664,1.631271698500812,1431,-4,19.803588632525834,31.971518107424757
2.9790645312851476,1.6312553896185498,1431,-4,19.803588632525834,31.971518107424757
2.9953729260312407,1.6312390808993382,1431,-4,19.803588632525834,31.971518107424757
3.0116811577315876,1.6312227723431756,1431,-4,19.803588632525834,31.971518107424757
3.0279892263878274,1.6312064639500603,1431,-4,19.803588632525834,31.971518107424757
3.044297132001601,1.6311901557199908,1431,-4,19.803588632525834,31.971518107424757
3.060604874574547,1.6311738476529656,1431,-4,19.803588632525834,31.971518107424757
3.076912454108304,1.6311575397489826,1431,-4,19.803588632525834,31.971518107424757
3.093219870604509,1.6311412320080403,1431,-4,19.803588632525834,31.971518107424757
3.1095271240647997,1.6311249244301373,1431,-4,19.803588632525834,31.971518107424757
3.125834214490812,1.631108617015272,1431,-4,19.803588632525834,31.971518107424757
3.1421411418841823,1.6310923097634424,1431,-4,19.803588632525834,31.971518107424757
3.158447906246546,1.6310760026746471,1431,-4,19.803588632525834,31.971518107424757
3.174754507579538,1.6310596957488845,1431,-4,19.803588632525834,31.971518107424757
3.1910609458847925,1.6310433889861529,1431,-4,19.803588632525834,31.971518107424757
3.207367221163945,1.6310270823864506,1431,-4,19.803588632525834,31.971518107424757
3.223673333418628,1.631010775949776,1431,-4,19.803588632525834,31.971518107424757
3.239979282650476,1.6309944696761276,1431,-4,19.803588632525834,31.971518107424757
3.256285068861122,1.6309781635655034,1431,-4,19.803588632525834,31.971518107424757
3.2725906920521988,1.6309618576179024,1431,-4,19.803588632525834,31.971518107424757
3.288896152225339,1.6309455518333222,1431,-4,19.803588632525834,31.971518107424757
3.3052014493821757,1.6309292462117617,1431,-4,19.803588632525834,31.971518107424757
3.321506583524341,1.6309129407532192,1431,-4,19.803588632525834,31.971518107424757
3.3378115546534675,1.6308966354576928,1431,-4,19.803588632525834,31.971518107424757
3.3541163627711854,1.6308803303251813,1431,-4,19.803588632525834,31.971518107424757
3.3704210078791275,1.6308640253556828,1431,-4,19.803588632525834,31.971518107424757
3.386725489978925,1.6308477205491956,1431,-4,19.803588632525834,31.971518107424757
3.4030298090722093,1.630831415905718,1431,-4,19.803588632525834,31.971518107424757
3.4193339651606123,1.6308151114252487,1431,-4,19.803588632525834,31.971518107424757
3.4356379582457643,1.630798807107786,1431,-4,19.803588632525834,31.971518107424757
3.451941788329296,1.630782502953328,1431,-4,19.803588632525834,31.971518107424757
3.4682454554128395,1.6307661989618731,1431,-4,19.803588632525834,31.971518107424757
3.4845489594980243,1.63074989513342,1431,-4,19.803588632525834,31.971518107424757
3.500852300586482,1.630733591467967,1431,-4,19.803588632525834,31.971518107424757
3.5171554786798422,1.630717287965512,1431,-4,19.803588632525834,31.971518107424757
3.5334584937797353,1.630700984626054,1431,-4,19.803588632525834,31.971518107424757
3.549761345887793,1.630684681449591,1431,-4,19.803588632525834,31.971518107424757
3.5660640350056436,1.6306683784361216,1431,-4,19.803588632525834,31.971518107424757
3.5823665611349194,1.6306520755856437,1431,-4,19.803588632525834,31.971518107424757
3.598668924277249,1.6306357728981562,1431,-4,19.803588632525834,31.971518107424757
3.6149711244342635,1.6306194703736572,1431,-4,19.803588632525834,31.971518107424757
3.631273161607593,1.630603168012145,1431,-4,19.803588632525834,31.971518107424757
3.647575035798866,1.6305868658136184,1431,-4,19.803588632525834,31.971518107424757
3.663876747009713,1.6305705637780754,1431,-4,19.803588632525834,31.971518107424757
3.6801782952417645,1.6305542619055142,1431,-4,19.803588632525834,31.971518107424757
3.69647968049665,1.6305379601959336,1431,-4,19.803588632525834,31.971518107424757
3.7127809027759993,1.6305216586493319,1431,-4,19.803588632525834,31.971518107424757
3.7290819620814415,1.6305053572657071,1431,-4,19.803588632525834,31.971518107424757
3.745382858414607,1.6304890560450578,1431,-4,19.803588632525834,31.971518107424757
3.7616835917771256,1.6304727549873825,1431,-4,19.803588632525834,31.971518107424757
3.7779841621706263,1.6304564540926796,1431,-4,19.803588632525834,31.971518107424757
3.7942845695967393,1.6304401533609472,1431,-4,19.803588632525834,31.971518107424757
3.8105848140570933,1.6304238527921837,1431,-4,19.803588632525834,31.971518107424757
3.8268848955533175,1.6304075523863877,1431,-4,19.803588632525834,31.971518107424757
3.8431848140870417,1.6303912521435573,1431,-4,19.803588632525834,31.971518107424757
