Vout,Iout,Irradiance,Temperature,MaxVoltage,MaxPower
0.0071781609792213544,1.435646,1171,38,22.888328641432672,32.33630520997193
0.021534350206673693,1.435646,1171,38,22.888328641432672,32.33630520997193
0.03589024757639991,1.4356386782744208,1171,38,22.888328641432672,32.33630520997193
0.050245800948113865,1.4356243220851932,1171,38,22.888328641432672,32.33630520997193
0.06460099328146551,1.4356099661885557,1171,38,22.888328641432672,32.33630520997193
0.07895584131549513,1.4355956106366197,1171,38,22.888328641432672,32.33630520997193
0.0933103605019024,1.435581255445722,1171,38,22.888328641432672,32.33630520997193
0.10766456510377843,1.4355669005991234,1171,38,22.888328641432672,32.33630520997193
0.12201846828690002,1.4355525460813725,1171,38,22.888328641432672,32.33630520997193
0.13637208220415883,1.4355381918782062,1171,38,22.888328641432672,32.33630520997193
0.15072541807349427,1.4355238379764585,1171,38,22.888328641432672,32.33630520997193
0.16507848624983032,1.4355094843639766,1171,38,22.888328641432672,32.33630520997193
0.179431296291477,1.4354951310295427,1171,38,22.888328641432672,32.33630520997193
0.1937838570214236,1.4354807779628016,1171,38,22.888328641432672,32.33630520997193
0.20813617658391487,1.4354664251541953,1171,38,22.888328641432672,32.33630520997193
0.22248826249667503,1.4354520725949007,1171,38,22.888328641432672,32.33630520997193
0.23684012169911314,1.4354377202767736,1171,38,22.888328641432672,32.33630520997193
0.2511917605968196,1.435423368192296,1171,38,22.888328641432672,32.33630520997193
0.26554318510263897,1.4354090163345288,1171,38,22.888328641432672,32.33630520997193
0.27989440067458254,1.4353946646970663,1171,38,22.888328641432672,32.33630520997193
0.2942454123508241,1.4353803132739957,1171,38,22.888328641432672,32.33630520997193
0.30859622478200277,1.435365962059859,1171,38,22.888328641432672,32.33630520997193
0.3229468422610404,1.4353516110496178,1171,38,22.888328641432672,32.33630520997193
0.33729726875066524,1.4353372602386218,1171,38,22.888328641432672,32.33630520997193
0.3516475079088172,1.435322909622578,1171,38,22.888328641432672,32.33630520997193
0.36599756311209897,1.4353085591975232,1171,38,22.888328641432672,32.33630520997193
0.38034743747742245,1.4352942089598002,1171,38,22.888328641432672,32.33630520997193
0.3946971338819898,1.435279858906032,1171,38,22.888328641432672,32.33630520997193
0.409046654981737,1.4352655090331017,1171,38,22.888328641432672,32.33630520997193
0.4233960032283586,1.435251159338132,1171,38,22.888328641432672,32.33630520997193
0.4377451808850222,1.4352368098184674,1171,38,22.888328641432672,32.33630520997193
0.4520941900408739,1.4352224604716557,1171,38,22.888328641432672,32.33630520997193
0.4664430326244282,1.435208111295434,1171,38,22.888328641432672,32.33630520997193
0.4807917104159271,1.4351937622877131,1171,38,22.888328641432672,32.33630520997193
0.495140225058748,1.4351794134465645,1171,38,22.888328641432672,32.33630520997193
0.5094885780699346,1.4351650647702079,1171,38,22.888328641432672,32.33630520997193
0.5238367708499176,1.4351507162569999,1171,38,22.888328641432672,32.33630520997193
0.5381848046914863,1.4351363679054236,1171,38,22.888328641432672,32.33630520997193
0.5525326807880713,1.4351220197140784,1171,38,22.888328641432672,32.33630520997193
0.566880400241389,1.4351076716816717,1171,38,22.888328641432672,32.33630520997193
0.5812279640684982,1.4350933238070098,1171,38,22.888328641432672,32.33630520997193
0.5955753732083143,1.4350789760889915,1171,38,22.888328641432672,32.33630520997193
0.6099226285276214,1.435064628526599,1171,38,22.888328641432672,32.33630520997193
0.6242697308266214,1.435050281118894,1171,38,22.888328641432672,32.33630520997193
0.6386166808440589,1.4350359338650096,1171,38,22.888328641432672,32.33630520997193
0.6529634792619478,1.4350215867641452,1171,38,22.888328641432672,32.33630520997193
0.6673101267099374,1.4350072398155624,1171,38,22.888328641432672,32.33630520997193
0.6816566237693411,1.4349928930185794,1171,38,22.888328641432672,32.33630520997193
0.6960029709768556,1.4349785463725662,1171,38,22.888328641432672,32.33630520997193
0.7103491688279933,1.4349641998769413,1171,38,22.888328641432672,32.33630520997193
0.7246952177802517,1.4349498535311684,1171,38,22.888328641432672,32.33630520997193
0.7390411182560379,1.434935507334752,1171,38,22.888328641432672,32.33630520997193
0.7533868706453687,1.4349211612872343,1171,38,22.888328641432672,32.33630520997193
0.7677324753083627,1.4349068153881932,1171,38,22.888328641432672,32.33630520997193
0.7820779325775405,1.4348924696372385,1171,38,22.888328641432672,32.33630520997193
0.7964232427599489,1.43487812403401,1171,38,22.888328641432672,32.33630520997193
0.8107684061391199,1.4348637785781755,1171,38,22.888328641432672,32.33630520997193
0.8251134229768803,1.4348494332694277,1171,38,22.888328641432672,32.33630520997193
0.8394582935150223,1.434835088107483,1171,38,22.888328641432672,32.33630520997193
0.8538030179768448,1.4348207430920799,1171,38,22.888328641432672,32.33630520997193
0.8681475965685745,1.4348063982229762,1171,38,22.888328641432672,32.33630520997193
0.8824920294806828,1.4347920534999488,1171,38,22.888328641432672,32.33630520997193
0.8968363168890955,1.4347777089227916,1171,38,22.888328641432672,32.33630520997193
0.9111804589563122,1.434763364491314,1171,38,22.888328641432672,32.33630520997193
0.9255244558324406,1.43474902020534,1171,38,22.888328641432672,32.33630520997193
0.9398683076561488,1.4347346760647073,1171,38,22.888328641432672,32.33630520997193
0.954212014555546,1.4347203320692654,1171,38,22.888328641432672,32.33630520997193
0.9685555766489946,1.4347059882188762,1171,38,22.888328641432672,32.33630520997193
0.9828989940458608,1.4346916445134112,1171,38,22.888328641432672,32.33630520997193
0.9972422668472053,1.4346773009527523,1171,38,22.888328641432672,32.33630520997193
1.0115853951464244,1.4346629575367897,1171,38,22.888328641432672,32.33630520997193
1.0259283790298381,1.4346486142654227,1171,38,22.888328641432672,32.33630520997193
1.0402712185772351,1.4346342711385578,1171,38,22.888328641432672,32.33630520997193
1.0546139138623756,1.4346199281561087,1171,38,22.888328641432672,32.33630520997193
1.0689564649534544,1.4346055853179955,1171,38,22.888328641432672,32.33630520997193
1.08329887191353,1.4345912426241447,1171,38,22.888328641432672,32.33630520997193
1.097641134800919,1.434576900074488,1171,38,22.888328641432672,32.33630520997193
1.111983253669562,1.4345625576689622,1171,38,22.888328641432672,32.33630520997193
1.1263252285693586,1.434548215407509,1171,38,22.888328641432672,32.33630520997193
1.1406670595464798,1.4345338732900748,1171,38,22.888328641432672,32.33630520997193
1.1550087466436552,1.434519531316609,1171,38,22.888328641432672,32.33630520997193
1.1693502899004355,1.4345051894870662,1171,38,22.888328641432672,32.33630520997193
1.1836916893534402,1.4344908478014031,1171,38,22.888328641432672,32.33630520997193
1.1980329450365796,1.4344765062595806,1171,38,22.888328641432672,32.33630520997193
1.2123740569812675,1.4344621648615619,1171,38,22.888328641432672,32.33630520997193
1.2267150252166086,1.4344478236073128,1171,38,22.888328641432672,32.33630520997193
1.2410558497695805,1.4344334824968021,1171,38,22.888328641432672,32.33630520997193
1.255396530665194,1.434419141530001,1171,38,22.888328641432672,32.33630520997193
1.2697370679266464,1.4344048007068821,1171,38,22.888328641432672,32.33630520997193
1.2840774615754604,1.4343904600274207,1171,38,22.888328641432672,32.33630520997193
1.2984177116316127,1.4343761194915932,1171,38,22.888328641432672,32.33630520997193
1.312757818113654,1.4343617790993786,1171,38,22.888328641432672,32.33630520997193
1.3270977810388167,1.4343474388507564,1171,38,22.888328641432672,32.33630520997193
1.341437600423119,1.4343330987457084,1171,38,22.888328641432672,32.33630520997193
1.355777276281456,1.4343187587842172,1171,38,22.888328641432672,32.33630520997193
1.3701168086276867,1.434304418966267,1171,38,22.888328641432672,32.33630520997193
1.3844561974747152,1.4342900792918427,1171,38,22.888328641432672,32.33630520997193
1.398795442834562,1.4342757397609305,1171,38,22.888328641432672,32.33630520997193
1.4131345447184331,1.4342614003735172,1171,38,22.888328641432672,32.33630520997193
1.427473503136784,1.4342470611295914,1171,38,22.888328641432672,32.33630520997193
1.4418123180993734,1.4342327220291415,1171,38,22.888328641432672,32.33630520997193
1.4561509896153217,1.434218383072157,1171,38,22.888328641432672,32.33630520997193
1.4704895176931563,1.4342040442586284,1171,38,22.888328641432672,32.33630520997193
1.48482790234086,1.4341897055885464,1171,38,22.888328641432672,32.33630520997193
1.49916614356591,1.4341753670619024,1171,38,22.888328641432672,32.33630520997193
1.5135042413753208,1.4341610286786886,1171,38,22.888328641432672,32.33630520997193
1.5278421957756751,1.4341466904388973,1171,38,22.888328641432672,32.33630520997193
1.542180006773161,1.4341323523425218,1171,38,22.888328641432672,32.33630520997193
1.5565176743736,1.4341180143895553,1171,38,22.888328641432672,32.33630520997193
1.5708551985824755,1.4341036765799915,1171,38,22.888328641432672,32.33630520997193
1.5851925794049606,1.434089338913825,1171,38,22.888328641432672,32.33630520997193
1.59952981684594,1.43407500139105,1171,38,22.888328641432672,32.33630520997193
1.6138669109100314,1.434060664011661,1171,38,22.888328641432672,32.33630520997193
1.6282038616016097,1.4340463267756538,1171,38,22.888328641432672,32.33630520997193
1.6425406689248223,1.4340319896830236,1171,38,22.888328641432672,32.33630520997193
1.6568773328836082,1.4340176527337656,1171,38,22.888328641432672,32.33630520997193
1.6712138534817125,1.4340033159278762,1171,38,22.888328641432672,32.33630520997193
1.6855502307227035,1.433988979265351,1171,38,22.888328641432672,32.33630520997193
1.6998864646099847,1.4339746427461866,1171,38,22.888328641432672,32.33630520997193
1.7142225551468087,1.4339603063703794,1171,38,22.888328641432672,32.33630520997193
1.7285585023362866,1.4339459701379258,1171,38,22.888328641432672,32.33630520997193
1.742894306181402,1.4339316340488226,1171,38,22.888328641432672,32.33630520997193
1.7572299666850175,1.4339172981030668,1171,38,22.888328641432672,32.33630520997193
1.7715654838498878,1.4339029623006552,1171,38,22.888328641432672,32.33630520997193
1.7859008576786637,1.4338886266415851,1171,38,22.888328641432672,32.33630520997193
1.800236088173904,1.433874291125854,1171,38,22.888328641432672,32.33630520997193
1.814571175338079,1.4338599557534586,1171,38,22.888328641432672,32.33630520997193
1.8289061191735818,1.433845620524397,1171,38,22.888328641432672,32.33630520997193
1.8432409196827289,1.4338312854386663,1171,38,22.888328641432672,32.33630520997193
1.8575755768677709,1.4338169504962643,1171,38,22.888328641432672,32.33630520997193
1.871910090730894,1.4338026156971888,1171,38,22.888328641432672,32.33630520997193
1.8862444612742275,1.433788281041437,1171,38,22.888328641432672,32.33630520997193
1.9005786884998455,1.4337739465290076,1171,38,22.888328641432672,32.33630520997193
1.9149127724097745,1.4337596121598977,1171,38,22.888328641432672,32.33630520997193
1.9292467130059947,1.4337452779341056,1171,38,22.888328641432672,32.33630520997193
1.943580510290444,1.433730943851629,1171,38,22.888328641432672,32.33630520997193
1.9579141642650213,1.4337166099124663,1171,38,22.888328641432672,32.33630520997193
1.9722476749315903,1.4337022761166152,1171,38,22.888328641432672,32.33630520997193
1.9865810422919803,1.433687942464074,1171,38,22.888328641432672,32.33630520997193
2.0009142663479915,1.4336736089548408,1171,38,22.888328641432672,32.33630520997193
2.0152473471013943,1.4336592755889137,1171,38,22.888328641432672,32.33630520997193
2.0295802845539344,1.4336449423662911,1171,38,22.888328641432672,32.33630520997193
2.043913078707333,1.433630609286971,1171,38,22.888328641432672,32.33630520997193
2.0582457295632888,1.433616276350952,1171,38,22.888328641432672,32.33630520997193
2.07257823712348,1.4336019435582317,1171,38,22.888328641432672,32.33630520997193
2.0869106013895666,1.433587610908809,1171,38,22.888328641432672,32.33630520997193
2.1012428223631905,1.4335732784026822,1171,38,22.888328641432672,32.33630520997193
2.1155749000459774,1.4335589460398492,1171,38,22.888328641432672,32.33630520997193
2.129906834439538,1.433544613820309,1171,38,22.888328641432672,32.33630520997193
2.14423862554547,1.4335302817440594,1171,38,22.888328641432672,32.33630520997193
2.1585702733653584,1.433515949811099,1171,38,22.888328641432672,32.33630520997193
2.1729017779007753,1.4335016180214264,1171,38,22.888328641432672,32.33630520997193
2.187233139153282,1.4334872863750396,1171,38,22.888328641432672,32.33630520997193
2.201564357124432,1.4334729548719374,1171,38,22.888328641432672,32.33630520997193
2.2158954318157673,1.433458623512118,1171,38,22.888328641432672,32.33630520997193
2.230226363228823,1.4334442922955801,1171,38,22.888328641432672,32.33630520997193
2.244557151365125,1.4334299612223218,1171,38,22.888328641432672,32.33630520997193
2.258887796226192,1.433415630292342,1171,38,22.888328641432672,32.33630520997193
2.273218297813538,1.4334012995056387,1171,38,22.888328641432672,32.33630520997193
2.2875486561286675,1.4333869688622107,1171,38,22.888328641432672,32.33630520997193
2.301878871173082,1.4333726383620564,1171,38,22.888328641432672,32.33630520997193
2.3162089429482777,1.4333583080051744,1171,38,22.888328641432672,32.33630520997193
2.3305388714557447,1.433343977791563,1171,38,22.888328641432672,32.33630520997193
2.344868656696968,1.433329647721221,1171,38,22.888328641432672,32.33630520997193
2.3591982986734306,1.4333153177941464,1171,38,22.888328641432672,32.33630520997193
2.37352779738661,1.4333009880103382,1171,38,22.888328641432672,32.33630520997193
2.3878571528379813,1.4332866583697947,1171,38,22.888328641432672,32.33630520997193
2.4021863650290145,1.4332723288725147,1171,38,22.888328641432672,32.33630520997193
2.4165154339611794,1.4332579995184962,1171,38,22.888328641432672,32.33630520997193
2.4308443596359406,1.433243670307738,1171,38,22.888328641432672,32.33630520997193
2.4451731420547613,1.4332293412402388,1171,38,22.888328641432672,32.33630520997193
2.4595017812191013,1.433215012315997,1171,38,22.888328641432672,32.33630520997193
2.47383027713042,1.433200683535011,1171,38,22.888328641432672,32.33630520997193
2.4881586297901737,1.4331863548972796,1171,38,22.888328641432672,32.33630520997193
2.502486839199816,1.4331720264028012,1171,38,22.888328641432672,32.33630520997193
2.5168149053607993,1.4331576980515743,1171,38,22.888328641432672,32.33630520997193
2.531142828274576,1.4331433698435976,1171,38,22.888328641432672,32.33630520997193
2.545470607942595,1.4331290417788694,1171,38,22.888328641432672,32.33630520997193
2.5597982443663043,1.4331147138573883,1171,38,22.888328641432672,32.33630520997193
2.5741257375471513,1.4331003860791531,1171,38,22.888328641432672,32.33630520997193
2.5884530874865823,1.4330860584441623,1171,38,22.888328641432672,32.33630520997193
2.602780294186041,1.4330717309524141,1171,38,22.888328641432672,32.33630520997193
2.6171073576469723,1.4330574036039077,1171,38,22.888328641432672,32.33630520997193
2.6314342778708184,1.4330430763986408,1171,38,22.888328641432672,32.33630520997193
2.645761054859021,1.4330287493366127,1171,38,22.888328641432672,32.33630520997193
2.660087688613023,1.4330144224178216,1171,38,22.888328641432672,32.33630520997193
2.674414179134263,1.433000095642266,1171,38,22.888328641432672,32.33630520997193
2.688740526424182,1.4329857690099448,1171,38,22.888328641432672,32.33630520997193
2.703066730484218,1.4329714425208562,1171,38,22.888328641432672,32.33630520997193
2.7173927913158114,1.432957116174999,1171,38,22.888328641432672,32.33630520997193
2.7317187089203987,1.4329427899723715,1171,38,22.888328641432672,32.33630520997193
2.746044483299419,1.4329284639129725,1171,38,22.888328641432672,32.33630520997193
2.7603701144543087,1.4329141379968007,1171,38,22.888328641432672,32.33630520997193
2.774695602386504,1.432899812223854,1171,38,22.888328641432672,32.33630520997193
2.7890209470974434,1.4328854865941318,1171,38,22.888328641432672,32.33630520997193
2.803346148588559,1.4328711611076324,1171,38,22.888328641432672,32.33630520997193
2.81767120686129,1.4328568357643539,1171,38,22.888328641432672,32.33630520997193
2.8319961219170717,1.4328425105642952,1171,38,22.888328641432672,32.33630520997193
2.846320893757337,1.4328281855074552,1171,38,22.888328641432672,32.33630520997193
2.8606455223835225,1.4328138605938319,1171,38,22.888328641432672,32.33630520997193
2.874970007797062,1.432799535823424,1171,38,22.888328641432672,32.33630520997193
2.8892943499993904,1.4327852111962305,1171,38,22.888328641432672,32.33630520997193
2.9036185489919415,1.4327708867122493,1171,38,22.888328641432672,32.33630520997193
2.9179426047761483,1.4327565623714795,1171,38,22.888328641432672,32.33630520997193
2.932266517353446,1.4327422381739194,1171,38,22.888328641432672,32.33630520997193
2.9465902867252676,1.4327279141195677,1171,38,22.888328641432672,32.33630520997193
2.960913912893046,1.4327135902084227,1171,38,22.888328641432672,32.33630520997193
2.9752373958582155,1.4326992664404834,1171,38,22.888328641432672,32.33630520997193
2.9895607356222085,1.432684942815748,1171,38,22.888328641432672,32.33630520997193
3.0038839321864588,1.4326706193342151,1171,38,22.888328641432672,32.33630520997193
3.0182069855523985,1.4326562959958835,1171,38,22.888328641432672,32.33630520997193
3.032529895721461,1.4326419728007516,1171,38,22.888328641432672,32.33630520997193
3.0468526626950787,1.432627649748818,1171,38,22.888328641432672,32.33630520997193
3.0611752864746844,1.4326133268400811,1171,38,22.888328641432672,32.33630520997193
3.0754977670617105,1.43259900407454,1171,38,22.888328641432672,32.33630520997193
3.0898201044575884,1.4325846814521925,1171,38,22.888328641432672,32.33630520997193
3.1041422986637532,1.4325703589730379,1171,38,22.888328641432672,32.33630520997193
3.1184643496816356,1.4325560366370742,1171,38,22.888328641432672,32.33630520997193
3.132786257512666,1.4325417144443002,1171,38,22.888328641432672,32.33630520997193
3.1471080221582795,1.4325273923947146,1171,38,22.888328641432672,32.33630520997193
3.161429643619906,1.4325130704883158,1171,38,22.888328641432672,32.33630520997193
3.175751121898979,1.4324987487251024,1171,38,22.888328641432672,32.33630520997193
3.1900724569969294,1.432484427105073,1171,38,22.888328641432672,32.33630520997193
3.2043936489151896,1.432470105628226,1171,38,22.888328641432672,32.33630520997193
3.2187146976551912,1.4324557842945604,1171,38,22.888328641432672,32.33630520997193
3.2330356032183656,1.4324414631040743,1171,38,22.888328641432672,32.33630520997193
3.247356365606146,1.4324271420567665,1171,38,22.888328641432672,32.33630520997193
3.2616769848199634,1.4324128211526352,1171,38,22.888328641432672,32.33630520997193
3.275997460861249,1.4323985003916797,1171,38,22.888328641432672,32.33630520997193
3.2903177937314356,1.4323841797738979,1171,38,22.888328641432672,32.33630520997193
3.304637983431953,1.4323698592992886,1171,38,22.888328641432672,32.33630520997193
3.3189580299642345,1.4323555389678506,1171,38,22.888328641432672,32.33630520997193
3.333277933329711,1.432341218779582,1171,38,22.888328641432672,32.33630520997193
3.3475976935298144,1.432326898734482,1171,38,22.888328641432672,32.33630520997193
3.3619173105659756,1.4323125788325484,1171,38,22.888328641432672,32.33630520997193
3.3762367844396266,1.4322982590737803,1171,38,22.888328641432672,32.33630520997193
3.390556115152198,1.4322839394581761,1171,38,22.888328641432672,32.33630520997193
3.404875302705123,1.4322696199857345,1171,38,22.888328641432672,32.33630520997193
