Vout,Iout,Irradiance,Temperature,MaxVoltage,MaxPower
0.007096191767386853,1.419252,1171,31,22.375603820569605,31.25657468297468
0.021288444086858496,1.419252,1171,31,22.375603820569605,31.25657468297468
0.035480407881400236,1.4192447618830326,1171,31,22.375603820569605,31.25657468297468
0.04967203160612888,1.419230569630713,1171,31,22.375603820569605,31.25657468297468
0.06386329841528238,1.4192163776676423,1171,31,22.375603820569605,31.25657468297468
0.07805422485675376,1.4192021860453368,1171,31,22.375603820569605,31.25657468297468
0.09224482620579585,1.4191879947799468,1171,31,22.375603820569605,31.25657468297468
0.10643511656262598,1.4191738038549246,1171,31,22.375603820569605,31.25657468297468
0.1206251089426777,1.4191596132549946,1171,31,22.375603820569605,31.25657468297468
0.13481481536006568,1.419145422966057,1171,31,22.375603820569605,31.25657468297468
0.14900424690462893,1.419131232975096,1171,31,22.375603820569605,31.25657468297468
0.16319341381304595,1.4191170432700977,1171,31,22.375603820569605,31.25657468297468
0.1773823255344781,1.419102853839972,1171,31,22.375603820569605,31.25657468297468
0.19157099079116263,1.4190886646744827,1171,31,22.375603820569605,31.25657468297468
0.20575941763434324,1.41907447576418,1171,31,22.375603820569605,31.25657468297468
0.2199476134958973,1.4190602871003424,1171,31,22.375603820569605,31.25657468297468
0.23413558523599115,1.419046098674918,1171,31,22.375603820569605,31.25657468297468
0.24832333918706806,1.4190319104804754,1171,31,22.375603820569605,31.25657468297468
0.26251088119445226,1.4190177225101541,1171,31,22.375603820569605,31.25657468297468
0.2766982166538288,1.4190035347576218,1171,31,22.375603820569605,31.25657468297468
0.2908853505458393,1.4189893472170332,1171,31,22.375603820569605,31.25657468297468
0.3050722874680159,1.4189751598829927,1171,31,22.375603820569605,31.25657468297468
0.3192590316642587,1.4189609727505195,1171,31,22.375603820569605,31.25657468297468
0.33344558705204436,1.418946785815016,1171,31,22.375603820569605,31.25657468297468
0.3476319572475421,1.4189325990722383,1171,31,22.375603820569605,31.25657468297468
0.3618181455887962,1.4189184125182692,1171,31,22.375603820569605,31.25657468297468
0.3760041551571258,1.4189042261494924,1171,31,22.375603820569605,31.25657468297468
0.3901899887968775,1.41889003996257,1171,31,22.375603820569605,31.25657468297468
0.40437564913365853,1.4188758539544202,1171,31,22.375603820569605,31.25657468297468
0.41856113859116706,1.418861668122199,1171,31,22.375603820569605,31.25657468297468
0.4327464594067267,1.4188474824632809,1171,31,22.375603820569605,31.25657468297468
0.44693161364562745,1.418833296975242,1171,31,22.375603820569605,31.25657468297468
0.4611166032143614,1.418819111655845,1171,31,22.375603820569605,31.25657468297468
0.4753014298728416,1.4188049265030247,1171,31,22.375603820569605,31.25657468297468
0.48948609524567904,1.4187907415148744,1171,31,22.375603820569605,31.25657468297468
0.5036706008325945,1.4187765566896344,1171,31,22.375603820569605,31.25657468297468
0.5178549480180262,1.4187623720256801,1171,31,22.375603820569605,31.25657468297468
0.5320391380800011,1.4187481875215118,1171,31,22.375603820569605,31.25657468297468
0.5462231721983216,1.4187340031757447,1171,31,22.375603820569605,31.25657468297468
0.5604070514621234,1.4187198189871013,1171,31,22.375603820569605,31.25657468297468
0.5745907768768513,1.4187056349544014,1171,31,22.375603820569605,31.25657468297468
0.5887743493706988,1.418691451076556,1171,31,22.375603820569605,31.25657468297468
0.602957769800552,1.4186772673525596,1171,31,22.375603820569605,31.25657468297468
0.6171410389574754,1.4186630837814842,1171,31,22.375603820569605,31.25657468297468
0.6313241575717774,1.4186489003624727,1171,31,22.375603820569605,31.25657468297468
0.645507126317684,1.4186347170947342,1171,31,22.375603820569605,31.25657468297468
0.6596899458176543,1.4186205339775382,1171,31,22.375603820569605,31.25657468297468
0.6738726166463633,1.4186063510102105,1171,31,22.375603820569605,31.25657468297468
0.6880551393343792,1.418592168192129,1171,31,22.375603820569605,31.25657468297468
0.7022375143715559,1.4185779855227185,1171,31,22.375603820569605,31.25657468297468
0.716419742210167,1.4185638030014487,1171,31,22.375603820569605,31.25657468297468
0.7306018232677957,1.4185496206278299,1171,31,22.375603820569605,31.25657468297468
0.7447837579300051,1.4185354384014095,1171,31,22.375603820569605,31.25657468297468
0.7589655465528018,1.4185212563217702,1171,31,22.375603820569605,31.25657468297468
0.7731471894649093,1.4185070743885262,1171,31,22.375603820569605,31.25657468297468
0.7873286869698678,1.4184928926013216,1171,31,22.375603820569605,31.25657468297468
0.8015100393479716,1.4184787109598276,1171,31,22.375603820569605,31.25657468297468
0.815691246858058,1.4184645294637408,1171,31,22.375603820569605,31.25657468297468
0.8298723097391578,1.4184503481127808,1171,31,22.375603820569605,31.25657468297468
0.8440532282120197,1.418436166906689,1171,31,22.375603820569605,31.25657468297468
0.8582340024805161,1.418421985845226,1171,31,22.375603820569605,31.25657468297468
0.872414632732943,1.4184078049281712,1171,31,22.375603820569605,31.25657468297468
0.886595119143217,1.4183936241553208,1171,31,22.375603820569605,31.25657468297468
0.9007754618719823,1.4183794435264865,1171,31,22.375603820569605,31.25657468297468
0.9149556610676328,1.4183652630414942,1171,31,22.375603820569605,31.25657468297468
0.9291357168672532,1.4183510827001837,1171,31,22.375603820569605,31.25657468297468
0.9433156293974893,1.418336902502406,1171,31,22.375603820569605,31.25657468297468
0.9574953987753522,1.4183227224480244,1171,31,22.375603820569605,31.25657468297468
0.9716750251089586,1.4183085425369122,1171,31,22.375603820569605,31.25657468297468
0.9858545084982162,1.4182943627689524,1171,31,22.375603820569605,31.25657468297468
1.000033849035454,1.4182801831440368,1171,31,22.375603820569605,31.25657468297468
1.0142130468060067,1.4182660036620656,1171,31,22.375603820569605,31.25657468297468
1.0283921018887514,1.4182518243229463,1171,31,22.375603820569605,31.25657468297468
1.0425710143566065,1.4182376451265937,1171,31,22.375603820569605,31.25657468297468
1.056749784276988,1.4182234660729287,1171,31,22.375603820569605,31.25657468297468
1.0709284117122337,1.4182092871618788,1171,31,22.375603820569605,31.25657468297468
1.0851068967199953,1.4181951083933764,1171,31,22.375603820569605,31.25657468297468
1.0992852393535966,1.418180929767359,1171,31,22.375603820569605,31.25657468297468
1.113463439662368,1.4181667512837692,1171,31,22.375603820569605,31.25657468297468
1.127641497691953,1.4181525729425535,1171,31,22.375603820569605,31.25657468297468
1.141819413484593,1.4181383947436625,1171,31,22.375603820569605,31.25657468297468
1.1559971870793873,1.4181242166870507,1171,31,22.375603820569605,31.25657468297468
1.170174818512537,1.418110038772676,1171,31,22.375603820569605,31.25657468297468
1.1843523078175657,1.418095861000499,1171,31,22.375603820569605,31.25657468297468
1.1985296550255278,1.4180816833704835,1171,31,22.375603820569605,31.25657468297468
1.212706860165196,1.4180675058825962,1171,31,22.375603820569605,31.25657468297468
1.22688392326324,1.418053328536806,1171,31,22.375603820569605,31.25657468297468
1.2410608443443851,1.4180391513330841,1171,31,22.375603820569605,31.25657468297468
1.255237623431563,1.418024974271404,1171,31,22.375603820569605,31.25657468297468
1.2694142605460512,1.4180107973517404,1171,31,22.375603820569605,31.25657468297468
1.2835907557075983,1.417996620574071,1171,31,22.375603820569605,31.25657468297468
1.2977671089345426,1.4179824439383741,1171,31,22.375603820569605,31.25657468297468
1.3119433202439206,1.4179682674446303,1171,31,22.375603820569605,31.25657468297468
1.3261193896515668,1.417954091092821,1171,31,22.375603820569605,31.25657468297468
1.3402953171722065,1.4179399148829293,1171,31,22.375603820569605,31.25657468297468
1.3544711028195409,1.4179257388149393,1171,31,22.375603820569605,31.25657468297468
1.368646746606326,1.4179115628888364,1171,31,22.375603820569605,31.25657468297468
1.3828222485444452,1.4178973871046066,1171,31,22.375603820569605,31.25657468297468
1.3969976086449774,1.4178832114622373,1171,31,22.375603820569605,31.25657468297468
1.4111728269182573,1.4178690359617168,1171,31,22.375603820569605,31.25657468297468
1.4253479033739331,1.417854860603034,1171,31,22.375603820569605,31.25657468297468
1.4395228380210203,1.417840685386178,1171,31,22.375603820569605,31.25657468297468
1.45369763086795,1.41782651031114,1171,31,22.375603820569605,31.25657468297468
1.4678722819226129,1.4178123353779104,1171,31,22.375603820569605,31.25657468297468
1.4820467911924016,1.417798160586481,1171,31,22.375603820569605,31.25657468297468
1.4962211586842495,1.4177839859368437,1171,31,22.375603820569605,31.25657468297468
1.5103953844046654,1.4177698114289914,1171,31,22.375603820569605,31.25657468297468
1.524569468359766,1.4177556370629172,1171,31,22.375603820569605,31.25657468297468
1.5387434105553057,1.4177414628386142,1171,31,22.375603820569605,31.25657468297468
1.5529172109967067,1.4177272887560766,1171,31,22.375603820569605,31.25657468297468
1.567090869689082,1.4177131148152984,1171,31,22.375603820569605,31.25657468297468
1.5812643866372602,1.4176989410162744,1171,31,22.375603820569605,31.25657468297468
1.595437761845808,1.4176847673589994,1171,31,22.375603820569605,31.25657468297468
1.6096109953190485,1.4176705938434686,1171,31,22.375603820569605,31.25657468297468
1.6237840870610827,1.4176564204696773,1171,31,22.375603820569605,31.25657468297468
1.6379570370758036,1.4176422472376216,1171,31,22.375603820569605,31.25657468297468
1.6521298453669147,1.4176280741472969,1171,31,22.375603820569605,31.25657468297468
1.6663025119379435,1.4176139011986995,1171,31,22.375603820569605,31.25657468297468
1.6804750367922545,1.4175997283918256,1171,31,22.375603820569605,31.25657468297468
1.6946474199330623,1.4175855557266719,1171,31,22.375603820569605,31.25657468297468
1.7088196613634434,1.4175713832032348,1171,31,22.375603820569605,31.25657468297468
1.7229917610863466,1.4175572108215113,1171,31,22.375603820569605,31.25657468297468
1.7371637191046032,1.4175430385814982,1171,31,22.375603820569605,31.25657468297468
1.7513355354209348,1.4175288664831924,1171,31,22.375603820569605,31.25657468297468
1.7655072100379627,1.4175146945265915,1171,31,22.375603820569605,31.25657468297468
1.7796787429582168,1.4175005227116924,1171,31,22.375603820569605,31.25657468297468
1.7938501341841393,1.4174863510384925,1171,31,22.375603820569605,31.25657468297468
1.8080213837180947,1.4174721795069896,1171,31,22.375603820569605,31.25657468297468
1.8221924915623744,1.4174580081171808,1171,31,22.375603820569605,31.25657468297468
1.836363457719202,1.4174438368690638,1171,31,22.375603820569605,31.25657468297468
1.8505342821907393,1.4174296657626368,1171,31,22.375603820569605,31.25657468297468
1.8647049649790919,1.417415494797897,1171,31,22.375603820569605,31.25657468297468
1.8788755060863098,1.4174013239748426,1171,31,22.375603820569605,31.25657468297468
1.8930459055143964,1.4173871532934714,1171,31,22.375603820569605,31.25657468297468
1.907216163265309,1.4173729827537813,1171,31,22.375603820569605,31.25657468297468
1.9213862793409635,1.4173588123557703,1171,31,22.375603820569605,31.25657468297468
1.9355562537432374,1.4173446420994364,1171,31,22.375603820569605,31.25657468297468
1.9497260864739723,1.4173304719847777,1171,31,22.375603820569605,31.25657468297468
1.9638957775349781,1.4173163020117925,1171,31,22.375603820569605,31.25657468297468
1.9780653269280328,1.4173021321804788,1171,31,22.375603820569605,31.25657468297468
1.992234734654888,1.4172879624908348,1171,31,22.375603820569605,31.25657468297468
2.0064040007172688,1.4172737929428587,1171,31,22.375603820569605,31.25657468297468
2.020573125116876,1.4172596235365489,1171,31,22.375603820569605,31.25657468297468
2.0347421078553904,1.4172454542719033,1171,31,22.375603820569605,31.25657468297468
2.04891094893447,1.4172312851489208,1171,31,22.375603820569605,31.25657468297468
2.0630796483557567,1.417217116167599,1171,31,22.375603820569605,31.25657468297468
2.077248206120873,1.417202947327937,1171,31,22.375603820569605,31.25657468297468
2.0914166222314257,1.4171887786299326,1171,31,22.375603820569605,31.25657468297468
2.105584896689008,1.4171746100735843,1171,31,22.375603820569605,31.25657468297468
2.1197530294951985,1.4171604416588908,1171,31,22.375603820569605,31.25657468297468
2.133921020651564,1.41714627338585,1171,31,22.375603820569605,31.25657468297468
2.1480888701596594,1.4171321052544605,1171,31,22.375603820569605,31.25657468297468
2.162256578021029,1.4171179372647211,1171,31,22.375603820569605,31.25657468297468
2.1764241442372065,1.4171037694166297,1171,31,22.375603820569605,31.25657468297468
2.1905915688097175,1.4170896017101853,1171,31,22.375603820569605,31.25657468297468
2.2047588517400794,1.4170754341453857,1171,31,22.375603820569605,31.25657468297468
2.2189259930298,1.41706126672223,1171,31,22.375603820569605,31.25657468297468
2.233092992680382,1.4170470994407165,1171,31,22.375603820569605,31.25657468297468
2.2472598506933203,1.4170329323008435,1171,31,22.375603820569605,31.25657468297468
2.261426567070105,1.4170187653026096,1171,31,22.375603820569605,31.25657468297468
2.275593141812218,1.4170045984460133,1171,31,22.375603820569605,31.25657468297468
2.2897595749211392,1.4169904317310533,1171,31,22.375603820569605,31.25657468297468
2.303925866398341,1.4169762651577278,1171,31,22.375603820569605,31.25657468297468
2.3180920162452936,1.4169620987260356,1171,31,22.375603820569605,31.25657468297468
2.33225802446346,1.416947932435975,1171,31,22.375603820569605,31.25657468297468
2.3464238910543034,1.4169337662875447,1171,31,22.375603820569605,31.25657468297468
2.36058961601928,1.4169196002807432,1171,31,22.375603820569605,31.25657468297468
2.374755199359845,1.416905434415569,1171,31,22.375603820569605,31.25657468297468
2.3889206410774504,1.4168912686920208,1171,31,22.375603820569605,31.25657468297468
2.4030859411735435,1.4168771031100966,1171,31,22.375603820569605,31.25657468297468
2.417251099649572,1.4168629376697957,1171,31,22.375603820569605,31.25657468297468
2.431416116506979,1.416848772371116,1171,31,22.375603820569605,31.25657468297468
2.445580991747206,1.4168346072140565,1171,31,22.375603820569605,31.25657468297468
2.4597457253716923,1.4168204421986157,1171,31,22.375603820569605,31.25657468297468
2.473910317381877,1.416806277324792,1171,31,22.375603820569605,31.25657468297468
2.4880747677791955,1.416792112592584,1171,31,22.375603820569605,31.25657468297468
2.5022390765650817,1.4167779480019904,1171,31,22.375603820569605,31.25657468297468
2.51640324374097,1.4167637835530096,1171,31,22.375603820569605,31.25657468297468
2.5305672693082903,1.4167496192456401,1171,31,22.375603820569605,31.25657468297468
2.5447311532684758,1.4167354550798805,1171,31,22.375603820569605,31.25657468297468
2.558894895622953,1.4167212910557296,1171,31,22.375603820569605,31.25657468297468
2.573058496373153,1.416707127173186,1171,31,22.375603820569605,31.25657468297468
2.587221955520501,1.4166929634322478,1171,31,22.375603820569605,31.25657468297468
2.6013852730664238,1.416678799832914,1171,31,22.375603820569605,31.25657468297468
2.6155484490123473,1.4166646363751831,1171,31,22.375603820569605,31.25657468297468
2.6297114833596957,1.4166504730590534,1171,31,22.375603820569605,31.25657468297468
2.643874376109894,1.416636309884524,1171,31,22.375603820569605,31.25657468297468
2.658037127264365,1.416622146851593,1171,31,22.375603820569605,31.25657468297468
2.672199736824532,1.416607983960259,1171,31,22.375603820569605,31.25657468297468
2.6863622047918163,1.416593821210521,1171,31,22.375603820569605,31.25657468297468
2.7005245311676402,1.4165796586023771,1171,31,22.375603820569605,31.25657468297468
2.714686715953425,1.416565496135826,1171,31,22.375603820569605,31.25657468297468
2.728848759150591,1.4165513338108664,1171,31,22.375603820569605,31.25657468297468
2.743010660760559,1.4165371716274968,1171,31,22.375603820569605,31.25657468297468
2.757172420784749,1.416523009585716,1171,31,22.375603820569605,31.25657468297468
2.771334039224581,1.4165088476855223,1171,31,22.375603820569605,31.25657468297468
2.785495516081473,1.4164946859269143,1171,31,22.375603820569605,31.25657468297468
2.7996568513568456,1.4164805243098906,1171,31,22.375603820569605,31.25657468297468
2.8138180450521166,1.4164663628344498,1171,31,22.375603820569605,31.25657468297468
2.8279790971687038,1.4164522015005907,1171,31,22.375603820569605,31.25657468297468
2.8421400077080268,1.4164380403083117,1171,31,22.375603820569605,31.25657468297468
2.8563007766715027,1.4164238792576112,1171,31,22.375603820569605,31.25657468297468
2.8704614040605496,1.4164097183484878,1171,31,22.375603820569605,31.25657468297468
2.884621889876585,1.4163955575809406,1171,31,22.375603820569605,31.25657468297468
2.8987822341210263,1.4163813969549677,1171,31,22.375603820569605,31.25657468297468
2.9129424367952894,1.4163672364705677,1171,31,22.375603820569605,31.25657468297468
2.927102497900794,1.4163530761277392,1171,31,22.375603820569605,31.25657468297468
2.9412624174389554,1.416338915926481,1171,31,22.375603820569605,31.25657468297468
2.9554221954111908,1.4163247558667915,1171,31,22.375603820569605,31.25657468297468
2.9695818318189167,1.4163105959486695,1171,31,22.375603820569605,31.25657468297468
2.9837413266635497,1.416296436172113,1171,31,22.375603820569605,31.25657468297468
2.9979006799465058,1.4162822765371215,1171,31,22.375603820569605,31.25657468297468
3.0120598916692014,1.4162681170436928,1171,31,22.375603820569605,31.25657468297468
3.0262189618330533,1.4162539576918258,1171,31,22.375603820569605,31.25657468297468
3.0403778904394776,1.4162397984815192,1171,31,22.375603820569605,31.25657468297468
3.054536677489889,1.4162256394127712,1171,31,22.375603820569605,31.25657468297468
3.0686953229857052,1.4162114804855805,1171,31,22.375603820569605,31.25657468297468
3.082853826928342,1.4161973216999462,1171,31,22.375603820569605,31.25657468297468
3.097012189319214,1.4161831630558661,1171,31,22.375603820569605,31.25657468297468
3.1111704101597386,1.4161690045533395,1171,31,22.375603820569605,31.25657468297468
3.1253284894513307,1.4161548461923645,1171,31,22.375603820569605,31.25657468297468
3.139486427195405,1.4161406879729397,1171,31,22.375603820569605,31.25657468297468
3.153644223393379,1.416126529895064,1171,31,22.375603820569605,31.25657468297468
3.167801878046667,1.4161123719587358,1171,31,22.375603820569605,31.25657468297468
3.1819593911566852,1.4160982141639535,1171,31,22.375603820569605,31.25657468297468
3.1961167627248486,1.416084056510716,1171,31,22.375603820569605,31.25657468297468
3.2102739927525716,1.416069898999022,1171,31,22.375603820569605,31.25657468297468
3.2244310812412715,1.4160557416288695,1171,31,22.375603820569605,31.25657468297468
3.2385880281923636,1.4160415844002574,1171,31,22.375603820569605,31.25657468297468
3.252744833607262,1.4160274273131845,1171,31,22.375603820569605,31.25657468297468
3.2669014974873827,1.4160132703676491,1171,31,22.375603820569605,31.25657468297468
3.281058019834141,1.41599911356365,1171,31,22.375603820569605,31.25657468297468
3.2952144006489514,1.4159849569011855,1171,31,22.375603820569605,31.25657468297468
3.30937063993323,1.4159708003802545,1171,31,22.375603820569605,31.25657468297468
3.3235267376883915,1.4159566440008553,1171,31,22.375603820569605,31.25657468297468
3.337682693915851,1.4159424877629867,1171,31,22.375603820569605,31.25657468297468
3.3518385086170235,1.415928331666647,1171,31,22.375603820569605,31.25657468297468
3.365994181793325,1.4159141757118354,1171,31,22.375603820569605,31.25657468297468
3.3801497134461678,1.4159000198985499,1171,31,22.375603820569605,31.25657468297468
