Vout,Iout,Irradiance,Temperature,MaxVoltage,MaxPower
0.008972283728041076,1.794474,1431,52,22.915098267643625,40.54406158694178
0.026916685278105167,1.794474,1431,52,22.915098267643625,40.54406158694178
0.04486072202298662,1.7944648482688719,1431,52,22.915098267643625,40.54406158694178
0.06280432879036035,1.7944469038673219,1431,52,22.915098267643625,40.54406158694178
0.0807474842807799,1.7944289598314922,1431,52,22.915098267643625,40.54406158694178
0.09869020941707206,1.7944110162265192,1431,52,22.915098267643625,40.54406158694178
0.11663252351296272,1.794393073072823,1431,52,22.915098267643625,40.54406158694178
0.13457444439648614,1.7943751303494813,1431,52,22.915098267643625,40.54406158694178
0.15251598852409762,1.7943571880371796,1431,52,22.915098267643625,40.54406158694178
0.1704571710862049,1.7943392461180905,1431,52,22.915098267643625,40.54406158694178
0.18839800610457982,1.794321304575757,1431,52,22.915098267643625,40.54406158694178
0.20633850652227495,1.7943033633949892,1431,52,22.915098267643625,40.54406158694178
0.22427868428662218,1.7942854225617648,1431,52,22.915098267643625,40.54406158694178
0.2422185504258446,1.7942674820631412,1431,52,22.915098267643625,40.54406158694178
0.2601581151197747,1.7942495418871711,1431,52,22.915098267643625,40.54406158694178
0.27809738776513043,1.794231602022826,1431,52,22.915098267643625,40.54406158694178
0.29603637703576957,1.7942136624599259,1431,52,22.915098267643625,40.54406158694178
0.31397509093830744,1.7941957231890746,1431,52,22.915098267643625,40.54406158694178
0.3319135368634559,1.7941777842015978,1431,52,22.915098267643625,40.54406158694178
0.3498517216334117,1.7941598454894894,1431,52,22.915098267643625,40.54406158694178
0.3677896515455989,1.794141907045358,1431,52,22.915098267643625,40.54406158694178
0.3857273324130459,1.794123968862382,1431,52,22.915098267643625,40.54406158694178
0.40366476960165554,1.7941060309342636,1431,52,22.915098267643625,40.54406158694178
0.4216019680646075,1.79408809325519,1431,52,22.915098267643625,40.54406158694178
0.4395389323741138,1.7940701558197951,1431,52,22.915098267643625,40.54406158694178
0.4574756667507316,1.794052218623126,1431,52,22.915098267643625,40.54406158694178
0.4754121750904194,1.7940342816606103,1431,52,22.915098267643625,40.54406158694178
0.49334846098951257,1.7940163449280273,1431,52,22.915098267643625,40.54406158694178
0.5112845277677767,1.7939984084214813,1431,52,22.915098267643625,40.54406158694178
0.5292203784896873,1.793980472137376,1431,52,22.915098267643625,40.54406158694178
0.5471560159840722,1.7939625360723912,1431,52,22.915098267643625,40.54406158694178
0.5650914428622426,1.793944600223463,1431,52,22.915098267643625,40.54406158694178
0.5830266615347295,1.7939266645877623,1431,52,22.915098267643625,40.54406158694178
0.6009616742267316,1.7939087291626776,1431,52,22.915098267643625,40.54406158694178
0.6188964829923753,1.7938907939457986,1431,52,22.915098267643625,40.54406158694178
0.636831089727877,1.7938728589349002,1431,52,22.915098267643625,40.54406158694178
0.6547654961836936,1.7938549241279282,1431,52,22.915098267643625,40.54406158694178
0.6726997039757364,1.7938369895229862,1431,52,22.915098267643625,40.54406158694178
0.6906337145957242,1.7938190551183237,1431,52,22.915098267643625,40.54406158694178
0.7085675294207388,1.7938011209123252,1431,52,22.915098267643625,40.54406158694178
0.7265011497220442,1.7937831869034986,1431,52,22.915098267643625,40.54406158694178
0.7444345766732301,1.793765253090467,1431,52,22.915098267643625,40.54406158694178
0.7623678113577261,1.793747319471959,1431,52,22.915098267643625,40.54406158694178
0.7803008547757386,1.7937293860468013,1431,52,22.915098267643625,40.54406158694178
0.7982337078506546,1.7937114528139102,1431,52,22.915098267643625,40.54406158694178
0.8161663714349524,1.7936935197722856,1431,52,22.915098267643625,40.54406158694178
0.8340988463156568,1.793675586921004,1431,52,22.915098267643625,40.54406158694178
0.8520311332193756,1.7936576542592129,1431,52,22.915098267643625,40.54406158694178
0.8699632328169485,1.7936397217861255,1431,52,22.915098267643625,40.54406158694178
0.8878951457277375,1.7936217895010151,1431,52,22.915098267643625,40.54406158694178
0.9058268725235874,1.7936038574032107,1431,52,22.915098267643625,40.54406158694178
0.923758413732483,1.7935859254920932,1431,52,22.915098267643625,40.54406158694178
0.9416897698419221,1.7935679937670905,1431,52,22.915098267643625,40.54406158694178
0.9596209413020323,1.7935500622276748,1431,52,22.915098267643625,40.54406158694178
0.9775519285284452,1.7935321308733585,1431,52,22.915098267643625,40.54406158694178
0.9954827319049511,1.7935141997036916,1431,52,22.915098267643625,40.54406158694178
1.0134133517859485,1.7934962687182583,1431,52,22.915098267643625,40.54406158694178
1.0313437884987062,1.793478337916675,1431,52,22.915098267643625,40.54406158694178
1.0492740423454499,1.7934604072985871,1431,52,22.915098267643625,40.54406158694178
1.0672041136052899,1.7934424768636674,1431,52,22.915098267643625,40.54406158694178
1.085134002535998,1.7934245466116137,1431,52,22.915098267643625,40.54406158694178
1.1030637093756528,1.793406616542147,1431,52,22.915098267643625,40.54406158694178
1.1209932343441504,1.7933886866550093,1431,52,22.915098267643625,40.54406158694178
1.1389225776446064,1.7933707569499626,1431,52,22.915098267643625,40.54406158694178
1.1568517394646467,1.7933528274267871,1431,52,22.915098267643625,40.54406158694178
1.1747807199775988,1.7933348980852797,1431,52,22.915098267643625,40.54406158694178
1.1927095193435906,1.7933169689252526,1431,52,22.915098267643625,40.54406158694178
1.2106381377105688,1.7932990399465325,1431,52,22.915098267643625,40.54406158694178
1.228566575215235,1.7932811111489595,1431,52,22.915098267643625,40.54406158694178
1.2464948319839093,1.7932631825323853,1431,52,22.915098267643625,40.54406158694178
1.2644229081333311,1.7932452540966735,1431,52,22.915098267643625,40.54406158694178
1.282350803771396,1.7932273258416978,1431,52,22.915098267643625,40.54406158694178
1.3002785189978348,1.7932093977673411,1431,52,22.915098267643625,40.54406158694178
1.318206053904843,1.7931914698734959,1431,52,22.915098267643625,40.54406158694178
1.3361334085776613,1.7931735421600623,1431,52,22.915098267643625,40.54406158694178
1.3540605830951082,1.793155614626948,1431,52,22.915098267643625,40.54406158694178
1.3719875775300767,1.793137687274068,1431,52,22.915098267643625,40.54406158694178
1.3899143919499886,1.7931197601013433,1431,52,22.915098267643625,40.54406158694178
1.4078410264172163,1.7931018331087012,1431,52,22.915098267643625,40.54406158694178
1.4257674809894711,1.793083906296074,1431,52,22.915098267643625,40.54406158694178
1.4436937557201612,1.7930659796633994,1431,52,22.915098267643625,40.54406158694178
1.4616198506587244,1.7930480532106199,1431,52,22.915098267643625,40.54406158694178
1.4795457658509306,1.7930301269376818,1431,52,22.915098267643625,40.54406158694178
1.4974715013391684,1.793012200844536,1431,52,22.915098267643625,40.54406158694178
1.515397057162701,1.7929942749311363,1431,52,22.915098267643625,40.54406158694178
1.5333224333579092,1.7929763491974406,1431,52,22.915098267643625,40.54406158694178
1.5512476299585123,1.7929584236434097,1431,52,22.915098267643625,40.54406158694178
1.5691726469957727,1.7929404982690071,1431,52,22.915098267643625,40.54406158694178
1.587097484498686,1.792922573074199,1431,52,22.915098267643625,40.54406158694178
1.605022142494154,1.7929046480589543,1431,52,22.915098267643625,40.54406158694178
1.622946621007147,1.792886723223244,1431,52,22.915098267643625,40.54406158694178
1.6408709200608511,1.7928687985670408,1431,52,22.915098267643625,40.54406158694178
1.6587950396768072,1.7928508740903204,1431,52,22.915098267643625,40.54406158694178
1.676718979875036,1.7928329497930593,1431,52,22.915098267643625,40.54406158694178
1.6946427406741558,1.7928150256752358,1431,52,22.915098267643625,40.54406158694178
1.7125663220914904,1.7927971017368298,1431,52,22.915098267643625,40.54406158694178
1.7304897241431678,1.7927791779778233,1431,52,22.915098267643625,40.54406158694178
1.748412946844214,1.7927612543981983,1431,52,22.915098267643625,40.54406158694178
1.7663359902086357,1.792743330997939,1431,52,22.915098267643625,40.54406158694178
1.7842588542494997,1.7927254077770303,1431,52,22.915098267643625,40.54406158694178
1.802181538979007,1.7927074847354583,1431,52,22.915098267643625,40.54406158694178
1.8201040444085552,1.7926895618732097,1431,52,22.915098267643625,40.54406158694178
1.8380263705488047,1.7926716391902724,1431,52,22.915098267643625,40.54406158694178
1.8559485174097319,1.7926537166866352,1431,52,22.915098267643625,40.54406158694178
1.8738704850006849,1.7926357943622873,1431,52,22.915098267643625,40.54406158694178
1.891792273330429,1.7926178722172186,1431,52,22.915098267643625,40.54406158694178
1.9097138824071946,1.7925999502514198,1431,52,22.915098267643625,40.54406158694178
1.9276353122387149,1.7925820284648823,1431,52,22.915098267643625,40.54406158694178
1.9455565628322666,1.7925641068575977,1431,52,22.915098267643625,40.54406158694178
1.9634776341947042,1.7925461854295583,1431,52,22.915098267643625,40.54406158694178
1.9813985263324934,1.792528264180757,1431,52,22.915098267643625,40.54406158694178
1.9993192392517392,1.7925103431111866,1431,52,22.915098267643625,40.54406158694178
2.0172397729582148,1.792492422220841,1431,52,22.915098267643625,40.54406158694178
2.035160127457388,1.7924745015097139,1431,52,22.915098267643625,40.54406158694178
2.0530803027544424,1.7924565809777995,1431,52,22.915098267643625,40.54406158694178
2.071000298854301,1.7924386606250924,1431,52,22.915098267643625,40.54406158694178
2.0889201157616464,1.7924207404515873,1431,52,22.915098267643625,40.54406158694178
2.1068397534809384,1.7924028204572795,1431,52,22.915098267643625,40.54406158694178
2.1247592120164303,1.7923849006421642,1431,52,22.915098267643625,40.54406158694178
2.142678491372188,1.7923669810062368,1431,52,22.915098267643625,40.54406158694178
2.160597591552101,1.7923490615494935,1431,52,22.915098267643625,40.54406158694178
2.1785165125598978,1.7923311422719297,1431,52,22.915098267643625,40.54406158694178
2.196435254399158,1.7923132231735417,1431,52,22.915098267643625,40.54406158694178
2.2143538170733215,1.7922953042543257,1431,52,22.915098267643625,40.54406158694178
2.232272200585705,1.7922773855142784,1431,52,22.915098267643625,40.54406158694178
2.250190404939505,1.7922594669533962,1431,52,22.915098267643625,40.54406158694178
2.2681084301378105,1.7922415485716756,1431,52,22.915098267643625,40.54406158694178
2.2860262761836108,1.7922236303691137,1431,52,22.915098267643625,40.54406158694178
2.303943943079804,1.7922057123457071,1431,52,22.915098267643625,40.54406158694178
2.321861430829201,1.7921877945014533,1431,52,22.915098267643625,40.54406158694178
2.3397787394345357,1.7921698768363488,1431,52,22.915098267643625,40.54406158694178
2.357695868898468,1.7921519593503912,1431,52,22.915098267643625,40.54406158694178
2.375612819223593,1.7921340420435776,1431,52,22.915098267643625,40.54406158694178
2.3935295904124416,1.7921161249159054,1431,52,22.915098267643625,40.54406158694178
2.4114461824674893,1.7920982079673722,1431,52,22.915098267643625,40.54406158694178
2.4293625953911584,1.792080291197975,1431,52,22.915098267643625,40.54406158694178
2.4472788291858243,1.7920623746077116,1431,52,22.915098267643625,40.54406158694178
2.465194883853813,1.7920444581965795,1431,52,22.915098267643625,40.54406158694178
2.4831107593974147,1.7920265419645767,1431,52,22.915098267643625,40.54406158694178
2.501026455818876,1.7920086259117003,1431,52,22.915098267643625,40.54406158694178
2.518941973120413,1.7919907100379482,1431,52,22.915098267643625,40.54406158694178
2.536857311304206,1.7919727943433184,1431,52,22.915098267643625,40.54406158694178
2.5547724703724066,1.7919548788278086,1431,52,22.915098267643625,40.54406158694178
2.572687450327138,1.7919369634914162,1431,52,22.915098267643625,40.54406158694178
2.5906022511704982,1.7919190483341396,1431,52,22.915098267643625,40.54406158694178
2.6085168729045622,1.7919011333559764,1431,52,22.915098267643625,40.54406158694178
2.626431315531381,1.7918832185569247,1431,52,22.915098267643625,40.54406158694178
2.644345579052988,1.791865303936982,1431,52,22.915098267643625,40.54406158694178
2.662259663471397,1.7918473894961466,1431,52,22.915098267643625,40.54406158694178
2.6801735687886032,1.7918294752344166,1431,52,22.915098267643625,40.54406158694178
2.698087295006589,1.7918115611517895,1431,52,22.915098267643625,40.54406158694178
2.716000842127319,1.7917936472482638,1431,52,22.915098267643625,40.54406158694178
2.733914210152746,1.7917757335238371,1431,52,22.915098267643625,40.54406158694178
2.75182739908481,1.7917578199785078,1431,52,22.915098267643625,40.54406158694178
2.769740408925439,1.791739906612274,1431,52,22.915098267643625,40.54406158694178
2.787653239676551,1.7917219934251332,1431,52,22.915098267643625,40.54406158694178
2.8055658913400547,1.7917040804170838,1431,52,22.915098267643625,40.54406158694178
2.8234783639178476,1.791686167588124,1431,52,22.915098267643625,40.54406158694178
2.8413906574118215,1.7916682549382519,1431,52,22.915098267643625,40.54406158694178
2.85930277182386,1.7916503424674652,1431,52,22.915098267643625,40.54406158694178
2.8772147071558374,1.7916324301757627,1431,52,22.915098267643625,40.54406158694178
2.8951264634096225,1.7916145180631418,1431,52,22.915098267643625,40.54406158694178
2.91303804058708,1.7915966061296011,1431,52,22.915098267643625,40.54406158694178
2.930949438690066,1.7915786943751384,1431,52,22.915098267643625,40.54406158694178
2.9488606577204335,1.7915607827997522,1431,52,22.915098267643625,40.54406158694178
2.966771697680029,1.7915428714034405,1431,52,22.915098267643625,40.54406158694178
2.9846825585706966,1.791524960186201,1431,52,22.915098267643625,40.54406158694178
3.0025932403942748,1.7915070491480327,1431,52,22.915098267643625,40.54406158694178
3.0205037431525983,1.791489138288933,1431,52,22.915098267643625,40.54406158694178
3.038414066847501,1.7914712276089007,1431,52,22.915098267643625,40.54406158694178
3.056324211480809,1.7914533171079334,1431,52,22.915098267643625,40.54406158694178
3.074234177054349,1.7914354067860296,1431,52,22.915098267643625,40.54406158694178
3.092143963569944,1.7914174966431873,1431,52,22.915098267643625,40.54406158694178
3.1100535710294137,1.7913995866794048,1431,52,22.915098267643625,40.54406158694178
3.127962999434576,1.7913816768946802,1431,52,22.915098267643625,40.54406158694178
3.145872248787248,1.791363767289012,1431,52,22.915098267643625,40.54406158694178
3.1637813190892423,1.7913458578623975,1431,52,22.915098267643625,40.54406158694178
3.18169021034237,1.791327948614836,1431,52,22.915098267643625,40.54406158694178
3.199598922548443,1.7913100395463248,1431,52,22.915098267643625,40.54406158694178
3.217507455709269,1.7912921306568628,1431,52,22.915098267643625,40.54406158694178
3.2354158098266557,1.7912742219464475,1431,52,22.915098267643625,40.54406158694178
3.25332398490241,1.7912563134150776,1431,52,22.915098267643625,40.54406158694178
3.2712319809383343,1.791238405062751,1431,52,22.915098267643625,40.54406158694178
3.2891397979362327,1.791220496889466,1431,52,22.915098267643625,40.54406158694178
3.3070474358979087,1.791202588895221,1431,52,22.915098267643625,40.54406158694178
3.3249548948251637,1.791184681080014,1431,52,22.915098267643625,40.54406158694178
3.342862174719798,1.791166773443843,1431,52,22.915098267643625,40.54406158694178
3.3607692755836114,1.7911488659867065,1431,52,22.915098267643625,40.54406158694178
3.3786761974184025,1.7911309587086028,1431,52,22.915098267643625,40.54406158694178
3.396582940225969,1.7911130516095297,1431,52,22.915098267643625,40.54406158694178
3.4144895040081096,1.7910951446894856,1431,52,22.915098267643625,40.54406158694178
3.4323958887666204,1.7910772379484687,1431,52,22.915098267643625,40.54406158694178
3.4503020945032987,1.7910593313864773,1431,52,22.915098267643625,40.54406158694178
3.4682081212199396,1.7910414250035094,1431,52,22.915098267643625,40.54406158694178
3.486113968918339,1.7910235187995636,1431,52,22.915098267643625,40.54406158694178
3.5040196376002903,1.7910056127746374,1431,52,22.915098267643625,40.54406158694178
3.521925127267591,1.7909877069287297,1431,52,22.915098267643625,40.54406158694178
3.5398304379220336,1.7909698012618382,1431,52,22.915098267643625,40.54406158694178
3.557735569565412,1.7909518957739616,1431,52,22.915098267643625,40.54406158694178
3.575640522199519,1.7909339904650978,1431,52,22.915098267643625,40.54406158694178
3.5935452958261482,1.7909160853352448,1431,52,22.915098267643625,40.54406158694178
3.611449890447092,1.7908981803844013,1431,52,22.915098267643625,40.54406158694178
3.629354306064144,1.7908802756125652,1431,52,22.915098267643625,40.54406158694178
3.647258542679096,1.7908623710197347,1431,52,22.915098267643625,40.54406158694178
3.6651626002937396,1.7908444666059082,1431,52,22.915098267643625,40.54406158694178
3.683066478909868,1.7908265623710837,1431,52,22.915098267643625,40.54406158694178
3.700970178529272,1.7908086583152596,1431,52,22.915098267643625,40.54406158694178
3.7188736991537437,1.7907907544384338,1431,52,22.915098267643625,40.54406158694178
3.736777040785074,1.7907728507406049,1431,52,22.915098267643625,40.54406158694178
3.754680203425053,1.7907549472217708,1431,52,22.915098267643625,40.54406158694178
3.7725831870754734,1.7907370438819297,1431,52,22.915098267643625,40.54406158694178
3.7904859917381257,1.79071914072108,1431,52,22.915098267643625,40.54406158694178
3.808388617414801,1.79070123773922,1431,52,22.915098267643625,40.54406158694178
3.82629106410729,1.7906833349363478,1431,52,22.915098267643625,40.54406158694178
3.8441933318173818,1.7906654323124613,1431,52,22.915098267643625,40.54406158694178
3.8620954205468685,1.790647529867559,1431,52,22.915098267643625,40.54406158694178
3.879997330297539,1.7906296276016394,1431,52,22.915098267643625,40.54406158694178
3.8978990610711852,1.7906117255147,1431,52,22.915098267643625,40.54406158694178
3.915800612869596,1.7905938236067396,1431,52,22.915098267643625,40.54406158694178
3.933701985694563,1.7905759218777562,1431,52,22.915098267643625,40.54406158694178
3.951603179547875,1.790558020327748,1431,52,22.915098267643625,40.54406158694178
3.969504194431322,1.7905401189567132,1431,52,22.915098267643625,40.54406158694178
3.987405030346693,1.79052221776465,1431,52,22.915098267643625,40.54406158694178
4.005305687295779,1.7905043167515566,1431,52,22.915098267643625,40.54406158694178
4.023206165280371,1.7904864159174314,1431,52,22.915098267643625,40.54406158694178
4.041106464302256,1.7904685152622724,1431,52,22.915098267643625,40.54406158694178
4.059006584363225,1.790450614786078,1431,52,22.915098267643625,40.54406158694178
4.076906525465066,1.790432714488846,1431,52,22.915098267643625,40.54406158694178
4.094806287609573,1.7904148143705751,1431,52,22.915098267643625,40.54406158694178
4.11270587079853,1.7903969144312635,1431,52,22.915098267643625,40.54406158694178
4.130605275033729,1.7903790146709089,1431,52,22.915098267643625,40.54406158694178
4.14850450031696,1.79036111508951,1431,52,22.915098267643625,40.54406158694178
4.166403546650012,1.7903432156870647,1431,52,22.915098267643625,40.54406158694178
4.184302414034675,1.7903253164635715,1431,52,22.915098267643625,40.54406158694178
4.202201102472736,1.7903074174190283,1431,52,22.915098267643625,40.54406158694178
4.220099611965987,1.7902895185534335,1431,52,22.915098267643625,40.54406158694178
4.237997942516213,1.7902716198667854,1431,52,22.915098267643625,40.54406158694178
4.255896094125207,1.7902537213590821,1431,52,22.915098267643625,40.54406158694178
4.273794066794758,1.7902358230303217,1431,52,22.915098267643625,40.54406158694178
