Vout,Iout,Irradiance,Temperature,MaxVoltage,MaxPower
0.012096083691502967,2.41924,1951,45,22.928627842767522,54.84920509528707
0.03628802740647295,2.41924,1951,45,22.928627842767522,54.84920509528707
0.060479479305295125,2.4192276619923083,1951,45,22.928627842767522,54.84920509528707
0.08467035152517752,2.4192034700485934,1951,45,22.928627842767522,54.84920509528707
0.10886061535103546,2.4191792785979285,1951,45,22.928627842767522,54.84920509528707
0.1330502989902096,2.419155087728128,1951,45,22.928627842767522,54.84920509528707
0.15723942848071348,2.419130897466721,1951,45,22.928627842767522,54.84920509528707
0.18142802785760906,2.4191067077855006,1951,45,22.928627842767522,54.84920509528707
0.20561611930684867,2.4190825186584295,1951,45,22.928627842767522,54.84920509528707
0.22980372330754886,2.4190583300614716,1951,45,22.928627842767522,54.84920509528707
0.25399085876331656,2.4190341419724413,1951,45,22.928627842767522,54.84920509528707
0.2781775431234716,2.419009954370859,1951,45,22.928627842767522,54.84920509528707
0.30236379249494155,2.4189857672378223,1951,45,22.928627842767522,54.84920509528707
0.32654962174554797,2.418961580555881,1951,45,22.928627842767522,54.84920509528707
0.35073504459934435,2.4189373943089283,1951,45,22.928627842767522,54.84920509528707
0.3749200737246202,2.4189132084820963,1951,45,22.928627842767522,54.84920509528707
0.39910472081513315,2.418889023061661,1951,45,22.928627842767522,54.84920509528707
0.4232889966650901,2.4188648380349544,1951,45,22.928627842767522,54.84920509528707
0.4474729112383613,2.418840653390282,1951,45,22.928627842767522,54.84920509528707
0.47165647373236663,2.4188164691168508,1951,45,22.928627842767522,54.84920509528707
0.4958396926370482,2.418792285204696,1951,45,22.928627842767522,54.84920509528707
0.5200225757893048,2.4187681016446207,1951,45,22.928627842767522,54.84920509528707
0.5442051304232376,2.418743918428134,1951,45,22.928627842767522,54.84920509528707
0.5683873632165306,2.4187197355474,1951,45,22.928627842767522,54.84920509528707
0.5925692803332624,2.418695552995185,1951,45,22.928627842767522,54.84920509528707
0.6167508874634235,2.4186713707648098,1951,45,22.928627842767522,54.84920509528707
0.6409321898593938,2.418647188850111,1951,45,22.928627842767522,54.84920509528707
0.6651131923696125,2.418623007245399,1951,45,22.928627842767522,54.84920509528707
0.6892938994696584,2.4185988259454216,1951,45,22.928627842767522,54.84920509528707
0.7134743152909381,2.4185746449453296,1951,45,22.928627842767522,54.84920509528707
0.7376544436471669,2.4185504642406475,1951,45,22.928627842767522,54.84920509528707
0.7618342880588135,2.4185262838272443,1951,45,22.928627842767522,54.84920509528707
0.7860138517756616,2.4185021037013064,1951,45,22.928627842767522,54.84920509528707
0.8101931377976376,2.418477923859313,1951,45,22.928627842767522,54.84920509528707
0.8343721488940344,2.418453744298014,1951,45,22.928627842767522,54.84920509528707
0.8585508876212578,2.4184295650144096,1951,45,22.928627842767522,54.84920509528707
0.882729356339205,2.4184053860057313,1951,45,22.928627842767522,54.84920509528707
0.906907557226385,2.418381207269422,1951,45,22.928627842767522,54.84920509528707
0.9310854922938753,2.418357028803122,1951,45,22.928627842767522,54.84920509528707
0.9552631633982033,2.418332850604653,1951,45,22.928627842767522,54.84920509528707
0.9794405722532386,2.418308672672003,1951,45,22.928627842767522,54.84920509528707
1.0036177204411683,2.4182844950033164,1951,45,22.928627842767522,54.84920509528707
1.0277946094226302,2.4182603175968795,1951,45,22.928627842767522,54.84920509528707
1.0519712405460637,2.4182361404511092,1951,45,22.928627842767522,54.84920509528707
1.0761476150563436,2.4182119635645454,1951,45,22.928627842767522,54.84920509528707
1.1003237341027476,2.4181877869358397,1951,45,22.928627842767522,54.84920509528707
1.1244995987463118,2.418163610563747,1951,45,22.928627842767522,54.84920509528707
1.148675209966621,2.4181394344471183,1951,45,22.928627842767522,54.84920509528707
1.1728505686680748,2.4181152585848924,1951,45,22.928627842767522,54.84920509528707
1.1970256756856728,2.41809108297609,1951,45,22.928627842767522,54.84920509528707
1.221200531790354,2.418066907619806,1951,45,22.928627842767522,54.84920509528707
1.245375137693927,2.418042732515206,1951,45,22.928627842767522,54.84920509528707
1.269549494053618,2.4180185576615187,1951,45,22.928627842767522,54.84920509528707
1.2937236014762705,2.4179943830580326,1951,45,22.928627842767522,54.84920509528707
1.3178974605222233,2.4179702087040904,1951,45,22.928627842767522,54.84920509528707
1.3420710717088877,2.417946034599085,1951,45,22.928627842767522,54.84920509528707
1.3662444355140493,2.4179218607424566,1951,45,22.928627842767522,54.84920509528707
1.3904175523789195,2.4178976871336877,1951,45,22.928627842767522,54.84920509528707
1.4145904227109478,2.4178735137722995,1951,45,22.928627842767522,54.84920509528707
1.438763046886419,2.417849340657852,1951,45,22.928627842767522,54.84920509528707
1.4629354252528524,2.4178251677899376,1951,45,22.928627842767522,54.84920509528707
1.487107558131214,2.417800995168179,1951,45,22.928627842767522,54.84920509528707
1.5112794458179613,2.4177768227922303,1951,45,22.928627842767522,54.84920509528707
1.5354510885869261,2.417752650661769,1951,45,22.928627842767522,54.84920509528707
1.559622486691058,2.4177284787764997,1951,45,22.928627842767522,54.84920509528707
1.5837936403640303,2.4177043071361477,1951,45,22.928627842767522,54.84920509528707
1.607964549821722,2.417680135740461,1951,45,22.928627842767522,54.84920509528707
1.6321352152635893,2.4176559645892053,1951,45,22.928627842767522,54.84920509528707
1.6563056368739268,2.4176317936821645,1951,45,22.928627842767522,54.84920509528707
1.680475814823035,2.4176076230191397,1951,45,22.928627842767522,54.84920509528707
1.7046457492682972,2.4175834525999464,1951,45,22.928627842767522,54.84920509528707
1.7288154403551736,2.4175592824244143,1951,45,22.928627842767522,54.84920509528707
1.7529848882181183,2.417535112492386,1951,45,22.928627842767522,54.84920509528707
1.7771540929814256,2.4175109428037165,1951,45,22.928627842767522,54.84920509528707
1.8013230547600125,2.4174867733582706,1951,45,22.928627842767522,54.84920509528707
1.8254917736601404,2.417462604155924,1951,45,22.928627842767522,54.84920509528707
1.8496602497800805,2.4174384351965625,1951,45,22.928627842767522,54.84920509528707
1.8738284832107281,2.4174142664800793,1951,45,22.928627842767522,54.84920509528707
1.8979964740361708,2.417390098006376,1951,45,22.928627842767522,54.84920509528707
1.9221642223342132,2.4173659297753622,1951,45,22.928627842767522,54.84920509528707
1.9463317281768584,2.417341761786954,1951,45,22.928627842767522,54.84920509528707
1.9704989916307556,2.4173175940410725,1951,45,22.928627842767522,54.84920509528707
1.9946660127576112,2.417293426537647,1951,45,22.928627842767522,54.84920509528707
2.018832791614571,2.4172692592766096,1951,45,22.928627842767522,54.84920509528707
2.0429993282545684,2.4172450922578994,1951,45,22.928627842767522,54.84920509528707
2.067165622726651,2.4172209254814594,1951,45,22.928627842767522,54.84920509528707
2.091331675076277,2.417196758947236,1951,45,22.928627842767522,54.84920509528707
2.1154974853455943,2.417172592655181,1951,45,22.928627842767522,54.84920509528707
2.139663053573692,2.4171484266052476,1951,45,22.928627842767522,54.84920509528707
2.163828379796839,2.417124260797395,1951,45,22.928627842767522,54.84920509528707
2.1879934640486995,2.4171000952315835,1951,45,22.928627842767522,54.84920509528707
2.212158306360532,2.417075929907777,1951,45,22.928627842767522,54.84920509528707
2.2363229067613775,2.4170517648259415,1951,45,22.928627842767522,54.84920509528707
2.260487265278226,2.417027599986046,1951,45,22.928627842767522,54.84920509528707
2.284651381936178,2.417003435388062,1951,45,22.928627842767522,54.84920509528707
2.3088152567585896,2.4169792710319618,1951,45,22.928627842767522,54.84920509528707
2.3329788897672037,2.41695510691772,1951,45,22.928627842767522,54.84920509528707
2.3571422809822775,2.416930943045314,1951,45,22.928627842767522,54.84920509528707
2.381305430422695,2.416906779414722,1951,45,22.928627842767522,54.84920509528707
2.405468338106073,2.4168826160259234,1951,45,22.928627842767522,54.84920509528707
2.429631004048858,2.416858452878899,1951,45,22.928627842767522,54.84920509528707
2.4537934282664167,2.4168342899736324,1951,45,22.928627842767522,54.84920509528707
2.477955610773122,2.4168101273101055,1951,45,22.928627842767522,54.84920509528707
2.502117551582423,2.4167859648883043,1951,45,22.928627842767522,54.84920509528707
2.5262792507069225,2.416761802708214,1951,45,22.928627842767522,54.84920509528707
2.550440708158438,2.416737640769821,1951,45,22.928627842767522,54.84920509528707
2.5746019239480646,2.416713479073113,1951,45,22.928627842767522,54.84920509528707
2.598762898086228,2.4166893176180775,1951,45,22.928627842767522,54.84920509528707
2.622923630582739,2.416665156404704,1951,45,22.928627842767522,54.84920509528707
2.647084121446838,2.416640995432982,1951,45,22.928627842767522,54.84920509528707
2.6712443706872424,2.4166168347029013,1951,45,22.928627842767522,54.84920509528707
2.6954043783121815,2.4165926742144537,1951,45,22.928627842767522,54.84920509528707
2.71956414432944,2.416568513967629,1951,45,22.928627842767522,54.84920509528707
2.7437236687463886,2.4165443539624203,1951,45,22.928627842767522,54.84920509528707
2.767882951570016,2.416520194198819,1951,45,22.928627842767522,54.84920509528707
2.7920419928069586,2.416496034676818,1951,45,22.928627842767522,54.84920509528707
2.81620079246353,2.4164718753964105,1951,45,22.928627842767522,54.84920509528707
2.8403593505457425,2.4164477163575895,1951,45,22.928627842767522,54.84920509528707
2.86451766705933,2.4164235575603485,1951,45,22.928627842767522,54.84920509528707
2.888675742009774,2.4163993990046824,1951,45,22.928627842767522,54.84920509528707
2.9128335754023182,2.4163752406905847,1951,45,22.928627842767522,54.84920509528707
2.9369911672419895,2.4163510826180503,1951,45,22.928627842767522,54.84920509528707
2.9611485175336134,2.4163269247870733,1951,45,22.928627842767522,54.84920509528707
2.9853056262818285,2.41630276719765,1951,45,22.928627842767522,54.84920509528707
3.009462493491104,2.416278609849774,1951,45,22.928627842767522,54.84920509528707
3.0336191191657513,2.4162544527434413,1951,45,22.928627842767522,54.84920509528707
3.0577755033099345,2.416230295878648,1951,45,22.928627842767522,54.84920509528707
3.0819316459276838,2.416206139255389,1951,45,22.928627842767522,54.84920509528707
3.1060875470229043,2.41618198287366,1951,45,22.928627842767522,54.84920509528707
3.1302432065993884,2.4161578267334582,1951,45,22.928627842767522,54.84920509528707
3.15439862466082,2.4161336708347787,1951,45,22.928627842767522,54.84920509528707
3.1785538012107852,2.416109515177618,1951,45,22.928627842767522,54.84920509528707
3.202708736252783,2.416085359761972,1951,45,22.928627842767522,54.84920509528707
3.2268634297902272,2.4160612045878374,1951,45,22.928627842767522,54.84920509528707
3.251017881826453,2.4160370496552113,1951,45,22.928627842767522,54.84920509528707
3.2751720923647274,2.4160128949640893,1951,45,22.928627842767522,54.84920509528707
3.2993260614082485,2.4159887405144684,1951,45,22.928627842767522,54.84920509528707
3.323479788960159,2.4159645863063455,1951,45,22.928627842767522,54.84920509528707
3.3476332750235414,2.4159404323397173,1951,45,22.928627842767522,54.84920509528707
3.371786519601427,2.415916278614581,1951,45,22.928627842767522,54.84920509528707
3.395939522696802,2.415892125130933,1951,45,22.928627842767522,54.84920509528707
3.420092284312606,2.4158679718887703,1951,45,22.928627842767522,54.84920509528707
3.4442448044517406,2.4158438188880904,1951,45,22.928627842767522,54.84920509528707
3.4683970831170683,2.41581966612889,1951,45,22.928627842767522,54.84920509528707
3.4925491203114163,2.415795513611166,1951,45,22.928627842767522,54.84920509528707
3.516700916037583,2.415771361334916,1951,45,22.928627842767522,54.84920509528707
3.540852470298333,2.415747209300137,1951,45,22.928627842767522,54.84920509528707
3.565003783096407,2.4157230575068263,1951,45,22.928627842767522,54.84920509528707
3.589154854434521,2.4156989059549807,1951,45,22.928627842767522,54.84920509528707
3.613305684315366,2.4156747546445976,1951,45,22.928627842767522,54.84920509528707
3.637456272741612,2.4156506035756746,1951,45,22.928627842767522,54.84920509528707
3.6616066197159083,2.415626452748209,1951,45,22.928627842767522,54.84920509528707
3.6857567252408883,2.4156023021621977,1951,45,22.928627842767522,54.84920509528707
3.7099065893191674,2.4155781518176385,1951,45,22.928627842767522,54.84920509528707
3.7340562119533445,2.4155540017145287,1951,45,22.928627842767522,54.84920509528707
3.7582055931460068,2.4155298518528654,1951,45,22.928627842767522,54.84920509528707
3.7823547328997247,2.4155057022326463,1951,45,22.928627842767522,54.84920509528707
3.8065036312170606,2.4154815528538687,1951,45,22.928627842767522,54.84920509528707
3.8306522881005605,2.41545740371653,1951,45,22.928627842767522,54.84920509528707
3.8548007035527645,2.4154332548206274,1951,45,22.928627842767522,54.84920509528707
3.8789488775762004,2.415409106166159,1951,45,22.928627842767522,54.84920509528707
3.9030968101733903,2.4153849577531217,1951,45,22.928627842767522,54.84920509528707
3.927244501346843,2.415360809581513,1951,45,22.928627842767522,54.84920509528707
3.951391951099065,2.4153366616513305,1951,45,22.928627842767522,54.84920509528707
3.975539159432552,2.415312513962572,1951,45,22.928627842767522,54.84920509528707
3.9996861263497956,2.4152883665152345,1951,45,22.928627842767522,54.84920509528707
4.02383285185328,2.4152642193093157,1951,45,22.928627842767522,54.84920509528707
4.047979335945484,2.4152400723448135,1951,45,22.928627842767522,54.84920509528707
4.072125578628882,2.4152159256217245,1951,45,22.928627842767522,54.84920509528707
4.096271579905945,2.4151917791400472,1951,45,22.928627842767522,54.84920509528707
4.120417339779136,2.415167632899778,1951,45,22.928627842767522,54.84920509528707
4.144562858250917,2.415143486900916,1951,45,22.928627842767522,54.84920509528707
4.1687081353237465,2.4151193411434573,1951,45,22.928627842767522,54.84920509528707
4.192853171000076,2.4150951956274,1951,45,22.928627842767522,54.84920509528707
4.216997965282359,2.415071050352742,1951,45,22.928627842767522,54.84920509528707
4.241142518173042,2.41504690531948,1951,45,22.928627842767522,54.84920509528707
4.265286829674571,2.4150227605276124,1951,45,22.928627842767522,54.84920509528707
4.289430899789389,2.414998615977136,1951,45,22.928627842767522,54.84920509528707
4.313574728519937,2.414974471668049,1951,45,22.928627842767522,54.84920509528707
4.337718315868651,2.414950327600349,1951,45,22.928627842767522,54.84920509528707
4.3618616618379695,2.414926183774033,1951,45,22.928627842767522,54.84920509528707
4.386004766430326,2.4149020401890984,1951,45,22.928627842767522,54.84920509528707
4.410147629648154,2.4148778968455433,1951,45,22.928627842767522,54.84920509528707
4.434290251493887,2.4148537537433654,1951,45,22.928627842767522,54.84920509528707
4.458432631969952,2.414829610882562,1951,45,22.928627842767522,54.84920509528707
4.482574771078778,2.4148054682631304,1951,45,22.928627842767522,54.84920509528707
4.506716668822793,2.4147813258850688,1951,45,22.928627842767522,54.84920509528707
4.5308583252044246,2.414757183748374,1951,45,22.928627842767522,54.84920509528707
4.554999740226097,2.4147330418530446,1951,45,22.928627842767522,54.84920509528707
4.579140913890233,2.414708900199077,1951,45,22.928627842767522,54.84920509528707
4.603281846199258,2.4146847587864695,1951,45,22.928627842767522,54.84920509528707
4.627422537155594,2.4146606176152194,1951,45,22.928627842767522,54.84920509528707
4.651562986761662,2.4146364766853248,1951,45,22.928627842767522,54.84920509528707
4.675703195019885,2.4146123359967824,1951,45,22.928627842767522,54.84920509528707
4.699843161932683,2.4145881955495905,1951,45,22.928627842767522,54.84920509528707
4.7239828875024745,2.4145640553437464,1951,45,22.928627842767522,54.84920509528707
4.748122371731681,2.4145399153792475,1951,45,22.928627842767522,54.84920509528707
4.772261614622719,2.414515775656092,1951,45,22.928627842767522,54.84920509528707
4.7964006161780075,2.4144916361742768,1951,45,22.928627842767522,54.84920509528707
4.820539376399965,2.4144674969337996,1951,45,22.928627842767522,54.84920509528707
4.8446778952910075,2.4144433579346583,1951,45,22.928627842767522,54.84920509528707
4.868816172853554,2.41441921917685,1951,45,22.928627842767522,54.84920509528707
4.8929542090900195,2.414395080660373,1951,45,22.928627842767522,54.84920509528707
4.917092004002823,2.4143709423852244,1951,45,22.928627842767522,54.84920509528707
4.941229557594377,2.4143468043514016,1951,45,22.928627842767522,54.84920509528707
4.9653668698671,2.4143226665589026,1951,45,22.928627842767522,54.84920509528707
4.989503940823407,2.4142985290077252,1951,45,22.928627842767522,54.84920509528707
5.013640770465712,2.414274391697866,1951,45,22.928627842767522,54.84920509528707
5.037777358796431,2.4142502546293234,1951,45,22.928627842767522,54.84920509528707
5.06191370581798,2.414226117802095,1951,45,22.928627842767522,54.84920509528707
5.08604981153277,2.414201981216178,1951,45,22.928627842767522,54.84920509528707
5.110185675943218,2.41417784487157,1951,45,22.928627842767522,54.84920509528707
5.134321299051739,2.4141537087682687,1951,45,22.928627842767522,54.84920509528707
5.158456680860746,2.414129572906272,1951,45,22.928627842767522,54.84920509528707
5.182591821372653,2.4141054372855772,1951,45,22.928627842767522,54.84920509528707
5.206726720589873,2.4140813019061818,1951,45,22.928627842767522,54.84920509528707
5.230861378514821,2.4140571667680835,1951,45,22.928627842767522,54.84920509528707
5.25499579514991,2.4140330318712797,1951,45,22.928627842767522,54.84920509528707
5.279129970497554,2.4140088972157683,1951,45,22.928627842767522,54.84920509528707
5.303263904560166,2.413984762801547,1951,45,22.928627842767522,54.84920509528707
5.327397597340157,2.4139606286286126,1951,45,22.928627842767522,54.84920509528707
5.351531048839946,2.4139364946969635,1951,45,22.928627842767522,54.84920509528707
5.3756642590619395,2.413912361006597,1951,45,22.928627842767522,54.84920509528707
5.399797228008554,2.41388822755751,1951,45,22.928627842767522,54.84920509528707
5.423929955682202,2.4138640943497016,1951,45,22.928627842767522,54.84920509528707
5.448062442085294,2.4138399613831685,1951,45,22.928627842767522,54.84920509528707
5.472194687220247,2.413815828657908,1951,45,22.928627842767522,54.84920509528707
5.49632669108947,2.4137916961739183,1951,45,22.928627842767522,54.84920509528707
5.520458453695378,2.413767563931197,1951,45,22.928627842767522,54.84920509528707
5.544589975040381,2.4137434319297406,1951,45,22.928627842767522,54.84920509528707
5.568721255126893,2.4137193001695483,1951,45,22.928627842767522,54.84920509528707
5.5928522939573275,2.4136951686506163,1951,45,22.928627842767522,54.84920509528707
5.616983091534095,2.413671037372943,1951,45,22.928627842767522,54.84920509528707
5.641113647859609,2.413646906336526,1951,45,22.928627842767522,54.84920509528707
5.665243962936281,2.413622775541362,1951,45,22.928627842767522,54.84920509528707
5.689374036766523,2.4135986449874496,1951,45,22.928627842767522,54.84920509528707
5.713503869352747,2.413574514674786,1951,45,22.928627842767522,54.84920509528707
5.737633460697365,2.413550384603369,1951,45,22.928627842767522,54.84920509528707
5.761762810802792,2.4135262547731955,1951,45,22.928627842767522,54.84920509528707
5.785891919671435,2.413502125184264,1951,45,22.928627842767522,54.84920509528707
