Vout,Iout,Irradiance,Temperature,MaxVoltage,MaxPower
0.011417560215767158,2.283534,1821,52,22.931087128817264,51.77620858630036
0.03425246952580678,2.283534,1821,52,22.931087128817264,51.77620858630036
0.05708691460786766,2.2835223540863843,1821,52,22.931087128817264,51.77620858630036
0.07992081252777514,2.283499519177074,1821,52,22.931087128817264,51.77620858630036
0.10275413618120209,2.2834766847331567,1821,52,22.931087128817264,51.77620858630036
0.12558691219321327,2.28345385083752,1821,52,22.931087128817264,51.77620858630036
0.14841916514123343,2.28343101751615,1821,52,22.931087128817264,51.77620858630036
0.1712509177120903,2.2834081847424215,1821,52,22.931087128817264,51.77620858630036
0.19408219084722697,2.283385352491757,1821,52,22.931087128817264,51.77620858630036
0.2169130038769945,2.2833625207414694,1821,52,22.931087128817264,51.77620858630036
0.23974337464461204,2.2833396894706173,1821,52,22.931087128817264,51.77620858630036
0.2625733196205889,2.283316858659871,1821,52,22.931087128817264,51.77620858630036
0.28540285400834314,2.2832940282913863,1821,52,22.931087128817264,51.77620858630036
0.3082319918416932,2.2832711983486935,1821,52,22.931087128817264,51.77620858630036
0.33106074607484953,2.2832483688165888,1821,52,22.931087128817264,51.77620858630036
0.35388912866548045,2.2832255396810384,1821,52,22.931087128817264,51.77620858630036
0.3767171506513881,2.283202710929088,1821,52,22.931087128817264,51.77620858630036
0.3995448222212844,2.2831798825487803,1821,52,22.931087128817264,51.77620858630036
0.42237215278012114,2.2831570545290774,1821,52,22.931087128817264,51.77620858630036
0.44519915100939395,2.2831342268597905,1821,52,22.931087128817264,51.77620858630036
0.46802582492280626,2.2831113995315144,1821,52,22.931087128817264,51.77620858630036
0.49085218191764973,2.283088572535568,1821,52,22.931087128817264,51.77620858630036
0.5136782288222326,2.2830657458639374,1821,52,22.931087128817264,51.77620858630036
0.5365039719396577,2.283042919509225,1821,52,22.931087128817264,51.77620858630036
0.5593294170882328,2.283020093464603,1821,52,22.931087128817264,51.77620858630036
0.5821545696387717,2.2829972677237684,1821,52,22.931087128817264,51.77620858630036
0.6049794345490244,2.2829744422809024,1821,52,22.931087128817264,51.77620858630036
0.6278040163954594,2.2829516171306343,1821,52,22.931087128817264,51.77620858630036
0.6506283194026007,2.282928792268007,1821,52,22.931087128817264,51.77620858630036
0.6734523474701053,2.2829059676884427,1821,52,22.931087128817264,51.77620858630036
0.6962761041977606,2.282883143387718,1821,52,22.931087128817264,51.77620858630036
0.719099592908556,2.2828603193619332,1821,52,22.931087128817264,51.77620858630036
0.7419228166699808,2.2828374956074877,1821,52,22.931087128817264,51.77620858630036
0.7647457783136814,2.2828146721210594,1821,52,22.931087128817264,51.77620858630036
0.7875684804536095,2.2827918488995804,1821,52,22.931087128817264,51.77620858630036
0.8103909255027701,2.282769025940219,1821,52,22.931087128817264,51.77620858630036
0.8332131156886833,2.2827462032403614,1821,52,22.931087128817264,51.77620858630036
0.8560350530676559,2.2827233807975946,1821,52,22.931087128817264,51.77620858630036
0.8788567395379551,2.282700558609691,1821,52,22.931087128817264,51.77620858630036
0.9016781768519672,2.2826777366745943,1821,52,22.931087128817264,51.77620858630036
0.9244993666274232,2.282654914990406,1821,52,22.931087128817264,51.77620858630036
0.9473203103577585,2.282632093555374,1821,52,22.931087128817264,51.77620858630036
0.9701410094216768,2.282609272367881,1821,52,22.931087128817264,51.77620858630036
0.992961465091978,2.282586451426433,1821,52,22.931087128817264,51.77620858630036
1.0157816785437055,2.282563630729651,1821,52,22.931087128817264,51.77620858630036
1.0386016508616693,2.282540810276263,1821,52,22.931087128817264,51.77620858630036
1.0614213830473873,2.2825179900650934,1821,52,22.931087128817264,51.77620858630036
1.0842408760254956,2.282495170095057,1821,52,22.931087128817264,51.77620858630036
1.1070601306496608,2.2824723503651536,1821,52,22.931087128817264,51.77620858630036
1.129879147708044,2.2824495308744575,1821,52,22.931087128817264,51.77620858630036
1.1526979279283394,2.282426711622115,1821,52,22.931087128817264,51.77620858630036
1.1755164719824263,2.2824038926073387,1821,52,22.931087128817264,51.77620858630036
1.1983347804906643,2.2823810738294004,1821,52,22.931087128817264,51.77620858630036
1.2211528540258567,2.2823582552876283,1821,52,22.931087128817264,51.77620858630036
1.2439706931169108,2.282335436981402,1821,52,22.931087128817264,51.77620858630036
1.2667882982522125,2.2823126189101486,1821,52,22.931087128817264,51.77620858630036
1.2896056698827478,2.2822898010733392,1821,52,22.931087128817264,51.77620858630036
1.3124228084249783,2.282266983470486,1821,52,22.931087128817264,51.77620858630036
1.335239714263497,2.2822441661011372,1821,52,22.931087128817264,51.77620858630036
1.3580563877534815,2.282221348964877,1821,52,22.931087128817264,51.77620858630036
1.3808728292229577,2.28219853206132,1821,52,22.931087128817264,51.77620858630036
1.403689038974887,2.2821757153901117,1821,52,22.931087128817264,51.77620858630036
1.426505017289097,2.282152898950924,1821,52,22.931087128817264,51.77620858630036
1.4493207644240589,2.2821300827434534,1821,52,22.931087128817264,51.77620858630036
1.4721362806185334,2.282107266767421,1821,52,22.931087128817264,51.77620858630036
1.4949515660930863,2.2820844510225675,1821,52,22.931087128817264,51.77620858630036
1.517766621051487,2.2820616355086547,1821,52,22.931087128817264,51.77620858630036
1.5405814456820028,2.282038820225462,1821,52,22.931087128817264,51.77620858630036
1.5633960401585905,2.282016005172785,1821,52,22.931087128817264,51.77620858630036
1.5862104046419978,2.281993190350436,1821,52,22.931087128817264,51.77620858630036
1.6090245392807798,2.281970375758241,1821,52,22.931087128817264,51.77620858630036
1.6318384442122373,2.2819475613960387,1821,52,22.931087128817264,51.77620858630036
1.6546521195632822,2.2819247472636817,1821,52,22.931087128817264,51.77620858630036
1.6774655654512363,2.2819019333610315,1821,52,22.931087128817264,51.77620858630036
1.7002787819845706,2.2818791196879618,1821,52,22.931087128817264,51.77620858630036
1.723091769263586,2.2818563062443555,1821,52,22.931087128817264,51.77620858630036
1.7459045273810405,2.2818334930301036,1821,52,22.931087128817264,51.77620858630036
1.7687170564227315,2.2818106800451057,1821,52,22.931087128817264,51.77620858630036
1.7915293564680297,2.2817878672892697,1821,52,22.931087128817264,51.77620858630036
1.8143414275903746,2.2817650547625092,1821,52,22.931087128817264,51.77620858630036
1.8371532698577309,2.281742242464745,1821,52,22.931087128817264,51.77620858630036
1.8599648833330087,2.281719430395904,1821,52,22.931087128817264,51.77620858630036
1.882776268074454,2.2816966185559178,1821,52,22.931087128817264,51.77620858630036
1.9055874241360062,2.281673806944724,1821,52,22.931087128817264,51.77620858630036
1.9283983515676293,2.2816509955622637,1821,52,22.931087128817264,51.77620858630036
1.9512090504156197,2.281628184408483,1821,52,22.931087128817264,51.77620858630036
1.9740195207228861,2.2816053734833326,1821,52,22.931087128817264,51.77620858630036
1.996829762529211,2.281582562786766,1821,52,22.931087128817264,51.77620858630036
2.0196397758714926,2.28155975231874,1821,52,22.931087128817264,51.77620858630036
2.0424495607839646,2.2815369420792146,1821,52,22.931087128817264,51.77620858630036
2.0652591172984027,2.2815141320681533,1821,52,22.931087128817264,51.77620858630036
2.0880684454443115,2.2814913222855218,1821,52,22.931087128817264,51.77620858630036
2.110877545249102,2.2814685127312884,1821,52,22.931087128817264,51.77620858630036
2.1336864167382528,2.2814457034054234,1821,52,22.931087128817264,51.77620858630036
2.1564950599354553,2.2814228943079,1821,52,22.931087128817264,51.77620858630036
2.179303474862755,2.2814000854386913,1821,52,22.931087128817264,51.77620858630036
2.2021116615406755,2.281377276797775,1821,52,22.931087128817264,51.77620858630036
2.224919619988338,2.281354468385129,1821,52,22.931087128817264,51.77620858630036
2.247727350223566,2.2813316602007316,1821,52,22.931087128817264,51.77620858630036
2.2705348522629887,2.281308852244565,1821,52,22.931087128817264,51.77620858630036
2.2933421261221314,2.2812860445166105,1821,52,22.931087128817264,51.77620858630036
2.3161491718154976,2.2812632370168515,1821,52,22.931087128817264,51.77620858630036
2.3389559893566534,2.2812404297452735,1821,52,22.931087128817264,51.77620858630036
2.361762578758294,2.2812176227018606,1821,52,22.931087128817264,51.77620858630036
2.3845689400323167,2.2811948158866002,1821,52,22.931087128817264,51.77620858630036
2.4073750731898738,2.2811720092994796,1821,52,22.931087128817264,51.77620858630036
2.4301809782414385,2.281149202940486,1821,52,22.931087128817264,51.77620858630036
2.4529866551968524,2.281126396809609,1821,52,22.931087128817264,51.77620858630036
2.4757921040653765,2.281103590906838,1821,52,22.931087128817264,51.77620858630036
2.4985973248557327,2.2810807852321635,1821,52,22.931087128817264,51.77620858630036
2.5214023175761477,2.2810579797855755,1821,52,22.931087128817264,51.77620858630036
2.544207082234391,2.281035174567066,1821,52,22.931087128817264,51.77620858630036
2.56701161883781,2.281012369576626,1821,52,22.931087128817264,51.77620858630036
2.589815927393361,2.280989564814248,1821,52,22.931087128817264,51.77620858630036
2.612620007907642,2.280966760279925,1821,52,22.931087128817264,51.77620858630036
2.635423860386917,2.28094395597365,1821,52,22.931087128817264,51.77620858630036
2.6582274848371448,2.2809211518954164,1821,52,22.931087128817264,51.77620858630036
2.681030881264,2.2808983480452176,1821,52,22.931087128817264,51.77620858630036
2.7038340496728974,2.2808755444230475,1821,52,22.931087128817264,51.77620858630036
2.726636990069008,2.2808527410289012,1821,52,22.931087128817264,51.77620858630036
2.7494397024572828,2.2808299378627725,1821,52,22.931087128817264,51.77620858630036
2.7722421868424667,2.280807134924657,1821,52,22.931087128817264,51.77620858630036
2.7950444432291137,2.280784332214549,1821,52,22.931087128817264,51.77620858630036
2.817846471621603,2.280761529732444,1821,52,22.931087128817264,51.77620858630036
2.8406482720241533,2.2807387274783375,1821,52,22.931087128817264,51.77620858630036
2.863449844440834,2.2807159254522253,1821,52,22.931087128817264,51.77620858630036
2.8862511888755753,2.2806931236541033,1821,52,22.931087128817264,51.77620858630036
2.909052305332181,2.2806703220839664,1821,52,22.931087128817264,51.77620858630036
2.931853193814339,2.280647520741812,1821,52,22.931087128817264,51.77620858630036
2.954653854325626,2.2806247196276357,1821,52,22.931087128817264,51.77620858630036
2.9774542868695213,2.2806019187414335,1821,52,22.931087128817264,51.77620858630036
3.00025449144941,2.2805791180832022,1821,52,22.931087128817264,51.77620858630036
3.0230544680685942,2.2805563176529384,1821,52,22.931087128817264,51.77620858630036
3.045854216730295,2.280533517450639,1821,52,22.931087128817264,51.77620858630036
3.0686537374376623,2.2805107174762997,1821,52,22.931087128817264,51.77620858630036
3.091453030193778,2.2804879177299178,1821,52,22.931087128817264,51.77620858630036
3.114252095001664,2.2804651182114903,1821,52,22.931087128817264,51.77620858630036
3.1370509318642834,2.2804423189210143,1821,52,22.931087128817264,51.77620858630036
3.159849540784547,2.2804195198584867,1821,52,22.931087128817264,51.77620858630036
3.182647921765317,2.280396721023904,1821,52,22.931087128817264,51.77620858630036
3.205446074809411,2.2803739224172634,1821,52,22.931087128817264,51.77620858630036
3.228243999919604,2.2803511240385625,1821,52,22.931087128817264,51.77620858630036
3.2510416970986356,2.2803283258877984,1821,52,22.931087128817264,51.77620858630036
3.2738391663492057,2.280305527964968,1821,52,22.931087128817264,51.77620858630036
3.296636407673985,2.2802827302700686,1821,52,22.931087128817264,51.77620858630036
3.3194334210756136,2.280259932803098,1821,52,22.931087128817264,51.77620858630036
3.3422302065567018,2.280237135564053,1821,52,22.931087128817264,51.77620858630036
3.3650267641198375,2.280214338552931,1821,52,22.931087128817264,51.77620858630036
3.3878230937675813,2.28019154176973,1821,52,22.931087128817264,51.77620858630036
3.4106191955024756,2.2801687452144463,1821,52,22.931087128817264,51.77620858630036
3.4334150693270393,2.2801459488870783,1821,52,22.931087128817264,51.77620858630036
3.4562107152437744,2.280123152787623,1821,52,22.931087128817264,51.77620858630036
3.479006133255166,2.280100356916078,1821,52,22.931087128817264,51.77620858630036
3.5018013233636833,2.280077561272441,1821,52,22.931087128817264,51.77620858630036
3.524596285571779,2.280054765856709,1821,52,22.931087128817264,51.77620858630036
3.547391019881895,2.28003197066888,1821,52,22.931087128817264,51.77620858630036
3.570185526296458,2.2800091757089516,1821,52,22.931087128817264,51.77620858630036
3.592979804817885,2.279986380976921,1821,52,22.931087128817264,51.77620858630036
3.6157738554485825,2.279963586472786,1821,52,22.931087128817264,51.77620858630036
3.638567678190945,2.2799407921965438,1821,52,22.931087128817264,51.77620858630036
3.66136127304736,2.2799179981481927,1821,52,22.931087128817264,51.77620858630036
3.684154640020207,2.2798952043277296,1821,52,22.931087128817264,51.77620858630036
3.706947779111855,2.2798724107351527,1821,52,22.931087128817264,51.77620858630036
3.72974069032467,2.279849617370459,1821,52,22.931087128817264,51.77620858630036
3.7525333736610067,2.279826824233647,1821,52,22.931087128817264,51.77620858630036
3.775325829123218,2.2798040313247134,1821,52,22.931087128817264,51.77620858630036
3.7981180567136485,2.2797812386436567,1821,52,22.931087128817264,51.77620858630036
3.8209100564346374,2.2797584461904736,1821,52,22.931087128817264,51.77620858630036
3.8437018282885216,2.2797356539651625,1821,52,22.931087128817264,51.77620858630036
3.8664933722776316,2.2797128619677207,1821,52,22.931087128817264,51.77620858630036
3.889284688404295,2.279690070198146,1821,52,22.931087128817264,51.77620858630036
3.912075776670833,2.279667278656436,1821,52,22.931087128817264,51.77620858630036
3.9348666370795673,2.2796444873425887,1821,52,22.931087128817264,51.77620858630036
3.9576572696328127,2.2796216962566014,1821,52,22.931087128817264,51.77620858630036
3.9804476743328827,2.2795989053984718,1821,52,22.931087128817264,51.77620858630036
4.00323785118209,2.2795761147681977,1821,52,22.931087128817264,51.77620858630036
4.02602780018274,2.2795533243657764,1821,52,22.931087128817264,51.77620858630036
4.04881752133714,2.279530534191206,1821,52,22.931087128817264,51.77620858630036
4.071607014647593,2.279507744244485,1821,52,22.931087128817264,51.77620858630036
4.094396280116402,2.2794849545256093,1821,52,22.931087128817264,51.77620858630036
4.117185317745865,2.279462165034578,1821,52,22.931087128817264,51.77620858630036
4.13997412753828,2.279439375771388,1821,52,22.931087128817264,51.77620858630036
4.1627627094959445,2.2794165867360374,1821,52,22.931087128817264,51.77620858630036
4.185551063621154,2.279393797928524,1821,52,22.931087128817264,51.77620858630036
4.208339189916201,2.2793710093488455,1821,52,22.931087128817264,51.77620858630036
4.231127088383379,2.279348220996999,1821,52,22.931087128817264,51.77620858630036
4.253914759024978,2.279325432872983,1821,52,22.931087128817264,51.77620858630036
4.276702201843288,2.2793026449767946,1821,52,22.931087128817264,51.77620858630036
4.299489416840601,2.2792798573084316,1821,52,22.931087128817264,51.77620858630036
4.3222764040192025,2.2792570698678922,1821,52,22.931087128817264,51.77620858630036
4.345063163381382,2.2792342826551737,1821,52,22.931087128817264,51.77620858630036
4.367849694929424,2.279211495670274,1821,52,22.931087128817264,51.77620858630036
4.3906359986656165,2.2791887089131904,1821,52,22.931087128817264,51.77620858630036
4.413422074592244,2.279165922383921,1821,52,22.931087128817264,51.77620858630036
4.43620792271159,2.2791431360824634,1821,52,22.931087128817264,51.77620858630036
4.458993543025939,2.2791203500088155,1821,52,22.931087128817264,51.77620858630036
4.481778935537578,2.2790975641629747,1821,52,22.931087128817264,51.77620858630036
4.504564100248786,2.2790747785449392,1821,52,22.931087128817264,51.77620858630036
4.527349037161847,2.279051993154706,1821,52,22.931087128817264,51.77620858630036
4.5501337462790445,2.279029207992273,1821,52,22.931087128817264,51.77620858630036
4.572918227602659,2.279006423057639,1821,52,22.931087128817264,51.77620858630036
4.595702481134971,2.2789836383508,1821,52,22.931087128817264,51.77620858630036
4.618486506878265,2.278960853871755,1821,52,22.931087128817264,51.77620858630036
4.641270304834817,2.278938069620501,1821,52,22.931087128817264,51.77620858630036
4.664053875006911,2.2789152855970363,1821,52,22.931087128817264,51.77620858630036
4.686837217396827,2.278892501801358,1821,52,22.931087128817264,51.77620858630036
4.7096203320068435,2.2788697182334645,1821,52,22.931087128817264,51.77620858630036
4.732403218839243,2.278846934893353,1821,52,22.931087128817264,51.77620858630036
4.755185877896303,2.2788241517810213,1821,52,22.931087128817264,51.77620858630036
4.777968309180301,2.2788013688964672,1821,52,22.931087128817264,51.77620858630036
4.800750512693521,2.2787785862396883,1821,52,22.931087128817264,51.77620858630036
4.8235324884382385,2.2787558038106828,1821,52,22.931087128817264,51.77620858630036
4.846314236416732,2.278733021609448,1821,52,22.931087128817264,51.77620858630036
4.869095756631284,2.2787102396359815,1821,52,22.931087128817264,51.77620858630036
4.891877049084168,2.278687457890281,1821,52,22.931087128817264,51.77620858630036
4.914658113777665,2.278664676372345,1821,52,22.931087128817264,51.77620858630036
4.9374389507140535,2.27864189508217,1821,52,22.931087128817264,51.77620858630036
4.960219559895612,2.2786191140197545,1821,52,22.931087128817264,51.77620858630036
4.982999941324617,2.2785963331850962,1821,52,22.931087128817264,51.77620858630036
5.005780095003347,2.2785735525781927,1821,52,22.931087128817264,51.77620858630036
5.028560020934081,2.278550772199042,1821,52,22.931087128817264,51.77620858630036
5.051339719119096,2.2785279920476413,1821,52,22.931087128817264,51.77620858630036
5.074119189560669,2.2785052121239886,1821,52,22.931087128817264,51.77620858630036
5.09689843226108,2.2784824324280817,1821,52,22.931087128817264,51.77620858630036
5.119677447222603,2.278459652959918,1821,52,22.931087128817264,51.77620858630036
5.142456234447517,2.2784368737194955,1821,52,22.931087128817264,51.77620858630036
5.165234793938101,2.278414094706812,1821,52,22.931087128817264,51.77620858630036
5.188013125696629,2.278391315921865,1821,52,22.931087128817264,51.77620858630036
5.210791229725381,2.2783685373646523,1821,52,22.931087128817264,51.77620858630036
5.233569106026633,2.278345759035172,1821,52,22.931087128817264,51.77620858630036
5.256346754602664,2.278322980933421,1821,52,22.931087128817264,51.77620858630036
5.279124175455748,2.2783002030593975,1821,52,22.931087128817264,51.77620858630036
5.3019013685881635,2.278277425413099,1821,52,22.931087128817264,51.77620858630036
5.324678334002187,2.278254647994524,1821,52,22.931087128817264,51.77620858630036
5.3474550717000975,2.278231870803669,1821,52,22.931087128817264,51.77620858630036
5.37023158168417,2.278209093840533,1821,52,22.931087128817264,51.77620858630036
5.393007863956682,2.2781863171051127,1821,52,22.931087128817264,51.77620858630036
5.415783918519909,2.2781635405974066,1821,52,22.931087128817264,51.77620858630036
5.438559745376131,2.2781407643174116,1821,52,22.931087128817264,51.77620858630036
5.461335344527621,2.278117988265126,1821,52,22.931087128817264,51.77620858630036
