Vout,Iout,Irradiance,Temperature,MaxVoltage,MaxPower
0.006016922144979376,1.203396,1041,3,20.309802375266116,24.02872492291616
0.018050655176352872,1.203396,1041,3,20.309802375266116,24.02872492291616
0.030084143564952183,1.2033898627382549,1041,3,20.309802375266116,24.02872492291616
0.04211734360542672,1.2033778290052235,1041,3,20.309802375266116,24.02872492291616
0.05415024101410965,1.2033657955174486,1041,3,20.309802375266116,24.02872492291616
0.0661828498221021,1.2033537623186117,1041,3,20.309802375266116,24.02872492291616
0.07821518298142255,1.2033417294224062,1041,3,20.309802375266116,24.02872492291616
0.09024725244776677,1.2033296968148015,1041,3,20.309802375266116,24.02872492291616
0.10227906925703298,1.2033176644828456,1041,3,20.309802375266116,24.02872492291616
0.11431064359609258,1.2033056324145825,1041,3,20.309802375266116,24.02872492291616
0.12634198486811563,1.2032936005989765,1041,3,20.309802375266116,24.02872492291616
0.13837310175286996,1.2032815690258405,1041,3,20.309802375266116,24.02872492291616
0.15040400226238101,1.2032695376857718,1041,3,20.309802375266116,24.02872492291616
0.16243469379230885,1.2032575065700901,1041,3,20.309802375266116,24.02872492291616
0.17446518316937237,1.2032454756707838,1041,3,20.309802375266116,24.02872492291616
0.18649547669512445,1.203233444980457,1041,3,20.309802375266116,24.02872492291616
0.19852558018635924,1.203221414492283,1041,3,20.309802375266116,24.02872492291616
0.21055549901240994,1.2032093841999603,1041,3,20.309802375266116,24.02872492291616
0.2225852381295774,1.2031973540976721,1041,3,20.309802375266116,24.02872492291616
0.2346148021129094,1.203185324180049,1041,3,20.309802375266116,24.02872492291616
0.24664419518553482,1.203173294442135,1041,3,20.309802375266116,24.02872492291616
0.258673421245741,1.2031612648793546,1041,3,20.309802375266116,24.02872492291616
0.27070248389196716,1.2031492354874849,1041,3,20.309802375266116,24.02872492291616
0.2827313864458757,1.2031372062626278,1041,3,20.309802375266116,24.02872492291616
0.2947601319736475,1.2031251772011844,1041,3,20.309802375266116,24.02872492291616
0.3067887233056391,1.2031131482998334,1041,3,20.309802375266116,24.02872492291616
0.3188171630545277,1.2031011195555086,1041,3,20.309802375266116,24.02872492291616
0.3308454536320591,1.2030890909653795,1041,3,20.309802375266116,24.02872492291616
0.34287359726450845,1.2030770625268334,1041,3,20.309802375266116,24.02872492291616
0.35490159600695004,1.2030650342374587,1041,3,20.309802375266116,24.02872492291616
0.36692945175643027,1.203053006095029,1041,3,20.309802375266116,24.02872492291616
0.3789571662641261,1.2030409780974896,1041,3,20.309802375266116,24.02872492291616
0.3909847411465687,1.2030289502429428,1041,3,20.309802375266116,24.02872492291616
0.4030121778960031,1.2030169225296379,1041,3,20.309802375266116,24.02872492291616
0.4150394778899515,1.2030048949559584,1041,3,20.309802375266116,24.02872492291616
0.4270666424000396,1.2029928675204116,1041,3,20.309802375266116,24.02872492291616
0.43909367260014487,1.2029808402216204,1041,3,20.309802375266116,24.02872492291616
0.4511205695739172,1.2029688130583132,1041,3,20.309802375266116,24.02872492291616
0.4631473343217213,1.2029567860293158,1041,3,20.309802375266116,24.02872492291616
0.4751739677670445,1.2029447591335447,1041,3,20.309802375266116,24.02872492291616
0.48720047076241246,1.2029327323699996,1041,3,20.309802375266116,24.02872492291616
0.4992268440948483,1.202920705737757,1041,3,20.309802375266116,24.02872492291616
0.5112530884909129,1.2029086792359642,1041,3,20.309802375266116,24.02872492291616
0.5232792046213571,1.2028966528638345,1041,3,20.309802375266116,24.02872492291616
0.5353051931054154,1.202884626620641,1041,3,20.309802375266116,24.02872492291616
0.5473310545147695,1.2028726005057133,1041,3,20.309802375266116,24.02872492291616
0.5593567893772085,1.2028605745184318,1041,3,20.309802375266116,24.02872492291616
0.5713823981800041,1.202848548658225,1041,3,20.309802375266116,24.02872492291616
0.5834078813730295,1.2028365229245652,1041,3,20.309802375266116,24.02872492291616
0.5954332393716362,1.202824497316965,1041,3,20.309802375266116,24.02872492291616
0.6074584725593105,1.2028124718349746,1041,3,20.309802375266116,24.02872492291616
0.619483581290125,1.2028004464781785,1041,3,20.309802375266116,24.02872492291616
0.6315085658910023,1.2027884212461935,1041,3,20.309802375266116,24.02872492291616
0.643533426663803,1.202776396138665,1041,3,20.309802375266116,24.02872492291616
0.6555581638872549,1.2027643711552667,1041,3,20.309802375266116,24.02872492291616
0.667582777818732,1.2027523462956964,1041,3,20.309802375266116,24.02872492291616
0.6796072686958988,1.2027403215596755,1041,3,20.309802375266116,24.02872492291616
0.6916316367382251,1.2027282969469466,1041,3,20.309802375266116,24.02872492291616
0.7036558821483875,1.2027162724572718,1041,3,20.309802375266116,24.02872492291616
0.7156800051135607,1.202704248090432,1041,3,20.309802375266116,24.02872492291616
0.7277040058066101,1.2026922238462243,1041,3,20.309802375266116,24.02872492291616
0.7397278843871931,1.2026801997244616,1041,3,20.309802375266116,24.02872492291616
0.751751641002775,1.2026681757249709,1041,3,20.309802375266116,24.02872492291616
0.763775275789568,1.2026561518475927,1041,3,20.309802375266116,24.02872492291616
0.7757987888733962,1.2026441280921796,1041,3,20.309802375266116,24.02872492291616
0.7878221803704945,1.2026321044585953,1041,3,20.309802375266116,24.02872492291616
0.7998454503882474,1.2026200809467138,1041,3,20.309802375266116,24.02872492291616
0.8118685990258696,1.2026080575564189,1041,3,20.309802375266116,24.02872492291616
0.8238916263750345,1.2025960342876036,1041,3,20.309802375266116,24.02872492291616
0.8359145325204541,1.2025840111401682,1041,3,20.309802375266116,24.02872492291616
0.8479373175404153,1.2025719881140216,1041,3,20.309802375266116,24.02872492291616
0.8599599815072739,1.2025599652090784,1041,3,20.309802375266116,24.02872492291616
0.8719825244879108,1.2025479424252608,1041,3,20.309802375266116,24.02872492291616
0.8840049465441536,1.202535919762496,1041,3,20.309802375266116,24.02872492291616
0.8960272477331653,1.2025238972207177,1041,3,20.309802375266116,24.02872492291616
0.9080494281078031,1.2025118747998638,1041,3,20.309802375266116,24.02872492291616
0.9200714877169494,1.2024998524998771,1041,3,20.309802375266116,24.02872492291616
0.9320934266058184,1.2024878303207047,1041,3,20.309802375266116,24.02872492291616
0.9441152448162377,1.2024758082622977,1041,3,20.309802375266116,24.02872492291616
0.9561369423869089,1.202463786324611,1041,3,20.309802375266116,24.02872492291616
0.9681585193536487,1.202451764507603,1041,3,20.309802375266116,24.02872492291616
0.9801799757496104,1.2024397428112343,1041,3,20.309802375266116,24.02872492291616
0.9922013116054882,1.2024277212354697,1041,3,20.309802375266116,24.02872492291616
1.0042225269497078,1.202415699780276,1041,3,20.309802375266116,24.02872492291616
1.0162436218086002,1.2024036784456222,1041,3,20.309802375266116,24.02872492291616
1.0282645962065622,1.2023916572314801,1041,3,20.309802375266116,24.02872492291616
1.040285450166207,1.2023796361378234,1041,3,20.309802375266116,24.02872492291616
1.052306183708499,1.2023676151646276,1041,3,20.309802375266116,24.02872492291616
1.0643267968528836,1.20235559431187,1041,3,20.309802375266116,24.02872492291616
1.0763472896174004,1.2023435735795298,1041,3,20.309802375266116,24.02872492291616
1.0883676620187963,1.2023315529675875,1041,3,20.309802375266116,24.02872492291616
1.100387914072619,1.2023195324760252,1041,3,20.309802375266116,24.02872492291616
1.112408045793314,1.202307512104826,1041,3,20.309802375266116,24.02872492291616
1.1244280571943082,1.202295491853974,1041,3,20.309802375266116,24.02872492291616
1.136447948288087,1.2022834717234554,1041,3,20.309802375266116,24.02872492291616
1.1484677190862678,1.2022714517132564,1041,3,20.309802375266116,24.02872492291616
1.1604873695996663,1.2022594318233646,1041,3,20.309802375266116,24.02872492291616
1.1725068998383588,1.2022474120537685,1041,3,20.309802375266116,24.02872492291616
1.1845263098117391,1.202235392404457,1041,3,20.309802375266116,24.02872492291616
1.1965455995285696,1.2022233728754204,1041,3,20.309802375266116,24.02872492291616
1.2085647689970322,1.202211353466649,1041,3,20.309802375266116,24.02872492291616
1.2205838182247708,1.202199334178134,1041,3,20.309802375266116,24.02872492291616
1.2326027472189336,1.2021873150098676,1041,3,20.309802375266116,24.02872492291616
1.244621555986212,1.2021752959618417,1041,3,20.309802375266116,24.02872492291616
1.2566402445328737,1.2021632770340496,1041,3,20.309802375266116,24.02872492291616
1.2686588128647975,1.2021512582264842,1041,3,20.309802375266116,24.02872492291616
1.2806772609875028,1.2021392395391393,1041,3,20.309802375266116,24.02872492291616
1.292695588906175,1.2021272209720093,1041,3,20.309802375266116,24.02872492291616
1.304713796625695,1.2021152025250885,1041,3,20.309802375266116,24.02872492291616
1.316731884150659,1.2021031841983716,1041,3,20.309802375266116,24.02872492291616
1.3287498514854021,1.202091165991854,1041,3,20.309802375266116,24.02872492291616
1.3407676986340198,1.2020791479055308,1041,3,20.309802375266116,24.02872492291616
1.3527854256003833,1.202067129939398,1041,3,20.309802375266116,24.02872492291616
1.364803032388159,1.202055112093451,1041,3,20.309802375266116,24.02872492291616
1.3768205190008234,1.2020430943676865,1041,3,20.309802375266116,24.02872492291616
1.3888378854416779,1.2020310767621005,1041,3,20.309802375266116,24.02872492291616
1.4008551317138624,1.2020190592766897,1041,3,20.309802375266116,24.02872492291616
1.4128722578203674,1.2020070419114506,1041,3,20.309802375266116,24.02872492291616
1.424889263764046,1.2019950246663802,1041,3,20.309802375266116,24.02872492291616
1.4369061495476252,1.2019830075414752,1041,3,20.309802375266116,24.02872492291616
1.4489229151737122,1.2019709905367335,1041,3,20.309802375266116,24.02872492291616
1.4609395606448077,1.2019589736521514,1041,3,20.309802375266116,24.02872492291616
1.4729560859633124,1.2019469568877272,1041,3,20.309802375266116,24.02872492291616
1.4849724911315332,1.2019349402434578,1041,3,20.309802375266116,24.02872492291616
1.496988776151694,1.201922923719341,1041,3,20.309802375266116,24.02872492291616
1.5090049410259387,1.2019109073153744,1041,3,20.309802375266116,24.02872492291616
1.5210209857563388,1.2018988910315558,1041,3,20.309802375266116,24.02872492291616
1.5330369103448993,1.2018868748678833,1041,3,20.309802375266116,24.02872492291616
1.5450527147935627,1.2018748588243544,1041,3,20.309802375266116,24.02872492291616
1.557068399104215,1.2018628429009675,1041,3,20.309802375266116,24.02872492291616
1.5690839632786886,1.2018508270977204,1041,3,20.309802375266116,24.02872492291616
1.581099407318769,1.2018388114146115,1041,3,20.309802375266116,24.02872492291616
1.5931147312261944,1.2018267958516384,1041,3,20.309802375266116,24.02872492291616
1.6051299350026638,1.2018147804088,1041,3,20.309802375266116,24.02872492291616
1.6171450186498364,1.201802765086094,1041,3,20.309802375266116,24.02872492291616
1.629159982169337,1.2017907498835192,1041,3,20.309802375266116,24.02872492291616
1.6411748255627576,1.2017787348010736,1041,3,20.309802375266116,24.02872492291616
1.6531895488316595,1.2017667198387556,1041,3,20.309802375266116,24.02872492291616
1.665204151977577,1.2017547049965638,1041,3,20.309802375266116,24.02872492291616
1.6772186350020188,1.2017426902744963,1041,3,20.309802375266116,24.02872492291616
1.6892329979064686,1.2017306756725519,1041,3,20.309802375266116,24.02872492291616
1.7012472406923902,1.201718661190729,1041,3,20.309802375266116,24.02872492291616
1.7132613633612257,1.2017066468290258,1041,3,20.309802375266116,24.02872492291616
1.7252753659143991,1.2016946325874414,1041,3,20.309802375266116,24.02872492291616
1.7372892483533184,1.201682618465974,1041,3,20.309802375266116,24.02872492291616
1.7493030106793734,1.2016706044646221,1041,3,20.309802375266116,24.02872492291616
1.7613166528939412,1.2016585905833848,1041,3,20.309802375266116,24.02872492291616
1.7733301749983843,1.2016465768222602,1041,3,20.309802375266116,24.02872492291616
1.7853435769940527,1.2016345631812468,1041,3,20.309802375266116,24.02872492291616
1.797356858882286,1.2016225496603439,1041,3,20.309802375266116,24.02872492291616
1.8093700206644114,1.2016105362595495,1041,3,20.309802375266116,24.02872492291616
1.8213830623417486,1.2015985229788626,1041,3,20.309802375266116,24.02872492291616
1.833395983915606,1.2015865098182819,1041,3,20.309802375266116,24.02872492291616
1.845408785387285,1.201574496777806,1041,3,20.309802375266116,24.02872492291616
1.8574214667580786,1.2015624838574333,1041,3,20.309802375266116,24.02872492291616
1.869434028029273,1.201550471057163,1041,3,20.309802375266116,24.02872492291616
1.8814464692021478,1.2015384583769935,1041,3,20.309802375266116,24.02872492291616
1.8934587902779765,1.2015264458169235,1041,3,20.309802375266116,24.02872492291616
1.9054709912580265,1.2015144333769519,1041,3,20.309802375266116,24.02872492291616
1.917483072143561,1.2015024210570773,1041,3,20.309802375266116,24.02872492291616
1.9294950329358376,1.2014904088572986,1041,3,20.309802375266116,24.02872492291616
1.9415068736361096,1.2014783967776141,1041,3,20.309802375266116,24.02872492291616
1.9535185942456275,1.2014663848180231,1041,3,20.309802375266116,24.02872492291616
1.9655301947656356,1.201454372978524,1041,3,20.309802375266116,24.02872492291616
1.9775416751973767,1.2014423612591159,1041,3,20.309802375266116,24.02872492291616
1.9895530355420892,1.201430349659797,1041,3,20.309802375266116,24.02872492291616
2.0015642758010093,1.2014183381805663,1041,3,20.309802375266116,24.02872492291616
2.0135753959753706,1.2014063268214228,1041,3,20.309802375266116,24.02872492291616
2.025586396066404,1.201394315582365,1041,3,20.309802375266116,24.02872492291616
2.037597276075337,1.2013823044633918,1041,3,20.309802375266116,24.02872492291616
2.0496080360033964,1.2013702934645019,1041,3,20.309802375266116,24.02872492291616
2.0616186758518067,1.201358282585694,1041,3,20.309802375266116,24.02872492291616
2.07362919562179,1.2013462718269672,1041,3,20.309802375266116,24.02872492291616
2.085639595314567,1.2013342611883198,1041,3,20.309802375266116,24.02872492291616
2.097649874931357,1.201322250669751,1041,3,20.309802375266116,24.02872492291616
2.109660034473377,1.2013102402712592,1041,3,20.309802375266116,24.02872492291616
2.121670073941844,1.2012982299928434,1041,3,20.309802375266116,24.02872492291616
2.1336799933379726,1.2012862198345025,1041,3,20.309802375266116,24.02872492291616
2.1456897926629783,1.201274209796235,1041,3,20.309802375266116,24.02872492291616
2.157699471918072,1.20126219987804,1041,3,20.309802375266116,24.02872492291616
2.169709031104467,1.201250190079916,1041,3,20.309802375266116,24.02872492291616
2.1817184702233736,1.201238180401862,1041,3,20.309802375266116,24.02872492291616
2.1937277892760028,1.2012261708438765,1041,3,20.309802375266116,24.02872492291616
2.205736988263564,1.2012141614059586,1041,3,20.309802375266116,24.02872492291616
2.2177460671872646,1.2012021520881069,1041,3,20.309802375266116,24.02872492291616
2.229755026048314,1.2011901428903202,1041,3,20.309802375266116,24.02872492291616
2.2417638648479192,1.2011781338125975,1041,3,20.309802375266116,24.02872492291616
2.2537725835872875,1.2011661248549372,1041,3,20.309802375266116,24.02872492291616
2.265781182267625,1.2011541160173387,1041,3,20.309802375266116,24.02872492291616
2.277789660890138,1.2011421072998,1041,3,20.309802375266116,24.02872492291616
2.2897980194560312,1.2011300987023208,1041,3,20.309802375266116,24.02872492291616
2.30180625796651,1.201118090224899,1041,3,20.309802375266116,24.02872492291616
2.313814376422779,1.201106081867534,1041,3,20.309802375266116,24.02872492291616
2.3258223748260427,1.2010940736302245,1041,3,20.309802375266116,24.02872492291616
2.337830253177506,1.201082065512969,1041,3,20.309802375266116,24.02872492291616
2.349838011478371,1.2010700575157665,1041,3,20.309802375266116,24.02872492291616
2.361845649729842,1.2010580496386158,1041,3,20.309802375266116,24.02872492291616
2.3738531679331216,1.2010460418815159,1041,3,20.309802375266116,24.02872492291616
2.3858605660894137,1.2010340342444652,1041,3,20.309802375266116,24.02872492291616
2.397867844199921,1.2010220267274625,1041,3,20.309802375266116,24.02872492291616
2.4098750022658453,1.201010019330507,1041,3,20.309802375266116,24.02872492291616
2.4218820402883883,1.2009980120535972,1041,3,20.309802375266116,24.02872492291616
2.4338889582687537,1.2009860048967322,1041,3,20.309802375266116,24.02872492291616
2.4458957562081425,1.2009739978599103,1041,3,20.309802375266116,24.02872492291616
2.4579024341077567,1.2009619909431306,1041,3,20.309802375266116,24.02872492291616
2.469908991968798,1.200949984146392,1041,3,20.309802375266116,24.02872492291616
2.4819154297924677,1.200937977469693,1041,3,20.309802375266116,24.02872492291616
2.493921747579968,1.2009259709130327,1041,3,20.309802375266116,24.02872492291616
2.505927945332499,1.2009139644764097,1041,3,20.309802375266116,24.02872492291616
2.5179340230512635,1.2009019581598228,1041,3,20.309802375266116,24.02872492291616
2.5299399807374607,1.200889951963271,1041,3,20.309802375266116,24.02872492291616
2.541945818392293,1.200877945886753,1041,3,20.309802375266116,24.02872492291616
2.553951536016961,1.2008659399302672,1041,3,20.309802375266116,24.02872492291616
2.5659571336126654,1.2008539340938131,1041,3,20.309802375266116,24.02872492291616
2.577962611180607,1.200841928377389,1041,3,20.309802375266116,24.02872492291616
2.5899679687219863,1.2008299227809938,1041,3,20.309802375266116,24.02872492291616
2.6019732062380037,1.2008179173046265,1041,3,20.309802375266116,24.02872492291616
2.6139783237298615,1.2008059119482857,1041,3,20.309802375266116,24.02872492291616
2.625983321198758,1.2007939067119702,1041,3,20.309802375266116,24.02872492291616
2.637988198645895,1.2007819015956789,1041,3,20.309802375266116,24.02872492291616
2.649992956072472,1.2007698965994105,1041,3,20.309802375266116,24.02872492291616
2.66199759347969,1.2007578917231638,1041,3,20.309802375266116,24.02872492291616
2.6740021108687486,1.2007458869669378,1041,3,20.309802375266116,24.02872492291616
2.6860065082408497,1.200733882330731,1041,3,20.309802375266116,24.02872492291616
2.6980107855971918,1.2007218778145425,1041,3,20.309802375266116,24.02872492291616
2.710014942938976,1.2007098734183708,1041,3,20.309802375266116,24.02872492291616
2.722018980267402,1.200697869142215,1041,3,20.309802375266116,24.02872492291616
2.734022897583669,1.2006858649860737,1041,3,20.309802375266116,24.02872492291616
2.746026694888979,1.2006738609499457,1041,3,20.309802375266116,24.02872492291616
2.758030372184532,1.2006618570338297,1041,3,20.309802375266116,24.02872492291616
2.7700339294715257,1.2006498532377248,1041,3,20.309802375266116,24.02872492291616
2.7820373667511626,1.2006378495616297,1041,3,20.309802375266116,24.02872492291616
2.794040684024642,1.200625846005543,1041,3,20.309802375266116,24.02872492291616
2.8060438812931636,1.2006138425694637,1041,3,20.309802375266116,24.02872492291616
2.818046958557927,1.2006018392533906,1041,3,20.309802375266116,24.02872492291616
2.830049915820133,1.2005898360573224,1041,3,20.309802375266116,24.02872492291616
2.84205275308098,1.200577832981258,1041,3,20.309802375266116,24.02872492291616
2.85405547034167,1.2005658300251962,1041,3,20.309802375266116,24.02872492291616
2.8660580676034,1.2005538271891356,1041,3,20.309802375266116,24.02872492291616
2.878060544867372,1.2005418244730752,1041,3,20.309802375266116,24.02872492291616
2.8900629021347854,1.2005298218770137,1041,3,20.309802375266116,24.02872492291616
