Vout,Iout,Irradiance,Temperature,MaxVoltage,MaxPower
0.008070762396515418,1.6141679999999998,1431,-11,19.289768705425864,30.76544427961286
0.02421213795351087,1.6141679999999998,1431,-11,19.289768705425864,30.76544427961286
0.04035318536038988,1.6141597678208033,1431,-11,19.289768705425864,30.76544427961286
0.05649384599324281,1.6141436264452462,1431,-11,19.289768705425864,30.76544427961286
0.07263410069275895,1.6141274853986627,1431,-11,19.289768705425864,30.76544427961286
0.08877396827947151,1.614111344739644,1431,-11,19.289768705425864,30.76544427961286
0.10491346612649276,1.6140952044865586,1431,-11,19.289768705425864,30.76544427961286
0.1210526102705234,1.6140790646205858,1431,-11,19.289768705425864,30.76544427961286
0.13719141551449932,1.6140629251243528,1431,-11,19.289768705425864,30.76544427961286
0.15332989552251927,1.6140467859818228,1431,-11,19.289768705425864,30.76544427961286
0.16946806290746894,1.614030647178193,1431,-11,19.289768705425864,30.76544427961286
0.18560592931190287,1.6140145086997988,1431,-11,19.289768705425864,30.76544427961286
0.20174350548270323,1.6139983705340277,1431,-11,19.289768705425864,30.76544427961286
0.2178808013399942,1.613982232669237,1431,-11,19.289768705425864,30.76544427961286
0.2340178260407543,1.6139660950946801,1431,-11,19.289768705425864,30.76544427961286
0.25015458803753365,1.6139499578004366,1431,-11,19.289768705425864,30.76544427961286
0.26629109513265403,1.6139338207773495,1431,-11,19.289768705425864,30.76544427961286
0.2824273545282383,1.6139176840169664,1431,-11,19.289768705425864,30.76544427961286
0.298563372872391,1.613901547511485,1431,-11,19.289768705425864,30.76544427961286
0.3146991563018248,1.613885411253703,1431,-11,19.289768705425864,30.76544427961286
0.33083471048120866,1.6138692752369728,1431,-11,19.289768705425864,30.76544427961286
0.34697004063948633,1.613853139455157,1431,-11,19.289768705425864,30.76544427961286
0.36310515160340306,1.613837003902591,1431,-11,19.289768705425864,30.76544427961286
0.3792400478284508,1.6138208685740465,1431,-11,19.289768705425864,30.76544427961286
0.3953747334274326,1.613804733464696,1431,-11,19.289768705425864,30.76544427961286
0.4115092121968304,1.6137885985700846,1431,-11,19.289768705425864,30.76544427961286
0.42764348764114296,1.613772463886099,1431,-11,19.289768705425864,30.76544427961286
0.44377756299535126,1.6137563294089432,1431,-11,19.289768705425864,30.76544427961286
0.45991144124565586,1.6137401951351122,1431,-11,19.289768705425864,30.76544427961286
0.4760451251486184,1.6137240610613715,1431,-11,19.289768705425864,30.76544427961286
0.49217861724883055,1.6137079271847345,1431,-11,19.289768705425864,30.76544427961286
0.5083119198952232,1.613691793502445,1431,-11,19.289768705425864,30.76544427961286
0.5244450352561204,1.6136756600119582,1431,-11,19.289768705425864,30.76544427961286
0.5405779653331366,1.6136595267109253,1431,-11,19.289768705425864,30.76544427961286
0.5567107119740027,1.6136433935971777,1431,-11,19.289768705425864,30.76544427961286
0.5728432768844063,1.613627260668714,1431,-11,19.289768705425864,30.76544427961286
0.5889756616389206,1.6136111279236864,1431,-11,19.289768705425864,30.76544427961286
0.6051078676910933,1.6135949953603894,1431,-11,19.289768705425864,30.76544427961286
0.6212398963827569,1.613578862977248,1431,-11,19.289768705425864,30.76544427961286
0.6373717489526264,1.613562730772809,1431,-11,19.289768705425864,30.76544427961286
0.6535034265442314,1.6135465987457307,1431,-11,19.289768705425864,30.76544427961286
0.6696349302132408,1.613530466894774,1431,-11,19.289768705425864,30.76544427961286
0.6857662609342228,1.6135143352187957,1431,-11,19.289768705425864,30.76544427961286
0.7018974196068847,1.6134982037167398,1431,-11,19.289768705425864,30.76544427961286
0.7180284070618331,1.613482072387632,1431,-11,19.289768705425864,30.76544427961286
0.7341592240658905,1.6134659412305725,1431,-11,19.289768705425864,30.76544427961286
0.7502898713270026,1.6134498102447308,1431,-11,19.289768705425864,30.76544427961286
0.7664203494987689,1.6134336794293398,1431,-11,19.289768705425864,30.76544427961286
0.7825506591846242,1.6134175487836917,1431,-11,19.289768705425864,30.76544427961286
0.7986808009416976,1.613401418307133,1431,-11,19.289768705425864,30.76544427961286
0.8148107752843761,1.6133852879990602,1431,-11,19.289768705425864,30.76544427961286
0.830940582687593,1.6133691578589162,1431,-11,19.289768705425864,30.76544427961286
0.8470702235898636,1.6133530278861867,1431,-11,19.289768705425864,30.76544427961286
0.8631996983960873,1.6133368980803964,1431,-11,19.289768705425864,30.76544427961286
0.8793290074801334,1.6133207684411073,1431,-11,19.289768705425864,30.76544427961286
0.8954581511872297,1.613304638967914,1431,-11,19.289768705425864,30.76544427961286
0.9115871298361653,1.6132885096604428,1431,-11,19.289768705425864,30.76544427961286
0.9277159437213252,1.6132723805183486,1431,-11,19.289768705425864,30.76544427961286
0.9438445931145684,1.6132562515413127,1431,-11,19.289768705425864,30.76544427961286
0.9599730782669601,1.6132401227290405,1431,-11,19.289768705425864,30.76544427961286
0.9761013994103724,1.61322399408126,1431,-11,19.289768705425864,30.76544427961286
0.9922295567589614,1.6132078655977207,1431,-11,19.289768705425864,30.76544427961286
1.0083575505105284,1.61319173727819,1431,-11,19.289768705425864,30.76544427961286
1.0244853808477812,1.6131756091224543,1431,-11,19.289768705425864,30.76544427961286
1.0406130479394922,1.6131594811303156,1431,-11,19.289768705425864,30.76544427961286
1.056740551941573,1.613143353301591,1431,-11,19.289768705425864,30.76544427961286
1.0728678929980633,1.6131272256361122,1431,-11,19.289768705425864,30.76544427961286
1.088995071242044,1.6131110981337229,1431,-11,19.289768705425864,30.76544427961286
1.1051220867964806,1.6130949707942792,1431,-11,19.289768705425864,30.76544427961286
1.121248939775001,1.613078843617648,1431,-11,19.289768705425864,30.76544427961286
1.137375630282615,1.6130627166037064,1431,-11,19.289768705425864,30.76544427961286
1.1535021584163767,1.6130465897523405,1431,-11,19.289768705425864,30.76544427961286
1.1696285242659958,1.6130304630634456,1431,-11,19.289768705425864,30.76544427961286
1.1857547279144054,1.6130143365369245,1431,-11,19.289768705425864,30.76544427961286
1.20188076943828,1.6129982101726876,1431,-11,19.289768705425864,30.76544427961286
1.2180066489085193,1.6129820839706517,1431,-11,19.289768705425864,30.76544427961286
1.234132366390692,1.6129659579307405,1431,-11,19.289768705425864,30.76544427961286
1.2502579219454453,1.612949832052883,1431,-11,19.289768705425864,30.76544427961286
1.2663833156288848,1.6129337063370133,1431,-11,19.289768705425864,30.76544427961286
1.2825085474929225,1.6129175807830711,1431,-11,19.289768705425864,30.76544427961286
1.2986336175856008,1.6129014553910004,1431,-11,19.289768705425864,30.76544427961286
1.3147585259513892,1.6128853301607489,1431,-11,19.289768705425864,30.76544427961286
1.3308832726314603,1.6128692050922686,1431,-11,19.289768705425864,30.76544427961286
1.3470078576639422,1.6128530801855154,1431,-11,19.289768705425864,30.76544427961286
1.3631322810841533,1.6128369554404478,1431,-11,19.289768705425864,30.76544427961286
1.3792565429248187,1.6128208308570278,1431,-11,19.289768705425864,30.76544427961286
1.3953806432162705,1.6128047064352202,1431,-11,19.289768705425864,30.76544427961286
1.4115045819866294,1.6127885821749919,1431,-11,19.289768705425864,30.76544427961286
1.4276283592619774,1.612772458076313,1431,-11,19.289768705425864,30.76544427961286
1.443751975066513,1.6127563341391549,1431,-11,19.289768705425864,30.76544427961286
1.459875429422698,1.612740210363492,1431,-11,19.289768705425864,30.76544427961286
1.4759987223513888,1.6127240867492998,1431,-11,19.289768705425864,30.76544427961286
1.4921218538719618,1.6127079632965562,1431,-11,19.289768705425864,30.76544427961286
1.5082448240024262,1.6126918400052397,1431,-11,19.289768705425864,30.76544427961286
1.524367632759529,1.6126757168753316,1431,-11,19.289768705425864,30.76544427961286
1.5404902801588536,1.6126595939068133,1431,-11,19.289768705425864,30.76544427961286
1.556612766214908,1.6126434710996687,1431,-11,19.289768705425864,30.76544427961286
1.5727350909412077,1.6126273484538816,1431,-11,19.289768705425864,30.76544427961286
1.5888572543503525,1.6126112259694378,1431,-11,19.289768705425864,30.76544427961286
1.6049792564540968,1.6125951036463237,1431,-11,19.289768705425864,30.76544427961286
1.6211010972634143,1.6125789814845268,1431,-11,19.289768705425864,30.76544427961286
1.6372227767885583,1.6125628594840353,1431,-11,19.289768705425864,30.76544427961286
1.653344295039118,1.6125467376448384,1431,-11,19.289768705425864,30.76544427961286
1.6694656520240667,1.6125306159669253,1431,-11,19.289768705425864,30.76544427961286
1.6855868477518137,1.612514494450287,1431,-11,19.289768705425864,30.76544427961286
1.7017078822302443,1.612498373094914,1431,-11,19.289768705425864,30.76544427961286
1.7178287554667602,1.6124822519007986,1431,-11,19.289768705425864,30.76544427961286
1.733949467468319,1.6124661308679322,1431,-11,19.289768705425864,30.76544427961286
1.7500700182414661,1.612450009996308,1431,-11,19.289768705425864,30.76544427961286
1.7661904077923671,1.6124338892859185,1431,-11,19.289768705425864,30.76544427961286
1.7823106361268373,1.6124177687367574,1431,-11,19.289768705425864,30.76544427961286
1.7984307032503695,1.6124016483488186,1431,-11,19.289768705425864,30.76544427961286
1.814550609168156,1.612385528122096,1431,-11,19.289768705425864,30.76544427961286
1.8306703538851157,1.6123694080565847,1431,-11,19.289768705425864,30.76544427961286
1.8467899374059107,1.6123532881522789,1431,-11,19.289768705425864,30.76544427961286
1.8629093597349702,1.6123371684091738,1431,-11,19.289768705425864,30.76544427961286
1.8790286208765057,1.612321048827265,1431,-11,19.289768705425864,30.76544427961286
1.8951477208345289,1.612304929406548,1431,-11,19.289768705425864,30.76544427961286
1.9112666596128662,1.6122888101470185,1431,-11,19.289768705425864,30.76544427961286
1.927385437215175,1.6122726910486724,1431,-11,19.289768705425864,30.76544427961286
1.943504053644953,1.6122565721115059,1431,-11,19.289768705425864,30.76544427961286
1.9596225089055548,1.6122404533355155,1431,-11,19.289768705425864,30.76544427961286
1.9757408030001997,1.6122243347206977,1431,-11,19.289768705425864,30.76544427961286
1.9918589359319838,1.612208216267049,1431,-11,19.289768705425864,30.76544427961286
2.0079769077038883,1.612192097974566,1431,-11,19.289768705425864,30.76544427961286
2.0240947183187896,1.6121759798432462,1431,-11,19.289768705425864,30.76544427961286
2.0402123677794664,1.6121598618730861,1431,-11,19.289768705425864,30.76544427961286
2.0563298560886083,1.6121437440640831,1431,-11,19.289768705425864,30.76544427961286
2.0724471832488196,1.612127626416234,1431,-11,19.289768705425864,30.76544427961286
2.0885643492626316,1.6121115089295368,1431,-11,19.289768705425864,30.76544427961286
2.104681354132502,1.6120953916039884,1431,-11,19.289768705425864,30.76544427961286
2.1207981978608235,1.6120792744395862,1431,-11,19.289768705425864,30.76544427961286
2.1369148804499307,1.6120631574363282,1431,-11,19.289768705425864,30.76544427961286
2.153031401902101,1.6120470405942116,1431,-11,19.289768705425864,30.76544427961286
2.1691477622195605,1.6120309239132342,1431,-11,19.289768705425864,30.76544427961286
2.1852639614044884,1.6120148073933938,1431,-11,19.289768705425864,30.76544427961286
2.2013799994590197,1.611998691034688,1431,-11,19.289768705425864,30.76544427961286
2.2174958763852493,1.6119825748371146,1431,-11,19.289768705425864,30.76544427961286
2.233611592185235,1.6119664588006717,1431,-11,19.289768705425864,30.76544427961286
2.249727146861,1.611950342925357,1431,-11,19.289768705425864,30.76544427961286
2.2658425404145355,1.6119342272111687,1431,-11,19.289768705425864,30.76544427961286
2.2819577728478038,1.6119181116581045,1431,-11,19.289768705425864,30.76544427961286
2.2980728441627396,1.6119019962661625,1431,-11,19.289768705425864,30.76544427961286
2.3141877543612543,1.611885881035341,1431,-11,19.289768705425864,30.76544427961286
2.3303025034452345,1.6118697659656374,1431,-11,19.289768705425864,30.76544427961286
2.3464170914165448,1.6118536510570505,1431,-11,19.289768705425864,30.76544427961286
2.362531518277033,1.611837536309578,1431,-11,19.289768705425864,30.76544427961286
2.3786457840285267,1.611821421723218,1431,-11,19.289768705425864,30.76544427961286
2.3947598886728363,1.6118053072979692,1431,-11,19.289768705425864,30.76544427961286
2.410873832211759,1.611789193033829,1431,-11,19.289768705425864,30.76544427961286
2.426987614647076,1.6117730789307962,1431,-11,19.289768705425864,30.76544427961286
2.4431012359805555,1.6117569649888688,1431,-11,19.289768705425864,30.76544427961286
2.4592146962139534,1.611740851208045,1431,-11,19.289768705425864,30.76544427961286
2.4753279953490157,1.6117247375883228,1431,-11,19.289768705425864,30.76544427961286
2.4914411333874757,1.6117086241297007,1431,-11,19.289768705425864,30.76544427961286
2.50755411033106,1.6116925108321771,1431,-11,19.289768705425864,30.76544427961286
2.5236669261814844,1.61167639769575,1431,-11,19.289768705425864,30.76544427961286
2.539779580940456,1.6116602847204178,1431,-11,19.289768705425864,30.76544427961286
2.555892074609677,1.6116441719061785,1431,-11,19.289768705425864,30.76544427961286
2.5720044071908403,1.611628059253031,1431,-11,19.289768705425864,30.76544427961286
2.588116578685633,1.6116119467609729,1431,-11,19.289768705425864,30.76544427961286
2.6042285890957366,1.611595834430003,1431,-11,19.289768705425864,30.76544427961286
2.620340438422827,1.6115797222601196,1431,-11,19.289768705425864,30.76544427961286
2.6364521266685754,1.6115636102513207,1431,-11,19.289768705425864,30.76544427961286
2.6525636538346475,1.6115474984036047,1431,-11,19.289768705425864,30.76544427961286
2.6686750199227047,1.6115313867169703,1431,-11,19.289768705425864,30.76544427961286
2.6847862249344066,1.6115152751914152,1431,-11,19.289768705425864,30.76544427961286
2.700897268871405,1.6114991638269385,1431,-11,19.289768705425864,30.76544427961286
2.7170081517353526,1.611483052623538,1431,-11,19.289768705425864,30.76544427961286
2.7331188735278964,1.611466941581212,1431,-11,19.289768705425864,30.76544427961286
2.7492294342506804,1.6114508306999593,1431,-11,19.289768705425864,30.76544427961286
2.765339833905348,1.6114347199797778,1431,-11,19.289768705425864,30.76544427961286
2.7814500724935387,1.6114186094206662,1431,-11,19.289768705425864,30.76544427961286
2.797560150016889,1.6114024990226226,1431,-11,19.289768705425864,30.76544427961286
2.813670066477035,1.6113863887856454,1431,-11,19.289768705425864,30.76544427961286
2.8297798218756105,1.611370278709733,1431,-11,19.289768705425864,30.76544427961286
2.8458894162142463,1.6113541687948838,1431,-11,19.289768705425864,30.76544427961286
2.8619988494945723,1.6113380590410964,1431,-11,19.289768705425864,30.76544427961286
2.878108121718216,1.6113219494483686,1431,-11,19.289768705425864,30.76544427961286
2.8942172328868065,1.6113058400166993,1431,-11,19.289768705425864,30.76544427961286
2.9103261830019678,1.6112897307460867,1431,-11,19.289768705425864,30.76544427961286
2.9264349720653247,1.611273621636529,1431,-11,19.289768705425864,30.76544427961286
2.9425436000785012,1.6112575126880249,1431,-11,19.289768705425864,30.76544427961286
2.958652067043118,1.6112414039005722,1431,-11,19.289768705425864,30.76544427961286
2.9747603729607985,1.6112252952741701,1431,-11,19.289768705425864,30.76544427961286
2.990868517833161,1.6112091868088163,1431,-11,19.289768705425864,30.76544427961286
3.0069765016618275,1.6111930785045094,1431,-11,19.289768705425864,30.76544427961286
3.0230843244484156,1.611176970361248,1431,-11,19.289768705425864,30.76544427961286
3.039191986194543,1.6111608623790301,1431,-11,19.289768705425864,30.76544427961286
3.055299486901829,1.6111447545578543,1431,-11,19.289768705425864,30.76544427961286
3.0714068265718875,1.611128646897719,1431,-11,19.289768705425864,30.76544427961286
3.0875140052063377,1.6111125393986225,1431,-11,19.289768705425864,30.76544427961286
3.1036210228067946,1.6110964320605632,1431,-11,19.289768705425864,30.76544427961286
3.1197278793748744,1.6110803248835395,1431,-11,19.289768705425864,30.76544427961286
3.1358345749121903,1.6110642178675498,1431,-11,19.289768705425864,30.76544427961286
3.1519411094203575,1.6110481110125925,1431,-11,19.289768705425864,30.76544427961286
3.1680474829009917,1.6110320043186659,1431,-11,19.289768705425864,30.76544427961286
3.184153695355706,1.6110158977857683,1431,-11,19.289768705425864,30.76544427961286
3.2002597467861125,1.6109997914138985,1431,-11,19.289768705425864,30.76544427961286
3.216365637193825,1.6109836852030543,1431,-11,19.289768705425864,30.76544427961286
3.2324713665804574,1.6109675791532345,1431,-11,19.289768705425864,30.76544427961286
3.2485769349476232,1.6109514732644374,1431,-11,19.289768705425864,30.76544427961286
3.2646823422969335,1.6109353675366616,1431,-11,19.289768705425864,30.76544427961286
3.2807875886300004,1.6109192619699049,1431,-11,19.289768705425864,30.76544427961286
3.2968926739484363,1.610903156564166,1431,-11,19.289768705425864,30.76544427961286
3.3129975982538524,1.6108870513194435,1431,-11,19.289768705425864,30.76544427961286
3.3291023615478625,1.6108709462357358,1431,-11,19.289768705425864,30.76544427961286
3.3452069638320756,1.6108548413130408,1431,-11,19.289768705425864,30.76544427961286
3.3613114051081046,1.6108387365513572,1431,-11,19.289768705425864,30.76544427961286
3.3774156853775597,1.6108226319506835,1431,-11,19.289768705425864,30.76544427961286
3.393519804642053,1.6108065275110182,1431,-11,19.289768705425864,30.76544427961286
3.4096237629031956,1.610790423232359,1431,-11,19.289768705425864,30.76544427961286
3.4257275601625965,1.610774319114705,1431,-11,19.289768705425864,30.76544427961286
3.441831196421869,1.6107582151580544,1431,-11,19.289768705425864,30.76544427961286
3.4579346716826223,1.6107421113624054,1431,-11,19.289768705425864,30.76544427961286
3.4740379859464667,1.6107260077277565,1431,-11,19.289768705425864,30.76544427961286
3.4901411392150123,1.610709904254106,1431,-11,19.289768705425864,30.76544427961286
3.506244131489871,1.6106938009414526,1431,-11,19.289768705425864,30.76544427961286
3.5223469627726525,1.6106776977897943,1431,-11,19.289768705425864,30.76544427961286
3.538449633064967,1.6106615947991298,1431,-11,19.289768705425864,30.76544427961286
3.5545521423684243,1.6106454919694575,1431,-11,19.289768705425864,30.76544427961286
3.570654490684634,1.6106293893007755,1431,-11,19.289768705425864,30.76544427961286
3.586756678015208,1.6106132867930822,1431,-11,19.289768705425864,30.76544427961286
3.6028587043617537,1.6105971844463762,1431,-11,19.289768705425864,30.76544427961286
3.6189605697258838,1.6105810822606559,1431,-11,19.289768705425864,30.76544427961286
3.635062274109206,1.6105649802359197,1431,-11,19.289768705425864,30.76544427961286
3.6511638175133316,1.6105488783721658,1431,-11,19.289768705425864,30.76544427961286
3.6672651999398687,1.6105327766693927,1431,-11,19.289768705425864,30.76544427961286
3.6833664213904287,1.6105166751275986,1431,-11,19.289768705425864,30.76544427961286
3.6994674818666202,1.6105005737467823,1431,-11,19.289768705425864,30.76544427961286
3.715568381370054,1.6104844725269418,1431,-11,19.289768705425864,30.76544427961286
3.731669119902338,1.6104683714680759,1431,-11,19.289768705425864,30.76544427961286
3.7477696974650834,1.6104522705701825,1431,-11,19.289768705425864,30.76544427961286
3.7638701140598987,1.6104361698332603,1431,-11,19.289768705425864,30.76544427961286
3.779970369688394,1.6104200692573076,1431,-11,19.289768705425864,30.76544427961286
