Vout,Iout,Irradiance,Temperature,MaxVoltage,MaxPower
0.0015999146162056135,0.319986,261,38,22.870996849751958,6.795451497920025
0.004799714264681327,0.319986,261,38,22.870996849751958,6.795451497920025
0.00799944886203277,0.31998436808678377,261,38,22.870996849751958,6.795451497920025
0.011199106786898139,0.3199811682871353,261,38,22.870996849751958,6.795451497920025
0.014398684241214772,0.31997796855270116,261,38,22.870996849751958,6.795451497920025
0.017598184955887476,0.31997476889509624,261,38,22.870996849751958,6.795451497920025
0.020797612374890292,0.31997156931796195,261,38,22.870996849751958,6.795451497920025
0.02399696967727257,0.3199683698175672,261,38,22.870996849751958,6.795451497920025
0.027196259797507186,0.3199651703904682,261,38,22.870996849751958,6.795451497920025
0.03039548544430868,0.3199619710334857,261,38,22.870996849751958,6.795451497920025
0.033594649118003424,0.3199587717436854,261,38,22.870996849751958,6.795451497920025
0.03679375312656337,0.3199555725183586,261,38,22.870996849751958,6.795451497920025
0.03999279960040607,0.3199523733550048,261,38,22.870996849751958,6.795451497920025
0.04319179050605598,0.3199491742513162,261,38,22.870996849751958,6.795451497920025
0.04639072765875472,0.31994597520516227,261,38,22.870996849751958,6.795451497920025
0.04958961273410093,0.3199427762145765,261,38,22.870996849751958,6.795451497920025
0.05278844727879465,0.3199395772777437,261,38,22.870996849751958,6.795451497920025
0.055987232720555016,0.3199363783929883,261,38,22.870996849751958,6.795451497920025
0.059185970377274785,0.3199331795587635,261,38,22.870996849751958,6.795451497920025
0.06238466146547057,0.3199299807736416,261,38,22.870996849751958,6.795451497920025
0.06558330710808291,0.31992678203630476,261,38,22.870996849751958,6.795451497920025
0.06878190834167612,0.31992358334553644,261,38,22.870996849751958,6.795451497920025
0.07198046612308416,0.3199203847002137,261,38,22.870996849751958,6.795451497920025
0.07517898133554539,0.3199171860993,261,38,22.870996849751958,6.795451497920025
0.07837745479436492,0.3199139875418384,261,38,22.870996849751958,6.795451497920025
0.08157588725214163,0.31991078902694586,261,38,22.870996849751958,6.795451497920025
0.08477427940359292,0.31990759055380685,261,38,22.870996849751958,6.795451497920025
0.08797263189000802,0.31990439212166893,261,38,22.870996849751958,6.795451497920025
0.09117094530335902,0.31990119372983733,261,38,22.870996849751958,6.795451497920025
0.09436922019009533,0.3198979953776708,261,38,22.870996849751958,6.795451497920025
0.0975674570546463,0.31989479706457724,261,38,22.870996849751958,6.795451497920025
0.10076565636265424,0.31989159879001033,261,38,22.870996849751958,6.795451497920025
0.10396381854395886,0.3198884005534656,261,38,22.870996849751958,6.795451497920025
0.10716194399535185,0.3198852023544775,261,38,22.870996849751958,6.795451497920025
0.11036003308311979,0.319882004192616,261,38,22.870996849751958,6.795451497920025
0.11355808614539112,0.3198788060674844,261,38,22.870996849751958,6.795451497920025
0.11675610349430278,0.31987560797871645,261,38,22.870996849751958,6.795451497920025
0.119954085418,0.319872409925974,261,38,22.870996849751958,6.795451497920025
0.1231520321824822,0.3198692119089449,261,38,22.870996849751958,6.795451497920025
0.12634994403330704,0.319866013927341,261,38,22.870996849751958,6.795451497920025
0.1295478211971632,0.31986281598089633,261,38,22.870996849751958,6.795451497920025
0.13274566388332207,0.3198596180693653,261,38,22.870996849751958,6.795451497920025
0.13594347228497802,0.31985642019252125,261,38,22.870996849751958,6.795451497920025
0.13914124658048532,0.31985322235015484,261,38,22.870996849751958,6.795451497920025
0.14233898693449998,0.319850024542073,261,38,22.870996849751958,6.795451497920025
0.1455366934990337,0.3198468267680973,261,38,22.870996849751958,6.795451497920025
0.14873436641442678,0.319843629028063,261,38,22.870996849751958,6.795451497920025
0.15193200581024607,0.3198404313218183,261,38,22.870996849751958,6.795451497920025
0.1551296118061139,0.3198372336492227,261,38,22.870996849751958,6.795451497920025
0.1583271845124734,0.3198340360101466,261,38,22.870996849751958,6.795451497920025
0.1615247240312944,0.3198308384044705,261,38,22.870996849751958,6.795451497920025
0.1647222304567258,0.3198276408320839,261,38,22.870996849751958,6.795451497920025
0.16791970387569705,0.31982444329288484,261,38,22.870996849751958,6.795451497920025
0.17111714436847367,0.3198212457867792,261,38,22.870996849751958,6.795451497920025
0.17431455200916998,0.31981804831368,261,38,22.870996849751958,6.795451497920025
0.17751192686622258,0.3198148508735069,261,38,22.870996849751958,6.795451497920025
0.18070926900282688,0.319811653466186,261,38,22.870996849751958,6.795451497920025
0.18390657847734052,0.3198084560916487,261,38,22.870996849751958,6.795451497920025
0.18710385534365573,0.31980525874983184,261,38,22.870996849751958,6.795451497920025
0.19030109965154265,0.319802061440677,261,38,22.870996849751958,6.795451497920025
0.19349831144696666,0.31979886416413045,261,38,22.870996849751958,6.795451497920025
0.19669549077238108,0.31979566692014233,261,38,22.870996849751958,6.795451497920025
0.19989263766699736,0.3197924697086666,261,38,22.870996849751958,6.795451497920025
0.20308975216703454,0.31978927252966094,261,38,22.870996849751958,6.795451497920025
0.20628683430594957,0.319786075383086,261,38,22.870996849751958,6.795451497920025
0.20948388411464974,0.3197828782689057,261,38,22.870996849751958,6.795451497920025
0.2126809016216887,0.3197796811870865,261,38,22.870996849751958,6.795451497920025
0.215877886853448,0.3197764841375975,261,38,22.870996849751958,6.795451497920025
0.2190748398343037,0.3197732871204102,261,38,22.870996849751958,6.795451497920025
0.22227176058678108,0.3197700901354981,261,38,22.870996849751958,6.795451497920025
0.22546864913169673,0.31976689318283696,261,38,22.870996849751958,6.795451497920025
0.22866550548829023,0.3197636962624042,261,38,22.870996849751958,6.795451497920025
0.23186232967434542,0.319760499374179,261,38,22.870996849751958,6.795451497920025
0.23505912170630244,0.31975730251814205,261,38,22.870996849751958,6.795451497920025
0.238255881599361,0.3197541056942757,261,38,22.870996849751958,6.795451497920025
0.241452609367576,0.3197509089025634,261,38,22.870996849751958,6.795451497920025
0.24464930502394538,0.3197477121429901,261,38,22.870996849751958,6.795451497920025
0.24784596858049177,0.31974451541554155,261,38,22.870996849751958,6.795451497920025
0.2510426000483371,0.31974131872020484,261,38,22.870996849751958,6.795451497920025
0.2542391994377724,0.31973812205696794,261,38,22.870996849751958,6.795451497920025
0.2574357667583213,0.31973492542581977,261,38,22.870996849751958,6.795451497920025
0.2606323020187993,0.31973172882675,261,38,22.870996849751958,6.795451497920025
0.2638288052273682,0.3197285322597491,261,38,22.870996849751958,6.795451497920025
0.26702527639158635,0.3197253357248083,261,38,22.870996849751958,6.795451497920025
0.2702217155184552,0.3197221392219194,261,38,22.870996849751958,6.795451497920025
0.27341812261446213,0.3197189427510748,261,38,22.870996849751958,6.795451497920025
0.2766144976856198,0.3197157463122676,261,38,22.870996849751958,6.795451497920025
0.2798108407375029,0.31971254990549125,261,38,22.870996849751958,6.795451497920025
0.2830071517752817,0.31970935353073976,261,38,22.870996849751958,6.795451497920025
0.2862034308037535,0.3197061571880075,261,38,22.870996849751958,6.795451497920025
0.28939967782737075,0.31970296087728933,261,38,22.870996849751958,6.795451497920025
0.2925958928502681,0.3196997645985805,261,38,22.870996849751958,6.795451497920025
0.2957920758762865,0.31969656835187654,261,38,22.870996849751958,6.795451497920025
0.298988226908996,0.31969337213717325,261,38,22.870996849751958,6.795451497920025
0.30218434595171667,0.31969017595446686,261,38,22.870996849751958,6.795451497920025
0.3053804330075376,0.31968697980375377,261,38,22.870996849751958,6.795451497920025
0.3085764880793347,0.3196837836850307,261,38,22.870996849751958,6.795451497920025
0.3117725111697874,0.3196805875982945,261,38,22.870996849751958,6.795451497920025
0.31496850228139317,0.3196773915435423,261,38,22.870996849751958,6.795451497920025
0.31816446141648247,0.3196741955207714,261,38,22.870996849751958,6.795451497920025
0.32136038857723037,0.31967099952997946,261,38,22.870996849751958,6.795451497920025
0.3245562837656697,0.319667803571164,261,38,22.870996849751958,6.795451497920025
0.3277521469837012,0.3196646076443228,261,38,22.870996849751958,6.795451497920025
0.3309479782331039,0.31966141174945395,261,38,22.870996849751958,6.795451497920025
0.3341437775155447,0.3196582158865555,261,38,22.870996849751958,6.795451497920025
0.33733954483258666,0.31965502005562574,261,38,22.870996849751958,6.795451497920025
0.3405352801856973,0.3196518242566629,261,38,22.870996849751958,6.795451497920025
0.3437309835762556,0.3196486284896654,261,38,22.870996849751958,6.795451497920025
0.34692665500555925,0.31964543275463186,261,38,22.870996849751958,6.795451497920025
0.35012229447483045,0.31964223705156086,261,38,22.870996849751958,6.795451497920025
0.3533179019852221,0.3196390413804512,261,38,22.870996849751958,6.795451497920025
0.3565134775378228,0.31963584574130144,261,38,22.870996849751958,6.795451497920025
0.35970902113366227,0.31963265013411063,261,38,22.870996849751958,6.795451497920025
0.3629045327737152,0.3196294545588776,261,38,22.870996849751958,6.795451497920025
0.36610001245890617,0.3196262590156013,261,38,22.870996849751958,6.795451497920025
0.36929546019011283,0.3196230635042808,261,38,22.870996849751958,6.795451497920025
0.37249087596817027,0.3196198680249152,261,38,22.870996849751958,6.795451497920025
0.37568625979387366,0.31961667257750354,261,38,22.870996849751958,6.795451497920025
0.3788816116679817,0.319613477162045,261,38,22.870996849751958,6.795451497920025
0.382076931591219,0.31961028177853884,261,38,22.870996849751958,6.795451497920025
0.3852722195642795,0.3196070864269843,261,38,22.870996849751958,6.795451497920025
0.38846747558782785,0.3196038911073806,261,38,22.870996849751958,6.795451497920025
0.3916626996625022,0.31960069581972705,261,38,22.870996849751958,6.795451497920025
0.39485789178891645,0.31959750056402303,261,38,22.870996849751958,6.795451497920025
0.39805305196766155,0.3195943053402679,261,38,22.870996849751958,6.795451497920025
0.4012481801993078,0.31959111014846103,261,38,22.870996849751958,6.795451497920025
0.4044432764844058,0.3195879149886018,261,38,22.870996849751958,6.795451497920025
0.40763834082348877,0.31958471986068965,261,38,22.870996849751958,6.795451497920025
0.4108333732170733,0.31958152476472407,261,38,22.870996849751958,6.795451497920025
0.41402837366566064,0.31957832970070454,261,38,22.870996849751958,6.795451497920025
0.4172233421697385,0.31957513466863047,261,38,22.870996849751958,6.795451497920025
0.4204182787297812,0.31957193966850134,261,38,22.870996849751958,6.795451497920025
0.4236131833462512,0.31956874470031676,261,38,22.870996849751958,6.795451497920025
0.4268080560196001,0.31956554976407625,261,38,22.870996849751958,6.795451497920025
0.43000289675026915,0.3195623548597793,261,38,22.870996849751958,6.795451497920025
0.43319770553869036,0.3195591599874254,261,38,22.870996849751958,6.795451497920025
0.436392482385287,0.31955596514701423,261,38,22.870996849751958,6.795451497920025
0.4395872272904744,0.3195527703385453,261,38,22.870996849751958,6.795451497920025
0.4427819402546604,0.3195495755620182,261,38,22.870996849751958,6.795451497920025
0.44597662127824605,0.3195463808174325,261,38,22.870996849751958,6.795451497920025
0.4491712703616263,0.31954318610478777,261,38,22.870996849751958,6.795451497920025
0.4523658875051899,0.3195399914240837,261,38,22.870996849751958,6.795451497920025
0.45556047270932065,0.31953679677531976,261,38,22.870996849751958,6.795451497920025
0.45875502597439705,0.31953360215849563,261,38,22.870996849751958,6.795451497920025
0.4619495473007933,0.319530407573611,261,38,22.870996849751958,6.795451497920025
0.46514403668887916,0.3195272130206654,261,38,22.870996849751958,6.795451497920025
0.46833849413902084,0.31952401849965845,261,38,22.870996849751958,6.795451497920025
0.47153291965158056,0.3195208240105898,261,38,22.870996849751958,6.795451497920025
0.47472731322691736,0.31951762955345914,261,38,22.870996849751958,6.795451497920025
0.4779216748653873,0.319514435128266,261,38,22.870996849751958,6.795451497920025
0.4811160045673434,0.31951124073501014,261,38,22.870996849751958,6.795451497920025
0.48431030233313654,0.31950804637369107,261,38,22.870996849751958,6.795451497920025
0.48750456816311466,0.31950485204430856,261,38,22.870996849751958,6.795451497920025
0.4906988020576237,0.31950165774686223,261,38,22.870996849751958,6.795451497920025
0.4938930040170077,0.3194984634813517,261,38,22.870996849751958,6.795451497920025
0.49708717404160846,0.3194952692477766,261,38,22.870996849751958,6.795451497920025
0.5002813121317662,0.31949207504613664,261,38,22.870996849751958,6.795451497920025
0.5034754182878195,0.31948888087643146,261,38,22.870996849751958,6.795451497920025
0.5066694925101058,0.31948568673866073,261,38,22.870996849751958,6.795451497920025
0.5098635347989605,0.3194824926328241,261,38,22.870996849751958,6.795451497920025
0.5130575451547182,0.3194792985589212,261,38,22.870996849751958,6.795451497920025
0.5162515235777122,0.31947610451695174,261,38,22.870996849751958,6.795451497920025
0.5194454700682749,0.3194729105069154,261,38,22.870996849751958,6.795451497920025
0.5226393846267371,0.31946971652881184,261,38,22.870996849751958,6.795451497920025
0.5258332672534294,0.3194665225826407,261,38,22.870996849751958,6.795451497920025
0.5290271179486813,0.3194633286684016,261,38,22.870996849751958,6.795451497920025
0.5322209367128212,0.3194601347860943,261,38,22.870996849751958,6.795451497920025
0.5354147235461773,0.31945694093571847,261,38,22.870996849751958,6.795451497920025
0.5386084784490762,0.3194537471172737,261,38,22.870996849751958,6.795451497920025
0.5418022014218455,0.3194505533307597,261,38,22.870996849751958,6.795451497920025
0.5449958924648106,0.3194473595761762,261,38,22.870996849751958,6.795451497920025
0.5481895515782972,0.3194441658535228,261,38,22.870996849751958,6.795451497920025
0.5513831787626304,0.3194409721627992,261,38,22.870996849751958,6.795451497920025
0.5545767740181348,0.3194377785040051,261,38,22.870996849751958,6.795451497920025
0.5577703373451345,0.31943458487714016,261,38,22.870996849751958,6.795451497920025
0.560963868743953,0.319431391282204,261,38,22.870996849751958,6.795451497920025
0.5641573682149144,0.3194281977191964,261,38,22.870996849751958,6.795451497920025
0.5673508357583413,0.3194250041881169,261,38,22.870996849751958,6.795451497920025
0.5705442713745567,0.3194218106889653,261,38,22.870996849751958,6.795451497920025
0.5737376750638831,0.31941861722174125,261,38,22.870996849751958,6.795451497920025
0.5769310468266426,0.3194154237864444,261,38,22.870996849751958,6.795451497920025
0.5801243866631572,0.31941223038307437,261,38,22.870996849751958,6.795451497920025
0.583317694573749,0.319409037011631,261,38,22.870996849751958,6.795451497920025
0.5865109705587396,0.3194058436721138,261,38,22.870996849751958,6.795451497920025
0.58970421461845,0.31940265036452253,261,38,22.870996849751958,6.795451497920025
0.5928974267532018,0.31939945708885686,261,38,22.870996849751958,6.795451497920025
0.5960906069633161,0.3193962638451165,261,38,22.870996849751958,6.795451497920025
0.5992837552491134,0.3193930706333011,261,38,22.870996849751958,6.795451497920025
0.6024768716109148,0.3193898774534103,261,38,22.870996849751958,6.795451497920025
0.605669956049041,0.3193866843054438,261,38,22.870996849751958,6.795451497920025
0.6088630085638124,0.31938349118940135,261,38,22.870996849751958,6.795451497920025
0.6120560291555497,0.3193802981052825,261,38,22.870996849751958,6.795451497920025
0.6152490178245729,0.3193771050530871,261,38,22.870996849751958,6.795451497920025
0.6184419745712022,0.3193739120328146,261,38,22.870996849751958,6.795451497920025
0.621634899395758,0.3193707190444649,261,38,22.870996849751958,6.795451497920025
0.6248277922985603,0.3193675260880376,261,38,22.870996849751958,6.795451497920025
0.6280206532799292,0.31936433316353235,261,38,22.870996849751958,6.795451497920025
0.6312134823401843,0.3193611402709488,261,38,22.870996849751958,6.795451497920025
0.6344062794796458,0.3193579474102867,261,38,22.870996849751958,6.795451497920025
0.6375990446986333,0.3193547545815458,261,38,22.870996849751958,6.795451497920025
0.6407917779974666,0.3193515617847256,261,38,22.870996849751958,6.795451497920025
0.6439844793764653,0.3193483690198259,261,38,22.870996849751958,6.795451497920025
0.6471771488359492,0.31934517628684633,261,38,22.870996849751958,6.795451497920025
0.650369786376238,0.31934198358578664,261,38,22.870996849751958,6.795451497920025
0.6535623919976511,0.3193387909166464,261,38,22.870996849751958,6.795451497920025
0.6567549657005078,0.31933559827942537,261,38,22.870996849751958,6.795451497920025
0.6599475074851281,0.31933240567412324,261,38,22.870996849751958,6.795451497920025
0.663140017351831,0.31932921310073964,261,38,22.870996849751958,6.795451497920025
0.6663324953009363,0.3193260205592743,261,38,22.870996849751958,6.795451497920025
0.6695249413327632,0.31932282804972684,261,38,22.870996849751958,6.795451497920025
0.6727173554476311,0.319319635572097,261,38,22.870996849751958,6.795451497920025
0.6759097376458594,0.3193164431263844,261,38,22.870996849751958,6.795451497920025
0.6791020879277674,0.3193132507125888,261,38,22.870996849751958,6.795451497920025
0.6822944062936744,0.3193100583307098,261,38,22.870996849751958,6.795451497920025
0.6854866927438997,0.31930686598074715,261,38,22.870996849751958,6.795451497920025
0.6886789472787626,0.31930367366270046,261,38,22.870996849751958,6.795451497920025
0.6918711698985824,0.31930048137656947,261,38,22.870996849751958,6.795451497920025
0.6950633606036778,0.3192972891223539,261,38,22.870996849751958,6.795451497920025
0.6982555193943688,0.3192940969000533,261,38,22.870996849751958,6.795451497920025
0.7014476462709744,0.3192909047096674,261,38,22.870996849751958,6.795451497920025
0.7046397412338135,0.3192877125511959,261,38,22.870996849751958,6.795451497920025
0.7078318042832054,0.31928452042463856,261,38,22.870996849751958,6.795451497920025
0.7110238354194693,0.31928132832999495,261,38,22.870996849751958,6.795451497920025
0.7142158346429244,0.31927813626726476,261,38,22.870996849751958,6.795451497920025
0.7174078019538896,0.3192749442364477,261,38,22.870996849751958,6.795451497920025
0.7205997373526846,0.31927175223754345,261,38,22.870996849751958,6.795451497920025
0.723791640839628,0.31926856027055167,261,38,22.870996849751958,6.795451497920025
0.7269835124150389,0.3192653683354721,261,38,22.870996849751958,6.795451497920025
0.7301753520792366,0.3192621764323043,261,38,22.870996849751958,6.795451497920025
0.7333671598325402,0.3192589845610481,261,38,22.870996849751958,6.795451497920025
0.736558935675269,0.3192557927217031,261,38,22.870996849751958,6.795451497920025
0.7397506796077415,0.319252600914269,261,38,22.870996849751958,6.795451497920025
0.7429423916302775,0.31924940913874544,261,38,22.870996849751958,6.795451497920025
0.7461340717431955,0.31924621739513215,261,38,22.870996849751958,6.795451497920025
0.7493257199468146,0.3192430256834288,261,38,22.870996849751958,6.795451497920025
0.7525173362414543,0.31923983400363504,261,38,22.870996849751958,6.795451497920025
0.7557089206274332,0.3192366423557506,261,38,22.870996849751958,6.795451497920025
0.7589004731050706,0.31923345073977516,261,38,22.870996849751958,6.795451497920025
