Vout,Iout,Irradiance,Temperature,MaxVoltage,MaxPower
0.0022873280064614767,0.45747,391,10,20.813435009344552,9.088503854425177
0.00686194172452472,0.45747,391,10,20.813435009344552,9.088503854425177
0.011436462441838494,0.4574676669249935,391,10,20.813435009344552,9.088503854425177
0.016010873543849703,0.45746309231127547,391,10,20.813435009344552,9.088503854425177
0.02058516960063416,0.45745851779079144,391,10,20.813435009344552,9.088503854425177
0.025159355946103405,0.4574539433801469,391,10,20.813435009344552,9.088503854425177
0.02973343750395662,0.4574493690845476,391,10,20.813435009344552,9.088503854425177
0.03430741881914172,0.4574447948986595,391,10,20.813435009344552,9.088503854425177
0.03888130408694634,0.45744022081755914,391,10,20.813435009344552,9.088503854425177
0.04345509717990128,0.45743564683670135,391,10,20.813435009344552,9.088503854425177
0.048028801672613884,0.45743107295189095,391,10,20.813435009344552,9.088503854425177
0.052602420864690774,0.45742649915925543,391,10,20.813435009344552,9.088503854425177
0.05717595780189683,0.4574219254552201,391,10,20.813435009344552,9.088503854425177
0.06174941529568616,0.4574173518364854,391,10,20.813435009344552,9.088503854425177
0.0663227959412303,0.45741277830000554,391,10,20.813435009344552,9.088503854425177
0.07089610213405946,0.4574082048429691,391,10,20.813435009344552,9.088503854425177
0.07546933608542308,0.4574036314627809,391,10,20.813435009344552,9.088503854425177
0.0800424998364688,0.45739905815704546,391,10,20.813435009344552,9.088503854425177
0.08461559527133032,0.4573944849235514,391,10,20.813435009344552,9.088503854425177
0.08918862412920826,0.45738991176025773,391,10,20.813435009344552,9.088503854425177
0.0937615880155216,0.45738533866528014,391,10,20.813435009344552,9.088503854425177
0.09833448841220109,0.4573807656368796,391,10,20.813435009344552,9.088503854425177
0.10290732668719042,0.4573761926734506,391,10,20.813435009344552,9.088503854425177
0.10748010410321686,0.4573716197735112,391,10,20.813435009344552,9.088503854425177
0.1120528218258865,0.4573670469356935,391,10,20.813435009344552,9.088503854425177
0.1166254809311571,0.45736247415873477,391,10,20.813435009344552,9.088503854425177
0.12119808241223567,0.4573579014414694,391,10,20.813435009344552,9.088503854425177
0.12577062718594548,0.4573533287828214,391,10,20.813435009344552,9.088503854425177
0.1303431160986032,0.4573487561817976,391,10,20.813435009344552,9.088503854425177
0.13491554993144356,0.45734418363748114,391,10,20.813435009344552,9.088503854425177
0.1394879294056272,0.45733961114902577,391,10,20.813435009344552,9.088503854425177
0.1440602551868626,0.4573350387156502,391,10,20.813435009344552,9.088503854425177
0.1486325278896728,0.45733046633663327,391,10,20.813435009344552,9.088503854425177
0.15320474808133352,0.45732589401130924,391,10,20.813435009344552,9.088503854425177
0.1577769162855087,0.4573213217390637,391,10,20.813435009344552,9.088503854425177
0.16234903298560577,0.45731674951932927,391,10,20.813435009344552,9.088503854425177
0.1669210986278733,0.4573121773515823,391,10,20.813435009344552,9.088503854425177
0.1714931136242599,0.4573076052353394,391,10,20.813435009344552,9.088503854425177
0.17606507835505333,0.45730303317015436,391,10,20.813435009344552,9.088503854425177
0.18063699317131668,0.4572984611556152,391,10,20.813435009344552,9.088503854425177
0.18520885839713677,0.4572938891913416,391,10,20.813435009344552,9.088503854425177
0.1897806743316998,0.4572893172769826,391,10,20.813435009344552,9.088503854425177
0.19435244125120738,0.4572847454122139,391,10,20.813435009344552,9.088503854425177
0.19892415941064473,0.45728017359673656,391,10,20.813435009344552,9.088503854425177
0.2034958290454134,0.4572756018302742,391,10,20.813435009344552,9.088503854425177
0.2080674503728379,0.457271030112572,391,10,20.813435009344552,9.088503854425177
0.21263902359355652,0.4572664584433944,391,10,20.813435009344552,9.088503854425177
0.2172105488928053,0.45726188682252417,391,10,20.813435009344552,9.088503854425177
0.2217820264416033,0.4572573152497606,391,10,20.813435009344552,9.088503854425177
0.226353456397846,0.4572527437249185,391,10,20.813435009344552,9.088503854425177
0.23092483890731533,0.4572481722478269,391,10,20.813435009344552,9.088503854425177
0.2354961741046118,0.45724360081832777,391,10,20.813435009344552,9.088503854425177
0.24006746211401464,0.4572390294362754,391,10,20.813435009344552,9.088503854425177
0.24463870305027596,0.4572344581015353,391,10,20.813435009344552,9.088503854425177
0.2492098970193539,0.457229886813983,391,10,20.813435009344552,9.088503854425177
0.253781044119089,0.4572253155735039,391,10,20.813435009344552,9.088503854425177
0.25835214443982923,0.45722074437999194,391,10,20.813435009344552,9.088503854425177
0.26292319806500575,0.45721617323334934,391,10,20.813435009344552,9.088503854425177
0.26749420507166616,0.4572116021334857,391,10,20.813435009344552,9.088503854425177
0.2720651655309644,0.4572070310803177,391,10,20.813435009344552,9.088503854425177
0.27663607950861535,0.45720246007376814,391,10,20.813435009344552,9.088503854425177
0.28120694706531263,0.4571978891137659,391,10,20.813435009344552,9.088503854425177
0.2857777682571151,0.4571933182002454,391,10,20.813435009344552,9.088503854425177
0.29034854313580355,0.45718874733314574,391,10,20.813435009344552,9.088503854425177
0.29491927174920995,0.45718417651241106,391,10,20.813435009344552,9.088503854425177
0.2994899541415211,0.45717960573798944,391,10,20.813435009344552,9.088503854425177
0.3040605903535588,0.45717503500983314,391,10,20.813435009344552,9.088503854425177
0.3086311804230397,0.4571704643278979,391,10,20.813435009344552,9.088503854425177
0.3132017243848132,0.45716589369214294,391,10,20.813435009344552,9.088503854425177
0.31777222227108265,0.4571613231025305,391,10,20.813435009344552,9.088503854425177
0.32234267411160866,0.4571567525590258,391,10,20.813435009344552,9.088503854425177
0.32691307993389723,0.4571521820615966,391,10,20.813435009344552,9.088503854425177
0.33148343976337313,0.4571476116102131,391,10,20.813435009344552,9.088503854425177
0.33605375362354,0.4571430412048479,391,10,20.813435009344552,9.088503854425177
0.34062402153612836,0.45713847084547543,391,10,20.813435009344552,9.088503854425177
0.3451942435212318,0.4571339005320723,391,10,20.813435009344552,9.088503854425177
0.349764419597433,0.4571293302646168,391,10,20.813435009344552,9.088503854425177
0.3543345497819199,0.4571247600430887,391,10,20.813435009344552,9.088503854425177
0.35890463409059353,0.45712018986746955,391,10,20.813435009344552,9.088503854425177
0.36347467253816623,0.45711561973774206,391,10,20.813435009344552,9.088503854425177
0.36804466513825335,0.45711104965389043,391,10,20.813435009344552,9.088503854425177
0.3726146119034583,0.45710647961589984,391,10,20.813435009344552,9.088503854425177
0.37718451284544957,0.45710190962375674,391,10,20.813435009344552,9.088503854425177
0.38175436797503304,0.4570973396774486,391,10,20.813435009344552,9.088503854425177
0.38632417730221835,0.45709276977696356,391,10,20.813435009344552,9.088503854425177
0.39089394083628015,0.457088199922291,391,10,20.813435009344552,9.088503854425177
0.39546365858581445,0.4570836301134208,391,10,20.813435009344552,9.088503854425177
0.4000333305587913,0.45707906035034374,391,10,20.813435009344552,9.088503854425177
0.40460295676260244,0.45707449063305117,391,10,20.813435009344552,9.088503854425177
0.409172537204106,0.45706992096153515,391,10,20.813435009344552,9.088503854425177
0.4137420718896678,0.4570653513357883,391,10,20.813435009344552,9.088503854425177
0.4183115608251988,0.4570607817558038,391,10,20.813435009344552,9.088503854425177
0.4228810040161904,0.45705621222157516,391,10,20.813435009344552,9.088503854425177
0.4274504014677465,0.4570516427330966,391,10,20.813435009344552,9.088503854425177
0.43201975318461355,0.4570470732903626,391,10,20.813435009344552,9.088503854425177
0.436589059171208,0.457042503893368,391,10,20.813435009344552,9.088503854425177
0.44115831943164135,0.45703793454210806,391,10,20.813435009344552,9.088503854425177
0.4457275339697442,0.4570333652365784,391,10,20.813435009344552,9.088503854425177
0.45029670278908734,0.45702879597677487,391,10,20.813435009344552,9.088503854425177
0.4548658258930021,0.4570242267626937,391,10,20.813435009344552,9.088503854425177
0.45943490328459846,0.45701965759433133,391,10,20.813435009344552,9.088503854425177
0.46400393496678244,0.4570150884716843,391,10,20.813435009344552,9.088503854425177
0.46857292094227154,0.4570105193947496,391,10,20.813435009344552,9.088503854425177
0.4731418612136093,0.45700595036352437,391,10,20.813435009344552,9.088503854425177
0.47771075578317856,0.4570013813780058,391,10,20.813435009344552,9.088503854425177
0.4822796046532141,0.45699681243819135,391,10,20.813435009344552,9.088503854425177
0.4868484078258139,0.4569922435440787,391,10,20.813435009344552,9.088503854425177
0.49141716530294954,0.45698767469566554,391,10,20.813435009344552,9.088503854425177
0.49598587708647607,0.4569831058929498,391,10,20.813435009344552,9.088503854425177
0.5005545431781411,0.45697853713592956,391,10,20.813435009344552,9.088503854425177
0.5051231635795924,0.4569739684246029,391,10,20.813435009344552,9.088503854425177
0.5096917382923871,0.4569693997589681,391,10,20.813435009344552,9.088503854425177
0.5142602673179967,0.45696483113902353,391,10,20.813435009344552,9.088503854425177
0.5188287506578146,0.4569602625647676,391,10,20.813435009344552,9.088503854425177
0.5233971883131628,0.4569556940361989,391,10,20.813435009344552,9.088503854425177
0.5279655802852964,0.4569511255533159,391,10,20.813435009344552,9.088503854425177
0.5325339265754089,0.4569465571161174,391,10,20.813435009344552,9.088503854425177
0.5371022271846372,0.4569419887246021,391,10,20.813435009344552,9.088503854425177
0.5416704821140658,0.4569374203787689,391,10,20.813435009344552,9.088503854425177
0.5462386913647311,0.4569328520786165,391,10,20.813435009344552,9.088503854425177
0.5508068549376247,0.4569282838241439,391,10,20.813435009344552,9.088503854425177
0.5553749728336972,0.45692371561535006,391,10,20.813435009344552,9.088503854425177
0.5599430450538608,0.456919147452234,391,10,20.813435009344552,9.088503854425177
0.5645110715989934,0.45691457933479473,391,10,20.813435009344552,9.088503854425177
0.5690790524699394,0.4569100112630314,391,10,20.813435009344552,9.088503854425177
0.5736469876675143,0.45690544323694304,391,10,20.813435009344552,9.088503854425177
0.5782148771925054,0.45690087525652895,391,10,20.813435009344552,9.088503854425177
0.5827827210456749,0.45689630732178815,391,10,20.813435009344552,9.088503854425177
0.5873505192277614,0.45689173943271993,391,10,20.813435009344552,9.088503854425177
0.5919182717394816,0.45688717158932357,391,10,20.813435009344552,9.088503854425177
0.5964859785815324,0.4568826037915983,391,10,20.813435009344552,9.088503854425177
0.6010536397545921,0.45687803603954336,391,10,20.813435009344552,9.088503854425177
0.6056212552593221,0.45687346833315806,391,10,20.813435009344552,9.088503854425177
0.610188825096368,0.4568689006724418,391,10,20.813435009344552,9.088503854425177
0.6147563492663601,0.4568643330573938,391,10,20.813435009344552,9.088503854425177
0.6193238277699168,0.45685976548801355,391,10,20.813435009344552,9.088503854425177
0.6238912606076427,0.4568551979643003,391,10,20.813435009344552,9.088503854425177
0.6284586477801316,0.4568506304862535,391,10,20.813435009344552,9.088503854425177
0.6330259892879668,0.45684606305387254,391,10,20.813435009344552,9.088503854425177
0.6375932851317218,0.4568414956671568,391,10,20.813435009344552,9.088503854425177
0.6421605353119606,0.45683692832610573,391,10,20.813435009344552,9.088503854425177
0.6467277398292397,0.4568323610307187,391,10,20.813435009344552,9.088503854425177
0.6512948986841073,0.4568277937809952,391,10,20.813435009344552,9.088503854425177
0.6558620118771048,0.45682322657693464,391,10,20.813435009344552,9.088503854425177
0.660429079408767,0.4568186594185365,391,10,20.813435009344552,9.088503854425177
0.6649961012796228,0.4568140923058002,391,10,20.813435009344552,9.088503854425177
0.6695630774901955,0.45680952523872526,391,10,20.813435009344552,9.088503854425177
0.674130008041003,0.45680495821731115,391,10,20.813435009344552,9.088503854425177
0.6786968929325585,0.45680039124155725,391,10,20.813435009344552,9.088503854425177
0.6832637321653712,0.45679582431146315,391,10,20.813435009344552,9.088503854425177
0.6878305257399463,0.4567912574270283,391,10,20.813435009344552,9.088503854425177
0.6923972736567845,0.45678669058825216,391,10,20.813435009344552,9.088503854425177
0.6969639759163837,0.4567821237951343,391,10,20.813435009344552,9.088503854425177
0.7015306325192385,0.45677755704767414,391,10,20.813435009344552,9.088503854425177
0.7060972434658402,0.4567729903458712,391,10,20.813435009344552,9.088503854425177
0.7106638087566782,0.45676842368972503,391,10,20.813435009344552,9.088503854425177
0.7152303283922388,0.4567638570792351,391,10,20.813435009344552,9.088503854425177
0.7197968023730059,0.45675929051440095,391,10,20.813435009344552,9.088503854425177
0.7243632306994617,0.45675472399522205,391,10,20.813435009344552,9.088503854425177
0.7289296133720862,0.45675015752169795,391,10,20.813435009344552,9.088503854425177
0.7334959503913572,0.4567455910938281,391,10,20.813435009344552,9.088503854425177
0.7380622417577517,0.45674102471161215,391,10,20.813435009344552,9.088503854425177
0.7426284874717443,0.4567364583750495,391,10,20.813435009344552,9.088503854425177
0.7471946875338087,0.4567318920841398,391,10,20.813435009344552,9.088503854425177
0.7517608419444171,0.4567273258388824,391,10,20.813435009344552,9.088503854425177
0.7563269507040403,0.456722759639277,391,10,20.813435009344552,9.088503854425177
0.7608930138131484,0.456718193485323,391,10,20.813435009344552,9.088503854425177
0.7654590312722102,0.45671362737702,391,10,20.813435009344552,9.088503854425177
0.7700250030816936,0.4567090613143675,391,10,20.813435009344552,9.088503854425177
0.7745909292420653,0.45670449529736507,391,10,20.813435009344552,9.088503854425177
0.7791568097537915,0.45669992932601217,391,10,20.813435009344552,9.088503854425177
0.7837226446173379,0.4566953634003084,391,10,20.813435009344552,9.088503854425177
0.7882884338331688,0.45669079752025327,391,10,20.813435009344552,9.088503854425177
0.7928541774017487,0.4566862316858463,391,10,20.813435009344552,9.088503854425177
0.7974198753235404,0.4566816658970871,391,10,20.813435009344552,9.088503854425177
0.8019855275990077,0.45667710015397506,391,10,20.813435009344552,9.088503854425177
0.8065511342286122,0.45667253445650985,391,10,20.813435009344552,9.088503854425177
0.8111166952128163,0.45666796880469096,391,10,20.813435009344552,9.088503854425177
0.8156822105520812,0.45666340319851795,391,10,20.813435009344552,9.088503854425177
0.8202476802468682,0.4566588376379903,391,10,20.813435009344552,9.088503854425177
0.8248131042976379,0.4566542721231076,391,10,20.813435009344552,9.088503854425177
0.8293784827048507,0.45664970665386934,391,10,20.813435009344552,9.088503854425177
0.8339438154689667,0.45664514123027516,391,10,20.813435009344552,9.088503854425177
0.8385091025904458,0.4566405758523245,391,10,20.813435009344552,9.088503854425177
0.8430743440697471,0.4566360105200169,391,10,20.813435009344552,9.088503854425177
0.8476395399073302,0.456631445233352,391,10,20.813435009344552,9.088503854425177
0.8522046901036541,0.4566268799923292,391,10,20.813435009344552,9.088503854425177
0.8567697946591777,0.45662231479694815,391,10,20.813435009344552,9.088503854425177
0.8613348535743592,0.45661774964720836,391,10,20.813435009344552,9.088503854425177
0.8658998668496576,0.45661318454310934,391,10,20.813435009344552,9.088503854425177
0.8704648344855308,0.45660861948465065,391,10,20.813435009344552,9.088503854425177
0.8750297564824371,0.4566040544718319,391,10,20.813435009344552,9.088503854425177
0.8795946328408342,0.4565994895046525,391,10,20.813435009344552,9.088503854425177
0.8841594635611797,0.4565949245831121,391,10,20.813435009344552,9.088503854425177
0.888724248643932,0.4565903597072102,391,10,20.813435009344552,9.088503854425177
0.8932889880895483,0.45658579487694634,391,10,20.813435009344552,9.088503854425177
0.897853681898486,0.4565812300923201,391,10,20.813435009344552,9.088503854425177
0.9024183300712028,0.45657666535333097,391,10,20.813435009344552,9.088503854425177
0.9069829326081555,0.4565721006599785,391,10,20.813435009344552,9.088503854425177
0.9115474895098018,0.45656753601226224,391,10,20.813435009344552,9.088503854425177
0.9161120007765986,0.45656297141018176,391,10,20.813435009344552,9.088503854425177
0.9206764664090029,0.4565584068537366,391,10,20.813435009344552,9.088503854425177
0.925240886407472,0.45655384234292623,391,10,20.813435009344552,9.088503854425177
0.9298052607724626,0.4565492778777503,391,10,20.813435009344552,9.088503854425177
0.9343695895044317,0.4565447134582083,391,10,20.813435009344552,9.088503854425177
0.9389338726038358,0.45654014908429974,391,10,20.813435009344552,9.088503854425177
0.9434981100711318,0.45653558475602424,391,10,20.813435009344552,9.088503854425177
0.9480623019067766,0.45653102047338123,391,10,20.813435009344552,9.088503854425177
0.9526264481112269,0.4565264562363704,391,10,20.813435009344552,9.088503854425177
0.9571905486849389,0.45652189204499116,391,10,20.813435009344552,9.088503854425177
0.9617546036283696,0.45651732789924315,391,10,20.813435009344552,9.088503854425177
0.9663186129419756,0.45651276379912586,391,10,20.813435009344552,9.088503854425177
0.9708825766262132,0.45650819974463885,391,10,20.813435009344552,9.088503854425177
0.9754464946815389,0.4565036357357816,391,10,20.813435009344552,9.088503854425177
0.9800103671084095,0.4564990717725538,391,10,20.813435009344552,9.088503854425177
0.9845741939072808,0.4564945078549549,391,10,20.813435009344552,9.088503854425177
0.98913797507861,0.4564899439829844,391,10,20.813435009344552,9.088503854425177
0.993701710622853,0.4564853801566419,391,10,20.813435009344552,9.088503854425177
0.9982654005404662,0.45648081637592697,391,10,20.813435009344552,9.088503854425177
1.002829044831906,0.45647625264083913,391,10,20.813435009344552,9.088503854425177
1.007392643497629,0.4564716889513779,391,10,20.813435009344552,9.088503854425177
1.011956196538091,0.4564671253075428,391,10,20.813435009344552,9.088503854425177
1.0165197039537488,0.45646256170933347,391,10,20.813435009344552,9.088503854425177
1.0210831657450583,0.45645799815674937,391,10,20.813435009344552,9.088503854425177
1.0256465819124763,0.45645343464979005,391,10,20.813435009344552,9.088503854425177
1.0302099524564583,0.4564488711884551,391,10,20.813435009344552,9.088503854425177
1.0347732773774612,0.45644430777274403,391,10,20.813435009344552,9.088503854425177
1.0393365566759407,0.4564397444026564,391,10,20.813435009344552,9.088503854425177
1.0438997903523533,0.45643518107819175,391,10,20.813435009344552,9.088503854425177
1.0484629784071549,0.4564306177993496,391,10,20.813435009344552,9.088503854425177
1.0530261208408023,0.4564260545661295,391,10,20.813435009344552,9.088503854425177
1.0575892176537514,0.45642149137853105,391,10,20.813435009344552,9.088503854425177
1.0621522688464584,0.4564169282365537,391,10,20.813435009344552,9.088503854425177
1.066715274419379,0.4564123651401971,391,10,20.813435009344552,9.088503854425177
1.0712782343729697,0.4564078020894607,391,10,20.813435009344552,9.088503854425177
1.0758411487076867,0.4564032390843441,391,10,20.813435009344552,9.088503854425177
1.0804040174239857,0.4563986761248468,391,10,20.813435009344552,9.088503854425177
1.0849668405223234,0.4563941132109684,391,10,20.813435009344552,9.088503854425177
