Vout,Iout,Irradiance,Temperature,MaxVoltage,MaxPower
0.005456837530408362,1.091378,911,24,21.857152002897635,23.37714483787828
0.016370411689134452,1.091378,911,24,21.857152002897635,23.37714483787828
0.02728376397763528,1.0913724340246695,911,24,21.857152002897635,23.37714483787828
0.03819685475886857,1.091361520450511,911,24,21.857152002897635,23.37714483787828
0.049109671078761255,1.0913506070987788,911,24,21.857152002897635,23.37714483787828
0.06002222566233073,1.0913396940090891,911,24,21.857152002897635,23.37714483787828
0.07093453025595814,1.0913287811938606,911,24,21.857152002897635,23.37714483787828
0.08184659570244442,1.0913178686403682,911,24,21.857152002897635,23.37714483787828
0.09275843201041231,1.0913069563368658,911,24,21.857152002897635,23.37714483787828
0.10367004841848929,1.0912960442725106,911,24,21.857152002897635,23.37714483787828
0.11458145345455223,1.0912851324372939,911,24,21.857152002897635,23.37714483787828
0.1254926549904136,1.091274220821977,911,24,21.857152002897635,23.37714483787828
0.13640366029230022,1.0912633094180322,911,24,21.857152002897635,23.37714483787828
0.14731447606744788,1.0912523982175875,911,24,21.857152002897635,23.37714483787828
0.15822510850711102,1.0912414872133767,911,24,21.857152002897635,23.37714483787828
0.16913556332626306,1.0912305763986927,911,24,21.857152002897635,23.37714483787828
0.18004584580024238,1.091219665767344,911,24,21.857152002897635,23.37714483787828
0.1909559607985784,1.091208755313616,911,24,21.857152002897635,23.37714483787828
0.2018659128162152,1.091197845032233,911,24,21.857152002897635,23.37714483787828
0.21277570600233253,1.0911869349183259,911,24,21.857152002897635,23.37714483787828
0.2236853441869499,1.0911760249673992,911,24,21.857152002897635,23.37714483787828
0.23459483090548283,1.0911651151753041,911,24,21.857152002897635,23.37714483787828
0.24550416942141026,1.0911542055382104,911,24,21.857152002897635,23.37714483787828
0.256413362747198,1.0911432960525829,911,24,21.857152002897635,23.37714483787828
0.26732241366361165,1.0911323867151579,911,24,21.857152002897635,23.37714483787828
0.2782313247375444,1.0911214775229232,911,24,21.857152002897635,23.37714483787828
0.2891400983384725,1.0911105684730977,911,24,21.857152002897635,23.37714483787828
0.30004873665364473,1.0910996595631146,911,24,21.857152002897635,23.37714483787828
0.3109572417021037,1.0910887507906046,911,24,21.857152002897635,23.37714483787828
0.3218656153476272,1.0910778421533804,911,24,21.857152002897635,23.37714483787828
0.3327738593106753,1.0910669336494228,911,24,21.857152002897635,23.37714483787828
0.3436819751794168,1.0910560252768682,911,24,21.857152002897635,23.37714483787828
0.35458996441990814,1.0910451170339959,911,24,21.857152002897635,23.37714483787828
0.36549782838548905,1.091034208919218,911,24,21.857152002897635,23.37714483787828
0.376405568325455,1.0910233009310684,911,24,21.857152002897635,23.37714483787828
0.38731318539306286,1.0910123930681936,911,24,21.857152002897635,23.37714483787828
0.39822068065291955,1.0910014853293444,911,24,21.857152002897635,23.37714483787828
0.4091280550878037,1.0909905777133675,911,24,21.857152002897635,23.37714483787828
0.4200353096049609,1.0909796702191985,911,24,21.857152002897635,23.37714483787828
0.43094244504191603,1.0909687628458544,911,24,21.857152002897635,23.37714483787828
0.44184946217183724,1.090957855592428,911,24,21.857152002897635,23.37714483787828
0.4527563617084879,1.0909469484580818,911,24,21.857152002897635,23.37714483787828
0.46366314431079686,1.0909360414420426,911,24,21.857152002897635,23.37714483787828
0.47456981058707814,1.0909251345435966,911,24,21.857152002897635,23.37714483787828
0.485476361098925,1.090914227762085,911,24,21.857152002897635,23.37714483787828
0.4963827963648044,1.0909033210968995,911,24,21.857152002897635,23.37714483787828
0.5072891168633757,1.0908924145474783,911,24,21.857152002897635,23.37714483787828
0.5181953230365537,1.090881508113303,911,24,21.857152002897635,23.37714483787828
0.5291014152923343,1.0908706017938952,911,24,21.857152002897635,23.37714483787828
0.5400073940074069,1.0908596955888126,911,24,21.857152002897635,23.37714483787828
0.5509132595295605,1.0908487894976475,911,24,21.857152002897635,23.37714483787828
0.5618190121799091,1.090837883520023,911,24,21.857152002897635,23.37714483787828
0.5727246522549438,1.0908269776555914,911,24,21.857152002897635,23.37714483787828
0.5836301800284263,1.0908160719040316,911,24,21.857152002897635,23.37714483787828
0.594535595753139,1.0908051662650473,911,24,21.857152002897635,23.37714483787828
0.6054408996624985,1.0907942607383643,911,24,21.857152002897635,23.37714483787828
0.6163460919720463,1.0907833553237303,911,24,21.857152002897635,23.37714483787828
0.6272511728808229,1.0907724500209113,911,24,21.857152002897635,23.37714483787828
0.6381561425726385,1.0907615448296923,911,24,21.857152002897635,23.37714483787828
0.6490610012172449,1.090750639749874,911,24,21.857152002897635,23.37714483787828
0.6599657489714161,1.0907397347812728,911,24,21.857152002897635,23.37714483787828
0.670870385979948,1.0907288299237188,911,24,21.857152002897635,23.37714483787828
0.6817749123765795,1.0907179251770551,911,24,21.857152002897635,23.37714483787828
0.6926793282848431,1.090707020541137,911,24,21.857152002897635,23.37714483787828
0.7035836338188504,1.0906961160158308,911,24,21.857152002897635,23.37714483787828
0.7144878290840166,1.090685211601013,911,24,21.857152002897635,23.37714483787828
0.7253919141777306,1.0906743072965694,911,24,21.857152002897635,23.37714483787828
0.7362958891899717,1.0906634031023947,911,24,21.857152002897635,23.37714483787828
0.7471997542038797,1.0906524990183915,911,24,21.857152002897635,23.37714483787828
0.7581035092962813,1.0906415950444697,911,24,21.857152002897635,23.37714483787828
0.769007154538176,1.0906306911805461,911,24,21.857152002897635,23.37714483787828
0.7799106899951845,1.0906197874265442,911,24,21.857152002897635,23.37714483787828
0.7908141157279619,1.0906088837823926,911,24,21.857152002897635,23.37714483787828
0.8017174317925809,1.0905979802480261,911,24,21.857152002897635,23.37714483787828
0.8126206382408833,1.0905870768233836,911,24,21.857152002897635,23.37714483787828
0.8235237351208058,1.0905761735084094,911,24,21.857152002897635,23.37714483787828
0.834426722476681,1.0905652703030515,911,24,21.857152002897635,23.37714483787828
0.8453296003495142,1.0905543672072617,911,24,21.857152002897635,23.37714483787828
0.8562323687772398,1.0905434642209964,911,24,21.857152002897635,23.37714483787828
0.8671350277949564,1.0905325613442136,911,24,21.857152002897635,23.37714483787828
0.8780375774351469,1.0905216585768762,911,24,21.857152002897635,23.37714483787828
0.8889400177278782,1.0905107559189489,911,24,21.857152002897635,23.37714483787828
0.8998423487009881,1.090499853370399,911,24,21.857152002897635,23.37714483787828
0.9107445703802556,1.0904889509311966,911,24,21.857152002897635,23.37714483787828
0.9216466827895605,1.0904780486013137,911,24,21.857152002897635,23.37714483787828
0.9325486859510294,1.0904671463807245,911,24,21.857152002897635,23.37714483787828
0.94345057988517,1.0904562442694055,911,24,21.857152002897635,23.37714483787828
0.9543523646109957,1.0904453422673344,911,24,21.857152002897635,23.37714483787828
0.965254040146141,1.0904344403744903,911,24,21.857152002897635,23.37714483787828
0.9761556065069676,1.0904235385908547,911,24,21.857152002897635,23.37714483787828
0.987057063708662,1.0904126369164098,911,24,21.857152002897635,23.37714483787828
0.9979584117653257,1.090401735351139,911,24,21.857152002897635,23.37714483787828
1.0088596506900593,1.0903908338950277,911,24,21.857152002897635,23.37714483787828
1.01976078049504,1.0903799325480612,911,24,21.857152002897635,23.37714483787828
1.0306618011915902,1.0903690313102266,911,24,21.857152002897635,23.37714483787828
1.0415627127902471,1.0903581301815117,911,24,21.857152002897635,23.37714483787828
1.0524635153008188,1.0903472291619052,911,24,21.857152002897635,23.37714483787828
1.063364208732444,1.0903363282513967,911,24,21.857152002897635,23.37714483787828
1.0742647930936415,1.0903254274499763,911,24,21.857152002897635,23.37714483787828
1.0851652683923587,1.0903145267576346,911,24,21.857152002897635,23.37714483787828
1.0960656346360158,1.0903036261743635,911,24,21.857152002897635,23.37714483787828
1.1069658918315448,1.090292725700155,911,24,21.857152002897635,23.37714483787828
1.117866039985429,1.0902818253350013,911,24,21.857152002897635,23.37714483787828
1.128766079103736,1.0902709250788958,911,24,21.857152002897635,23.37714483787828
1.1396660091921513,1.090260024931832,911,24,21.857152002897635,23.37714483787828
1.150565830256006,1.0902491248938038,911,24,21.857152002897635,23.37714483787828
1.1614655423003053,1.0902382249648053,911,24,21.857152002897635,23.37714483787828
1.172365145329753,1.0902273251448316,911,24,21.857152002897635,23.37714483787828
1.1832646393487742,1.090216425433877,911,24,21.857152002897635,23.37714483787828
1.1941640243615383,1.0902055258319376,911,24,21.857152002897635,23.37714483787828
1.2050633003719773,1.0901946263390085,911,24,21.857152002897635,23.37714483787828
1.2159624673838036,1.0901837269550858,911,24,21.857152002897635,23.37714483787828
1.2268615254005295,1.0901728276801654,911,24,21.857152002897635,23.37714483787828
1.2377604744254795,1.0901619285142434,911,24,21.857152002897635,23.37714483787828
1.248659314461807,1.0901510294573167,911,24,21.857152002897635,23.37714483787828
1.259558045512506,1.0901401305093816,911,24,21.857152002897635,23.37714483787828
1.2704566675804236,1.0901292316704352,911,24,21.857152002897635,23.37714483787828
1.281355180668273,1.0901183329404744,911,24,21.857152002897635,23.37714483787828
1.292253584778641,1.0901074343194963,911,24,21.857152002897635,23.37714483787828
1.3031518799139998,1.0900965358074983,911,24,21.857152002897635,23.37714483787828
1.3140500660767158,1.0900856374044778,911,24,21.857152002897635,23.37714483787828
1.3249481432690557,1.0900747391104324,911,24,21.857152002897635,23.37714483787828
1.3358461114931968,1.0900638409253596,911,24,21.857152002897635,23.37714483787828
1.3467439707512323,1.090052942849257,911,24,21.857152002897635,23.37714483787828
1.3576417210451779,1.0900420448821226,911,24,21.857152002897635,23.37714483787828
1.3685393623769786,1.0900311470239545,911,24,21.857152002897635,23.37714483787828
1.3794368947485127,1.0900202492747504,911,24,21.857152002897635,23.37714483787828
1.3903343181615988,1.0900093516345082,911,24,21.857152002897635,23.37714483787828
1.4012316326179983,1.0899984541032266,911,24,21.857152002897635,23.37714483787828
1.4121288381194215,1.0899875566809032,911,24,21.857152002897635,23.37714483787828
1.4230259346675314,1.0899766593675366,911,24,21.857152002897635,23.37714483787828
1.4339229222639456,1.089965762163125,911,24,21.857152002897635,23.37714483787828
1.4448198009102418,1.0899548650676665,911,24,21.857152002897635,23.37714483787828
1.4557165706079602,1.0899439680811598,911,24,21.857152002897635,23.37714483787828
1.466613231358606,1.0899330712036033,911,24,21.857152002897635,23.37714483787828
1.4775097831636521,1.0899221744349952,911,24,21.857152002897635,23.37714483787828
1.488406226024543,1.0899112777753341,911,24,21.857152002897635,23.37714483787828
1.4993025599426941,1.0899003812246189,911,24,21.857152002897635,23.37714483787828
1.5101987849194973,1.0898894847828475,911,24,21.857152002897635,23.37714483787828
1.5210949009563206,1.089878588450019,911,24,21.857152002897635,23.37714483787828
1.53199090805451,1.089867692226132,911,24,21.857152002897635,23.37714483787828
1.5428868062153926,1.0898567961111847,911,24,21.857152002897635,23.37714483787828
1.5537825954402766,1.0898459001051761,911,24,21.857152002897635,23.37714483787828
1.5646782757304538,1.0898350042081049,911,24,21.857152002897635,23.37714483787828
1.5755738470871998,1.0898241084199696,911,24,21.857152002897635,23.37714483787828
1.5864693095117761,1.0898132127407691,911,24,21.857152002897635,23.37714483787828
1.597364663005431,1.089802317170502,911,24,21.857152002897635,23.37714483787828
1.6082599075694004,1.0897914217091669,911,24,21.857152002897635,23.37714483787828
1.6191550432049093,1.0897805263567628,911,24,21.857152002897635,23.37714483787828
1.6300500699131717,1.0897696311132883,911,24,21.857152002897635,23.37714483787828
1.6409449876953917,1.0897587359787424,911,24,21.857152002897635,23.37714483787828
1.6518397965527658,1.0897478409531236,911,24,21.857152002897635,23.37714483787828
1.6627344964864812,1.089736946036431,911,24,21.857152002897635,23.37714483787828
1.6736290874977178,1.089726051228663,911,24,21.857152002897635,23.37714483787828
1.684523569587648,1.0897151565298189,911,24,21.857152002897635,23.37714483787828
1.6954179427574387,1.0897042619398971,911,24,21.857152002897635,23.37714483787828
1.7063122070082504,1.0896933674588967,911,24,21.857152002897635,23.37714483787828
1.717206362341238,1.0896824730868164,911,24,21.857152002897635,23.37714483787828
1.7281004087575502,1.089671578823655,911,24,21.857152002897635,23.37714483787828
1.738994346258334,1.0896606846694115,911,24,21.857152002897635,23.37714483787828
1.7498881748447288,1.0896497906240845,911,24,21.857152002897635,23.37714483787828
1.760781894517872,1.089638896687673,911,24,21.857152002897635,23.37714483787828
1.7716755052788966,1.0896280028601761,911,24,21.857152002897635,23.37714483787828
1.7825690071289324,1.0896171091415925,911,24,21.857152002897635,23.37714483787828
1.7934624000691055,1.0896062155319208,911,24,21.857152002897635,23.37714483787828
1.8043556841005397,1.08959532203116,911,24,21.857152002897635,23.37714483787828
1.8152488592243556,1.0895844286393093,911,24,21.857152002897635,23.37714483787828
1.8261419254416724,1.0895735353563671,911,24,21.857152002897635,23.37714483787828
1.8370348827536058,1.0895626421823328,911,24,21.857152002897635,23.37714483787828
1.8479277311612703,1.0895517491172046,911,24,21.857152002897635,23.37714483787828
1.858820470665777,1.089540856160982,911,24,21.857152002897635,23.37714483787828
1.869713101268237,1.0895299633136637,911,24,21.857152002897635,23.37714483787828
1.8806056229697588,1.0895190705752487,911,24,21.857152002897635,23.37714483787828
1.8914980357714497,1.0895081779457354,911,24,21.857152002897635,23.37714483787828
1.9023903396744146,1.0894972854251233,911,24,21.857152002897635,23.37714483787828
1.9132825346797588,1.0894863930134107,911,24,21.857152002897635,23.37714483787828
1.9241746207885848,1.089475500710597,911,24,21.857152002897635,23.37714483787828
1.9350665980019945,1.0894646085166808,911,24,21.857152002897635,23.37714483787828
1.9459584663210894,1.0894537164316613,911,24,21.857152002897635,23.37714483787828
1.956850225746969,1.0894428244555372,911,24,21.857152002897635,23.37714483787828
1.967741876280733,1.0894319325883073,911,24,21.857152002897635,23.37714483787828
1.978633417923479,1.0894210408299705,911,24,21.857152002897635,23.37714483787828
1.9895248506763052,1.089410149180526,911,24,21.857152002897635,23.37714483787828
2.0004161745403084,1.0893992576399725,911,24,21.857152002897635,23.37714483787828
2.0113073895165843,1.0893883662083088,911,24,21.857152002897635,23.37714483787828
2.0221984956062293,1.0893774748855338,911,24,21.857152002897635,23.37714483787828
2.0330894928103382,1.0893665836716468,911,24,21.857152002897635,23.37714483787828
2.0439803811300052,1.0893556925666463,911,24,21.857152002897635,23.37714483787828
2.054871160566325,1.0893448015705312,911,24,21.857152002897635,23.37714483787828
2.0657618311203914,1.0893339106833007,911,24,21.857152002897635,23.37714483787828
2.0766523927932963,1.0893230199049535,911,24,21.857152002897635,23.37714483787828
2.0875428455861336,1.0893121292354886,911,24,21.857152002897635,23.37714483787828
2.098433189499996,1.0893012386749046,911,24,21.857152002897635,23.37714483787828
2.109323424535975,1.0892903482232008,911,24,21.857152002897635,23.37714483787828
2.120213550695164,1.0892794578803762,911,24,21.857152002897635,23.37714483787828
2.1311035679786534,1.089268567646429,911,24,21.857152002897635,23.37714483787828
2.1419934763875346,1.089257677521359,911,24,21.857152002897635,23.37714483787828
2.1528832759228984,1.0892467875051646,911,24,21.857152002897635,23.37714483787828
2.1637729665858374,1.0892358975978447,911,24,21.857152002897635,23.37714483787828
2.174662548377441,1.0892250077993983,911,24,21.857152002897635,23.37714483787828
2.1855520212988004,1.0892141181098243,911,24,21.857152002897635,23.37714483787828
2.1964413853510054,1.0892032285291218,911,24,21.857152002897635,23.37714483787828
2.2073306405351474,1.0891923390572893,911,24,21.857152002897635,23.37714483787828
2.218219786852315,1.0891814496943262,911,24,21.857152002897635,23.37714483787828
2.229108824303599,1.0891705604402309,911,24,21.857152002897635,23.37714483787828
2.2399977528900887,1.0891596712950027,911,24,21.857152002897635,23.37714483787828
2.250886572612875,1.0891487822586403,911,24,21.857152002897635,23.37714483787828
2.2617752834730456,1.0891378933311426,911,24,21.857152002897635,23.37714483787828
2.2726638854716916,1.0891270045125088,911,24,21.857152002897635,23.37714483787828
2.2835523786099015,1.0891161158027376,911,24,21.857152002897635,23.37714483787828
2.294440762888765,1.0891052272018278,911,24,21.857152002897635,23.37714483787828
2.3053290383093707,1.0890943387097785,911,24,21.857152002897635,23.37714483787828
2.316217204872808,1.0890834503265885,911,24,21.857152002897635,23.37714483787828
2.327105262580167,1.0890725620522568,911,24,21.857152002897635,23.37714483787828
2.337993211432535,1.0890616738867822,911,24,21.857152002897635,23.37714483787828
2.3488810514310026,1.0890507858301637,911,24,21.857152002897635,23.37714483787828
2.359768782576658,1.0890398978824,911,24,21.857152002897635,23.37714483787828
2.3706564048705894,1.0890290100434903,911,24,21.857152002897635,23.37714483787828
2.3815439183138865,1.0890181223134334,911,24,21.857152002897635,23.37714483787828
2.3924313229076364,1.0890072346922284,911,24,21.857152002897635,23.37714483787828
2.4033186186529294,1.0889963471798738,911,24,21.857152002897635,23.37714483787828
2.414205805550854,1.0889854597763688,911,24,21.857152002897635,23.37714483787828
2.425092883602498,1.0889745724817124,911,24,21.857152002897635,23.37714483787828
2.435979852808951,1.088963685295903,911,24,21.857152002897635,23.37714483787828
2.4468667131713007,1.0889527982189402,911,24,21.857152002897635,23.37714483787828
2.4577534646906356,1.0889419112508225,911,24,21.857152002897635,23.37714483787828
2.468640107368044,1.0889310243915489,911,24,21.857152002897635,23.37714483787828
2.4795266412046146,1.0889201376411182,911,24,21.857152002897635,23.37714483787828
2.490413066201436,1.0889092509995295,911,24,21.857152002897635,23.37714483787828
2.501299382359596,1.0888983644667816,911,24,21.857152002897635,23.37714483787828
2.5121855896801835,1.0888874780428734,911,24,21.857152002897635,23.37714483787828
2.5230716881642867,1.0888765917278038,911,24,21.857152002897635,23.37714483787828
2.533957677812993,1.088865705521572,911,24,21.857152002897635,23.37714483787828
2.544843558627392,1.0888548194241765,911,24,21.857152002897635,23.37714483787828
2.555729330608571,1.0888439334356164,911,24,21.857152002897635,23.37714483787828
2.5666149937576193,1.0888330475558907,911,24,21.857152002897635,23.37714483787828
2.5775005480756232,1.088822161784998,911,24,21.857152002897635,23.37714483787828
2.588385993563672,1.0888112761229376,911,24,21.857152002897635,23.37714483787828
2.5992713302228543,1.0888003905697081,911,24,21.857152002897635,23.37714483787828
2.610156558054257,1.0887895051253087,911,24,21.857152002897635,23.37714483787828
2.6210416770589697,1.088778619789738,911,24,21.857152002897635,23.37714483787828
