Vout,Iout,Irradiance,Temperature,MaxVoltage,MaxPower
0.003990591628926645,0.798126,651,38,22.87399789022228,17.733465471465852
0.01197170109696377,0.798126,651,38,22.87399789022228,17.733465471465852
0.019952648311047257,0.7981219295957711,651,38,22.87399789022228,17.733465471465852
0.027933404284562025,0.798113948486303,651,38,22.87399789022228,17.733465471465852
0.03591395954417938,0.798105967539496,651,38,22.87399789022228,17.733465471465852
0.04389432339571933,0.7980979867843206,651,38,22.87399789022228,17.733465471465852
0.051874504429324064,0.798090006229859,651,38,22.87399789022228,17.733465471465852
0.059854510574346514,0.7980820258668057,651,38,22.87399789022228,17.733465471465852
0.06783434915010411,0.79807404568657,651,38,22.87399789022228,17.733465471465852
0.07581402691281589,0.7980660656812231,651,38,22.87399789022228,17.733465471465852
0.08379355009892805,0.7980580858434453,651,38,22.87399789022228,17.733465471465852
0.09177292446510632,0.7980501061664806,651,38,22.87399789022228,17.733465471465852
0.09975215532515073,0.7980421266440925,651,38,22.87399789022228,17.733465471465852
0.10773124758407067,0.7980341472705242,651,38,22.87399789022228,17.733465471465852
0.11571020576953762,0.7980261680404622,651,38,22.87399789022228,17.733465471465852
0.12368903406091837,0.7980181889490012,651,38,22.87399789022228,17.733465471465852
0.13166773631607398,0.7980102099916137,651,38,22.87399789022228,17.733465471465852
0.139646316096097,0.7980022311641202,651,38,22.87399789022228,17.733465471465852
0.1476247766881451,0.797994252462663,651,38,22.87399789022228,17.733465471465852
0.15560312112651856,0.7979862738836808,651,38,22.87399789022228,17.733465471465852
0.16358135221211487,0.7979782954238867,651,38,22.87399789022228,17.733465471465852
0.1715594725303875,0.7979703170802461,651,38,22.87399789022228,17.733465471465852
0.17953748446792256,0.7979623388499584,651,38,22.87399789022228,17.733465471465852
0.1875153902277396,0.7979543607304379,651,38,22.87399789022228,17.733465471465852
0.1954931918434159,0.7979463827192982,651,38,22.87399789022228,17.733465471465852
0.2034708911921234,0.7979384048143362,651,38,22.87399789022228,17.733465471465852
0.21144849000666271,0.7979304270135184,651,38,22.87399789022228,17.733465471465852
0.21942598988657164,0.7979224493149674,651,38,22.87399789022228,17.733465471465852
0.22740339230837817,0.7979144717169506,651,38,22.87399789022228,17.733465471465852
0.23538069863506528,0.7979064942178685,651,38,22.87399789022228,17.733465471465852
0.24335791012480734,0.7978985168162445,651,38,22.87399789022228,17.733465471465852
0.251335027939034,0.7978905395107155,651,38,22.87399789022228,17.733465471465852
0.25931205314987427,0.7978825623000235,651,38,22.87399789022228,17.733465471465852
0.2672889867470269,0.797874585183007,651,38,22.87399789022228,17.733465471465852
0.27526582964410323,0.7978666081585939,651,38,22.87399789022228,17.733465471465852
0.28324258268448105,0.7978586312257945,651,38,22.87399789022228,17.733465471465852
0.29121924664670906,0.7978506543836951,651,38,22.87399789022228,17.733465471465852
0.2991958222494941,0.7978426776314524,651,38,22.87399789022228,17.733465471465852
0.30717231015630597,0.7978347009682879,651,38,22.87399789022228,17.733465471465852
0.31514871097962777,0.7978267243934828,651,38,22.87399789022228,17.733465471465852
0.32312502528487813,0.7978187479063736,651,38,22.87399789022228,17.733465471465852
0.3311012535940329,0.7978107715063479,651,38,22.87399789022228,17.733465471465852
0.3390773963889679,0.7978027951928404,651,38,22.87399789022228,17.733465471465852
0.3470534541145435,0.7977948189653288,651,38,22.87399789022228,17.733465471465852
0.35502942718145364,0.7977868428233316,651,38,22.87399789022228,17.733465471465852
0.3630053159688538,0.7977788667664035,651,38,22.87399789022228,17.733465471465852
0.3709811208267883,0.7977708907941342,651,38,22.87399789022228,17.733465471465852
0.37895684207842956,0.7977629149061445,651,38,22.87399789022228,17.733465471465852
0.386932480022146,0.7977549391020842,651,38,22.87399789022228,17.733465471465852
0.39490803493341037,0.7977469633816301,651,38,22.87399789022228,17.733465471465852
0.40288350706656173,0.7977389877444839,651,38,22.87399789022228,17.733465471465852
0.41085889665643094,0.7977310121903702,651,38,22.87399789022228,17.733465471465852
0.41883420391984194,0.7977230367190347,651,38,22.87399789022228,17.733465471465852
0.4268094290569974,0.7977150613302424,651,38,22.87399789022228,17.733465471465852
0.4347845722527572,0.7977070860237765,651,38,22.87399789022228,17.733465471465852
0.44275963367781945,0.7976991107994369,651,38,22.87399789022228,17.733465471465852
0.45073461348980937,0.7976911356570386,651,38,22.87399789022228,17.733465471465852
0.45870951183428604,0.7976831605964111,651,38,22.87399789022228,17.733465471465852
0.4666843288456699,0.7976751856173966,651,38,22.87399789022228,17.733465471465852
0.4746590646481006,0.7976672107198497,651,38,22.87399789022228,17.733465471465852
0.4826337193562272,0.7976592359036357,651,38,22.87399789022228,17.733465471465852
0.49060829307593895,0.7976512611686308,651,38,22.87399789022228,17.733465471465852
0.4985827859050393,0.7976432865147202,651,38,22.87399789022228,17.733465471465852
0.5065571979338677,0.7976353119417979,651,38,22.87399789022228,17.733465471465852
0.5145315292458742,0.7976273374497663,651,38,22.87399789022228,17.733465471465852
0.5225057799181491,0.797619363038535,651,38,22.87399789022228,17.733465471465852
0.5304799500219131,0.7976113887080204,651,38,22.87399789022228,17.733465471465852
0.538454039622968,0.7976034144581455,651,38,22.87399789022228,17.733465471465852
0.5464280487821136,0.7975954402888392,651,38,22.87399789022228,17.733465471465852
0.5544019775555342,0.7975874662000356,651,38,22.87399789022228,17.733465471465852
0.5623758259951513,0.7975794921916739,651,38,22.87399789022228,17.733465471465852
0.5703495941489534,0.7975715182636979,651,38,22.87399789022228,17.733465471465852
0.5783232820612981,0.7975635444160556,651,38,22.87399789022228,17.733465471465852
0.5862968897731908,0.7975555706486992,651,38,22.87399789022228,17.733465471465852
0.5942704173225437,0.7975475969615843,651,38,22.87399789022228,17.733465471465852
0.6022438647444133,0.7975396233546698,651,38,22.87399789022228,17.733465471465852
0.6102172320712198,0.7975316498279178,651,38,22.87399789022228,17.733465471465852
0.6181905193329503,0.7975236763812933,651,38,22.87399789022228,17.733465471465852
0.6261637265573462,0.7975157030147638,651,38,22.87399789022228,17.733465471465852
0.6341368537700754,0.7975077297282994,651,38,22.87399789022228,17.733465471465852
0.6421099009948927,0.7974997565218723,651,38,22.87399789022228,17.733465471465852
0.650082868253786,0.7974917833954569,651,38,22.87399789022228,17.733465471465852
0.658055755567113,0.7974838103490295,651,38,22.87399789022228,17.733465471465852
0.6660285629537261,0.7974758373825679,651,38,22.87399789022228,17.733465471465852
0.6740012904310888,0.7974678644960519,651,38,22.87399789022228,17.733465471465852
0.6819739380153818,0.7974598916894625,651,38,22.87399789022228,17.733465471465852
0.6899465057216027,0.7974519189627824,651,38,22.87399789022228,17.733465471465852
0.6979189935636557,0.7974439463159955,651,38,22.87399789022228,17.733465471465852
0.7058914015544376,0.7974359737490865,651,38,22.87399789022228,17.733465471465852
0.7138637297059132,0.7974280012620417,651,38,22.87399789022228,17.733465471465852
0.7218359780291884,0.7974200288548482,651,38,22.87399789022228,17.733465471465852
0.7298081465345759,0.7974120565274939,651,38,22.87399789022228,17.733465471465852
0.7377802352316564,0.7974040842799679,651,38,22.87399789022228,17.733465471465852
0.7457522441293343,0.7973961121122598,651,38,22.87399789022228,17.733465471465852
0.7537241732358906,0.7973881400243599,651,38,22.87399789022228,17.733465471465852
0.7616960225590301,0.7973801680162594,651,38,22.87399789022228,17.733465471465852
0.7696677921059264,0.7973721960879501,651,38,22.87399789022228,17.733465471465852
0.7776394818832623,0.7973642242394242,651,38,22.87399789022228,17.733465471465852
0.7856110918972676,0.7973562524706744,651,38,22.87399789022228,17.733465471465852
0.7935826221537545,0.7973482807816943,651,38,22.87399789022228,17.733465471465852
0.801554072658149,0.7973403091724774,651,38,22.87399789022228,17.733465471465852
0.8095254434155207,0.7973323376430181,651,38,22.87399789022228,17.733465471465852
0.8174967344306107,0.7973243661933109,651,38,22.87399789022228,17.733465471465852
0.8254679457078565,0.7973163948233507,651,38,22.87399789022228,17.733465471465852
0.8334390772514156,0.7973084235331328,651,38,22.87399789022228,17.733465471465852
0.8414101290651869,0.7973004523226527,651,38,22.87399789022228,17.733465471465852
0.8493811011528305,0.7972924811919062,651,38,22.87399789022228,17.733465471465852
0.857351993517786,0.7972845101408896,651,38,22.87399789022228,17.733465471465852
0.8653228061632906,0.7972765391695991,651,38,22.87399789022228,17.733465471465852
0.8732935390923922,0.7972685682780312,651,38,22.87399789022228,17.733465471465852
0.8812641923079666,0.7972605974661828,651,38,22.87399789022228,17.733465471465852
0.8892347658127294,0.7972526267340507,651,38,22.87399789022228,17.733465471465852
0.8972052596092484,0.7972446560816323,651,38,22.87399789022228,17.733465471465852
0.905175673699955,0.7972366855089246,651,38,22.87399789022228,17.733465471465852
0.9131460080871551,0.7972287150159252,651,38,22.87399789022228,17.733465471465852
0.9211162627730386,0.7972207446026315,651,38,22.87399789022228,17.733465471465852
0.9290864377596875,0.7972127742690414,651,38,22.87399789022228,17.733465471465852
0.9370565330490856,0.7972048040151525,651,38,22.87399789022228,17.733465471465852
0.9450265486431252,0.7971968338409628,651,38,22.87399789022228,17.733465471465852
0.9529964845436141,0.7971888637464705,651,38,22.87399789022228,17.733465471465852
0.960966340752282,0.7971808937316734,651,38,22.87399789022228,17.733465471465852
0.9689361172707875,0.79717292379657,651,38,22.87399789022228,17.733465471465852
0.9769058141007226,0.7971649539411584,651,38,22.87399789022228,17.733465471465852
0.9848754312436178,0.7971569841654368,651,38,22.87399789022228,17.733465471465852
0.9928449687009477,0.7971490144694039,651,38,22.87399789022228,17.733465471465852
1.000814426474134,0.7971410448530579,651,38,22.87399789022228,17.733465471465852
1.0087838045645514,0.7971330753163977,651,38,22.87399789022228,17.733465471465852
1.0167531029735282,0.7971251058594214,651,38,22.87399789022228,17.733465471465852
1.024722321702354,0.7971171364821279,651,38,22.87399789022228,17.733465471465852
1.032691460752279,0.7971091671845159,651,38,22.87399789022228,17.733465471465852
1.0406605201245192,0.797101197966584,651,38,22.87399789022228,17.733465471465852
1.0486294998202577,0.797093228828331,651,38,22.87399789022228,17.733465471465852
1.0565983998406483,0.7970852597697556,651,38,22.87399789022228,17.733465471465852
1.0645672201868175,0.7970772907908569,651,38,22.87399789022228,17.733465471465852
1.0725359608598655,0.7970693218916334,651,38,22.87399789022228,17.733465471465852
1.08050462186087,0.7970613530720841,651,38,22.87399789022228,17.733465471465852
1.088473203190887,0.797053384332208,651,38,22.87399789022228,17.733465471465852
1.0964417048509518,0.7970454156720038,651,38,22.87399789022228,17.733465471465852
1.1044101268420827,0.7970374470914707,651,38,22.87399789022228,17.733465471465852
1.1123784691652794,0.7970294785906075,651,38,22.87399789022228,17.733465471465852
1.1203467318215263,0.7970215101694132,651,38,22.87399789022228,17.733465471465852
1.1283149148117941,0.7970135418278869,651,38,22.87399789022228,17.733465471465852
1.1362830181370396,0.7970055735660274,651,38,22.87399789022228,17.733465471465852
1.1442510417982072,0.796997605383834,651,38,22.87399789022228,17.733465471465852
1.1522189857962302,0.7969896372813056,651,38,22.87399789022228,17.733465471465852
1.1601868501320305,0.7969816692584413,651,38,22.87399789022228,17.733465471465852
1.1681546348065217,0.79697370131524,651,38,22.87399789022228,17.733465471465852
1.1761223398206075,0.7969657334517011,651,38,22.87399789022228,17.733465471465852
1.1840899651751828,0.7969577656678234,651,38,22.87399789022228,17.733465471465852
1.1920575108711366,0.7969497979636061,651,38,22.87399789022228,17.733465471465852
1.2000249769093492,0.7969418303390483,651,38,22.87399789022228,17.733465471465852
1.2079923632906953,0.796933862794149,651,38,22.87399789022228,17.733465471465852
1.215959670016043,0.7969258953289077,651,38,22.87399789022228,17.733465471465852
1.2239268970862556,0.7969179279433231,651,38,22.87399789022228,17.733465471465852
1.2318940445021902,0.7969099606373944,651,38,22.87399789022228,17.733465471465852
1.2398611122646996,0.796901993411121,651,38,22.87399789022228,17.733465471465852
1.2478281003746334,0.7968940262645018,651,38,22.87399789022228,17.733465471465852
1.2557950088328358,0.796886059197536,651,38,22.87399789022228,17.733465471465852
1.2637618376401474,0.7968780922102228,651,38,22.87399789022228,17.733465471465852
1.2717285867974057,0.7968701253025613,651,38,22.87399789022228,17.733465471465852
1.2796952563054451,0.7968621584745507,651,38,22.87399789022228,17.733465471465852
1.287661846165097,0.7968541917261901,651,38,22.87399789022228,17.733465471465852
1.29562835637719,0.7968462250574787,651,38,22.87399789022228,17.733465471465852
1.30359478694255,0.7968382584684157,651,38,22.87399789022228,17.733465471465852
1.3115611378620011,0.7968302919590003,651,38,22.87399789022228,17.733465471465852
1.3195274091363647,0.7968223255292316,651,38,22.87399789022228,17.733465471465852
1.3274936007664606,0.7968143591791088,651,38,22.87399789022228,17.733465471465852
1.335459712753107,0.7968063929086311,651,38,22.87399789022228,17.733465471465852
1.34342574509712,0.7967984267177977,651,38,22.87399789022228,17.733465471465852
1.3513916977993143,0.7967904606066076,651,38,22.87399789022228,17.733465471465852
1.3593575708605032,0.7967824945750602,651,38,22.87399789022228,17.733465471465852
1.3673233642814988,0.7967745286231547,651,38,22.87399789022228,17.733465471465852
1.3752890780631115,0.7967665627508901,651,38,22.87399789022228,17.733465471465852
1.3832547122061507,0.7967585969582657,651,38,22.87399789022228,17.733465471465852
1.391220266711426,0.7967506312452806,651,38,22.87399789022228,17.733465471465852
1.399185741579744,0.7967426656119342,651,38,22.87399789022228,17.733465471465852
1.4071511368119114,0.7967347000582254,651,38,22.87399789022228,17.733465471465852
1.415116452408735,0.7967267345841537,651,38,22.87399789022228,17.733465471465852
1.4230816883710191,0.7967187691897181,651,38,22.87399789022228,17.733465471465852
1.4310468446995688,0.7967108038749178,651,38,22.87399789022228,17.733465471465852
1.4390119213951873,0.7967028386397521,651,38,22.87399789022228,17.733465471465852
1.4469769184586783,0.7966948734842201,651,38,22.87399789022228,17.733465471465852
1.4549418358908444,0.7966869084083209,651,38,22.87399789022228,17.733465471465852
1.4629066736924867,0.796678943412054,651,38,22.87399789022228,17.733465471465852
1.470871431864409,0.7966709784954183,651,38,22.87399789022228,17.733465471465852
1.4788361104074101,0.7966630136584132,651,38,22.87399789022228,17.733465471465852
1.4868007093222926,0.7966550489010378,651,38,22.87399789022228,17.733465471465852
1.4947652286098563,0.7966470842232912,651,38,22.87399789022228,17.733465471465852
1.5027296682709013,0.7966391196251729,651,38,22.87399789022228,17.733465471465852
1.5106940283062273,0.7966311551066817,651,38,22.87399789022228,17.733465471465852
1.5186583087166343,0.7966231906678172,651,38,22.87399789022228,17.733465471465852
1.526622509502921,0.7966152263085783,651,38,22.87399789022228,17.733465471465852
1.534586630665887,0.7966072620289643,651,38,22.87399789022228,17.733465471465852
1.5425506722063307,0.7965992978289744,651,38,22.87399789022228,17.733465471465852
1.5505146341250506,0.7965913337086079,651,38,22.87399789022228,17.733465471465852
1.558478516422845,0.7965833696678639,651,38,22.87399789022228,17.733465471465852
1.5664423191005117,0.7965754057067416,651,38,22.87399789022228,17.733465471465852
1.5744060421588495,0.7965674418252402,651,38,22.87399789022228,17.733465471465852
1.5823696855986555,0.7965594780233589,651,38,22.87399789022228,17.733465471465852
1.5903332494207278,0.7965515143010969,651,38,22.87399789022228,17.733465471465852
1.5982967336258642,0.7965435506584535,651,38,22.87399789022228,17.733465471465852
1.6062601382148611,0.7965355870954278,651,38,22.87399789022228,17.733465471465852
1.6142234631885166,0.7965276236120191,651,38,22.87399789022228,17.733465471465852
1.6221867085476276,0.7965196602082264,651,38,22.87399789022228,17.733465471465852
1.630149874292991,0.7965116968840491,651,38,22.87399789022228,17.733465471465852
1.638112960425404,0.7965037336394863,651,38,22.87399789022228,17.733465471465852
1.6460759669456637,0.7964957704745373,651,38,22.87399789022228,17.733465471465852
1.6540388938545671,0.7964878073892012,651,38,22.87399789022228,17.733465471465852
1.66200174115291,0.7964798443834773,651,38,22.87399789022228,17.733465471465852
1.6699645088414896,0.7964718814573647,651,38,22.87399789022228,17.733465471465852
1.6779271969211025,0.7964639186108626,651,38,22.87399789022228,17.733465471465852
1.6858898053925457,0.7964559558439703,651,38,22.87399789022228,17.733465471465852
1.693852334256615,0.796447993156687,651,38,22.87399789022228,17.733465471465852
1.701814783514107,0.7964400305490119,651,38,22.87399789022228,17.733465471465852
1.7097771531658184,0.796432068020944,651,38,22.87399789022228,17.733465471465852
1.7177394432125452,0.7964241055724829,651,38,22.87399789022228,17.733465471465852
1.725701653655084,0.7964161432036274,651,38,22.87399789022228,17.733465471465852
1.733663784494231,0.7964081809143769,651,38,22.87399789022228,17.733465471465852
1.7416258357307821,0.7964002187047305,651,38,22.87399789022228,17.733465471465852
1.7495878073655338,0.7963922565746877,651,38,22.87399789022228,17.733465471465852
1.7575496993992816,0.7963842945242473,651,38,22.87399789022228,17.733465471465852
1.7655115118328224,0.7963763325534088,651,38,22.87399789022228,17.733465471465852
1.7734732446669519,0.7963683706621713,651,38,22.87399789022228,17.733465471465852
1.7814348979024666,0.7963604088505339,651,38,22.87399789022228,17.733465471465852
1.7893964715401618,0.796352447118496,651,38,22.87399789022228,17.733465471465852
1.7973579655808338,0.7963444854660566,651,38,22.87399789022228,17.733465471465852
1.8053193800252791,0.7963365238932151,651,38,22.87399789022228,17.733465471465852
1.8132807148742924,0.7963285623999706,651,38,22.87399789022228,17.733465471465852
1.8212419701286708,0.7963206009863223,651,38,22.87399789022228,17.733465471465852
1.82920314578921,0.7963126396522695,651,38,22.87399789022228,17.733465471465852
1.8371642418567053,0.7963046783978113,651,38,22.87399789022228,17.733465471465852
1.8451252583319535,0.7962967172229468,651,38,22.87399789022228,17.733465471465852
1.8530861952157496,0.7962887561276755,651,38,22.87399789022228,17.733465471465852
1.8610470525088896,0.7962807951119963,651,38,22.87399789022228,17.733465471465852
1.86900783021217,0.7962728341759087,651,38,22.87399789022228,17.733465471465852
1.876968528326386,0.7962648733194116,651,38,22.87399789022228,17.733465471465852
1.884929146852333,0.7962569125425044,651,38,22.87399789022228,17.733465471465852
1.8928896857908077,0.7962489518451863,651,38,22.87399789022228,17.733465471465852
1.9008501451426054,0.7962409912274564,651,38,22.87399789022228,17.733465471465852
1.9088105249085217,0.7962330306893141,651,38,22.87399789022228,17.733465471465852
