Vout,Iout,Irradiance,Temperature,MaxVoltage,MaxPower
0.0007938523668041654,0.158772,131,31,22.353263557807686,3.0494646396198473
0.002381542421330882,0.158772,131,31,22.353263557807686,3.0494646396198473
0.00396920019851702,0.15877119027043318,131,31,22.353263557807686,3.0494646396198473
0.005556819932026374,0.15876960258037867,131,31,22.353263557807686,3.0494646396198473
0.007144399737320233,0.15876801492268244,131,31,22.353263557807686,3.0494646396198473
0.00873194146561464,0.15876642730310772,131,31,22.353263557807686,3.0494646396198473
0.010319446825755132,0.15876483972346117,131,31,22.353263557807686,3.0494646396198473
0.011906917395135788,0.15876325218189166,131,31,22.353263557807686,3.0494646396198473
0.01349435462979571,0.15876166467669026,131,31,22.353263557807686,3.0494646396198473
0.015081759873756281,0.15876007720627963,131,31,22.353263557807686,3.0494646396198473
0.01666913436763996,0.15875848976920373,131,31,22.353263557807686,3.0494646396198473
0.018256479256625976,0.15875690236411852,131,31,22.353263557807686,3.0494646396198473
0.01984379559779388,0.15875531498978337,131,31,22.353263557807686,3.0494646396198473
0.021431084366902057,0.15875372764505313,131,31,22.353263557807686,3.0494646396198473
0.02301834646464472,0.1587521403288707,131,31,22.353263557807686,3.0494646396198473
0.02460558272242746,0.15875055304026034,131,31,22.353263557807686,3.0494646396198473
0.02619279390769842,0.15874896577832132,131,31,22.353263557807686,3.0494646396198473
0.027779980728869277,0.15874737854222226,131,31,22.353263557807686,3.0494646396198473
0.029367143839857602,0.1587457913311957,131,31,22.353263557807686,3.0494646396198473
0.030954283844279742,0.15874420414453327,131,31,22.353263557807686,3.0494646396198473
0.03254140129932105,0.15874261698158101,131,31,22.353263557807686,3.0494646396198473
0.03412849671930836,0.1587410298417353,131,31,22.353263557807686,3.0494646396198473
0.035715570579007594,0.158739442724439,131,31,22.353263557807686,3.0494646396198473
0.03730262331666766,0.1587378556291777,131,31,22.353263557807686,3.0494646396198473
0.03888965533683007,0.1587362685554767,131,31,22.353263557807686,3.0494646396198473
0.04047666701292256,0.15873468150289777,131,31,22.353263557807686,3.0494646396198473
0.04206365868965284,0.1587330944710363,131,31,22.353263557807686,3.0494646396198473
0.04365063068521858,0.15873150745951892,131,31,22.353263557807686,3.0494646396198473
0.04523758329334695,0.15872992046800088,131,31,22.353263557807686,3.0494646396198473
0.04682451678517751,0.15872833349616403,131,31,22.353263557807686,3.0494646396198473
0.04841143141100015,0.1587267465437146,131,31,22.353263557807686,3.0494646396198473
0.04999832740185924,0.15872515961038147,131,31,22.353263557807686,3.0494646396198473
0.05158520497103445,0.15872357269591433,131,31,22.353263557807686,3.0494646396198473
0.05317206431540754,0.15872198580008218,131,31,22.353263557807686,3.0494646396198473
0.05475890561672412,0.1587203989226717,131,31,22.353263557807686,3.0494646396198473
0.0563457290427582,0.158718812063486,131,31,22.353263557807686,3.0494646396198473
0.0579325347483872,0.15871722522234338,131,31,22.353263557807686,3.0494646396198473
0.05951932287658423,0.15871563839907604,131,31,22.353263557807686,3.0494646396198473
0.06110609355933401,0.15871405159352908,131,31,22.353263557807686,3.0494646396198473
0.06269284691847836,0.15871246480555956,131,31,22.353263557807686,3.0494646396198473
0.06427958306649659,0.1587108780350355,131,31,22.353263557807686,3.0494646396198473
0.06586630210722591,0.15870929128183503,131,31,22.353263557807686,3.0494646396198473
0.0674530041365263,0.1587077045458457,131,31,22.353263557807686,3.0494646396198473
0.06903968924289434,0.15870611782696364,131,31,22.353263557807686,3.0494646396198473
0.07062635750802974,0.15870453112509303,131,31,22.353263557807686,3.0494646396198473
0.0722130090073583,0.15870294444014532,131,31,22.353263557807686,3.0494646396198473
0.07379964381051467,0.15870135777203886,131,31,22.353263557807686,3.0494646396198473
0.07538626198178784,0.1586997711206982,131,31,22.353263557807686,3.0494646396198473
0.07697286358053258,0.15869818448605372,131,31,22.353263557807686,3.0494646396198473
0.07855944866154896,0.1586965978680411,131,31,22.353263557807686,3.0494646396198473
0.08014601727543284,0.15869501126660102,131,31,22.353263557807686,3.0494646396198473
0.08173256946889944,0.15869342468167866,131,31,22.353263557807686,3.0494646396198473
0.08331910528508171,0.15869183811322343,131,31,22.353263557807686,3.0494646396198473
0.08490562476380617,0.15869025156118863,131,31,22.353263557807686,3.0494646396198473
0.08649212794184721,0.1586886650255311,131,31,22.353263557807686,3.0494646396198473
0.08807861485316192,0.15868707850621103,131,31,22.353263557807686,3.0494646396198473
0.08966508552910694,0.15868549200319165,131,31,22.353263557807686,3.0494646396198473
0.09125153999863835,0.158683905516439,131,31,22.353263557807686,3.0494646396198473
0.09283797828849666,0.1586823190459217,131,31,22.353263557807686,3.0494646396198473
0.09442440042337699,0.1586807325916108,131,31,22.353263557807686,3.0494646396198473
0.09601080642608667,0.15867914615347958,131,31,22.353263557807686,3.0494646396198473
0.09759719631769034,0.15867755973150335,131,31,22.353263557807686,3.0494646396198473
0.09918357011764414,0.1586759733256593,131,31,22.353263557807686,3.0494646396198473
0.10076992784391939,0.15867438693592634,131,31,22.353263557807686,3.0494646396198473
0.10235626951311685,0.15867280056228503,131,31,22.353263557807686,3.0494646396198473
0.10394259514057223,0.1586712142047174,131,31,22.353263557807686,3.0494646396198473
0.10552890474045347,0.15866962786320682,131,31,22.353263557807686,3.0494646396198473
0.10711519832585059,0.158668041537738,131,31,22.353263557807686,3.0494646396198473
0.10870147590885866,0.15866645522829675,131,31,22.353263557807686,3.0494646396198473
0.11028773750065433,0.15866486893487,131,31,22.353263557807686,3.0494646396198473
0.1118739831115665,0.15866328265744561,131,31,22.353263557807686,3.0494646396198473
0.11346021275114154,0.15866169639601244,131,31,22.353263557807686,3.0494646396198473
0.11504642642820352,0.15866011015056017,131,31,22.353263557807686,3.0494646396198473
0.11663262415090979,0.1586585239210792,131,31,22.353263557807686,3.0494646396198473
0.11821880592680216,0.15865693770756079,131,31,22.353263557807686,3.0494646396198473
0.11980497176285446,0.15865535150999668,131,31,22.353263557807686,3.0494646396198473
0.12139112166551606,0.15865376532837944,131,31,22.353263557807686,3.0494646396198473
0.12297725564075242,0.158652179162702,131,31,22.353263557807686,3.0494646396198473
0.12456337369408209,0.15865059301295795,131,31,22.353263557807686,3.0494646396198473
0.12614947583061126,0.15864900687914132,131,31,22.353263557807686,3.0494646396198473
0.12773556205506542,0.1586474207612466,131,31,22.353263557807686,3.0494646396198473
0.12932163237181868,0.1586458346592687,131,31,22.353263557807686,3.0494646396198473
0.13090768678492085,0.15864424857320286,131,31,22.353263557807686,3.0494646396198473
0.13249372529812217,0.1586426625030447,131,31,22.353263557807686,3.0494646396198473
0.1340797479148967,0.15864107644879022,131,31,22.353263557807686,3.0494646396198473
0.1356657546384634,0.15863949041043562,131,31,22.353263557807686,3.0494646396198473
0.1372517454718056,0.15863790438797745,131,31,22.353263557807686,3.0494646396198473
0.13883772041768944,0.15863631838141248,131,31,22.353263557807686,3.0494646396198473
0.14042367947868034,0.15863473239073775,131,31,22.353263557807686,3.0494646396198473
0.1420096226571585,0.15863314641595047,131,31,22.353263557807686,3.0494646396198473
0.1435955499553333,0.15863156045704807,131,31,22.353263557807686,3.0494646396198473
0.14518146137525617,0.1586299745140282,131,31,22.353263557807686,3.0494646396198473
0.14676735691883308,0.15862838858688863,131,31,22.353263557807686,3.0494646396198473
0.1483532365878353,0.1586268026756273,131,31,22.353263557807686,3.0494646396198473
0.1499391003839103,0.1586252167802423,131,31,22.353263557807686,3.0494646396198473
0.15152494830859076,0.1586236309007319,131,31,22.353263557807686,3.0494646396198473
0.1531107803633037,0.1586220450370944,131,31,22.353263557807686,3.0494646396198473
0.15469659654937853,0.15862045918932832,131,31,22.353263557807686,3.0494646396198473
0.15628239686805462,0.1586188733574322,131,31,22.353263557807686,3.0494646396198473
0.1578681813204881,0.1586172875414047,131,31,22.353263557807686,3.0494646396198473
0.1594539499077584,0.15861570174124462,131,31,22.353263557807686,3.0494646396198473
0.16103970263087405,0.15861411595695074,131,31,22.353263557807686,3.0494646396198473
0.1626254394907782,0.15861253018852206,131,31,22.353263557807686,3.0494646396198473
0.16421116048835363,0.15861094443595752,131,31,22.353263557807686,3.0494646396198473
0.16579686562442736,0.1586093586992562,131,31,22.353263557807686,3.0494646396198473
0.16738255489977502,0.1586077729784172,131,31,22.353263557807686,3.0494646396198473
0.1689682283151247,0.1586061872734397,131,31,22.353263557807686,3.0494646396198473
0.17055388587116072,0.15860460158432294,131,31,22.353263557807686,3.0494646396198473
0.17213952756852682,0.15860301591106615,131,31,22.353263557807686,3.0494646396198473
0.17372515340782957,0.15860143025366868,131,31,22.353263557807686,3.0494646396198473
0.175310763389641,0.1585998446121299,131,31,22.353263557807686,3.0494646396198473
0.1768963575145012,0.15859825898644914,131,31,22.353263557807686,3.0494646396198473
0.17848193578292115,0.1585966733766259,131,31,22.353263557807686,3.0494646396198473
0.18006749819538448,0.1585950877826596,131,31,22.353263557807686,3.0494646396198473
0.1816530447523499,0.15859350220454974,131,31,22.353263557807686,3.0494646396198473
0.18323857545425296,0.15859191664229583,131,31,22.353263557807686,3.0494646396198473
0.18482409030150795,0.15859033109589743,131,31,22.353263557807686,3.0494646396198473
0.18640958929450946,0.15858874556535407,131,31,22.353263557807686,3.0494646396198473
0.18799507243363392,0.15858716005066537,131,31,22.353263557807686,3.0494646396198473
0.1895805397192409,0.15858557455183092,131,31,22.353263557807686,3.0494646396198473
0.19116599115167465,0.15858398906885035,131,31,22.353263557807686,3.0494646396198473
0.19275142673126508,0.1585824036017233,131,31,22.353263557807686,3.0494646396198473
0.1943368464583288,0.15858081815044942,131,31,22.353263557807686,3.0494646396198473
0.19592225033317034,0.15857923271502838,131,31,22.353263557807686,3.0494646396198473
0.19750763835608298,0.15857764729545984,131,31,22.353263557807686,3.0494646396198473
0.19909301052734962,0.15857606189174356,131,31,22.353263557807686,3.0494646396198473
0.20067836684724355,0.15857447650387918,131,31,22.353263557807686,3.0494646396198473
0.20226370731602936,0.15857289113186646,131,31,22.353263557807686,3.0494646396198473
0.2038490319339633,0.1585713057757051,131,31,22.353263557807686,3.0494646396198473
0.20543434070129413,0.15856972043539486,131,31,22.353263557807686,3.0494646396198473
0.20701963361826373,0.15856813511093545,131,31,22.353263557807686,3.0494646396198473
0.2086049106851076,0.15856654980232665,131,31,22.353263557807686,3.0494646396198473
0.21019017190205513,0.15856496450956822,131,31,22.353263557807686,3.0494646396198473
0.21177541726933038,0.1585633792326599,131,31,22.353263557807686,3.0494646396198473
0.21336064678715236,0.1585617939716015,131,31,22.353263557807686,3.0494646396198473
0.21494586045573547,0.15856020872639273,131,31,22.353263557807686,3.0494646396198473
0.2165310582752896,0.15855862349703345,131,31,22.353263557807686,3.0494646396198473
0.21811624024602083,0.15855703828352338,131,31,22.353263557807686,3.0494646396198473
0.2197014063681316,0.15855545308586236,131,31,22.353263557807686,3.0494646396198473
0.2212865566418209,0.15855386790405016,131,31,22.353263557807686,3.0494646396198473
0.22287169106728466,0.15855228273808655,131,31,22.353263557807686,3.0494646396198473
0.2244568096447158,0.15855069758797138,131,31,22.353263557807686,3.0494646396198473
0.22604191237430468,0.15854911245370443,131,31,22.353263557807686,3.0494646396198473
0.22762699925623922,0.15854752733528552,131,31,22.353263557807686,3.0494646396198473
0.2292120702907051,0.15854594223271445,131,31,22.353263557807686,3.0494646396198473
0.2307971254778857,0.15854435714599102,131,31,22.353263557807686,3.0494646396198473
0.23238216481796276,0.15854277207511508,131,31,22.353263557807686,3.0494646396198473
0.2339671883111159,0.1585411870200864,131,31,22.353263557807686,3.0494646396198473
0.2355521959575235,0.15853960198090483,131,31,22.353263557807686,3.0494646396198473
0.23713718775736206,0.15853801695757017,131,31,22.353263557807686,3.0494646396198473
0.23872216371080687,0.15853643195008227,131,31,22.353263557807686,3.0494646396198473
0.24030712381803188,0.15853484695844094,131,31,22.353263557807686,3.0494646396198473
0.24189206807920982,0.158533261982646,131,31,22.353263557807686,3.0494646396198473
0.24347699649451235,0.15853167702269727,131,31,22.353263557807686,3.0494646396198473
0.2450619090641101,0.1585300920785946,131,31,22.353263557807686,3.0494646396198473
0.24664680578817272,0.15852850715033778,131,31,22.353263557807686,3.0494646396198473
0.24823168666686907,0.15852692223792667,131,31,22.353263557807686,3.0494646396198473
0.2498165517003672,0.15852533734136112,131,31,22.353263557807686,3.0494646396198473
0.2514014008888343,0.1585237524606409,131,31,22.353263557807686,3.0494646396198473
0.2529862342324369,0.1585221675957659,131,31,22.353263557807686,3.0494646396198473
0.25457105173134115,0.15852058274673592,131,31,22.353263557807686,3.0494646396198473
0.2561558533857124,0.1585189979135508,131,31,22.353263557807686,3.0494646396198473
0.2577406391957153,0.15851741309621037,131,31,22.353263557807686,3.0494646396198473
0.2593254091615144,0.1585158282947145,131,31,22.353263557807686,3.0494646396198473
0.2609101632832735,0.15851424350906299,131,31,22.353263557807686,3.0494646396198473
0.26249490156115596,0.15851265873925566,131,31,22.353263557807686,3.0494646396198473
0.264079623995325,0.15851107398529238,131,31,22.353263557807686,3.0494646396198473
0.2656643305859433,0.15850948924717298,131,31,22.353263557807686,3.0494646396198473
0.2672490213331732,0.15850790452489727,131,31,22.353263557807686,3.0494646396198473
0.26883369623717684,0.15850631981846514,131,31,22.353263557807686,3.0494646396198473
0.2704183552981159,0.15850473512787638,131,31,22.353263557807686,3.0494646396198473
0.27200299851615206,0.15850315045313085,131,31,22.353263557807686,3.0494646396198473
0.27358762589144636,0.15850156579422836,131,31,22.353263557807686,3.0494646396198473
0.2751722374241601,0.1584999811511688,131,31,22.353263557807686,3.0494646396198473
0.27675683311445404,0.15849839652395198,131,31,22.353263557807686,3.0494646396198473
0.27834141296248877,0.15849681191257772,131,31,22.353263557807686,3.0494646396198473
0.2799259769684248,0.15849522731704588,131,31,22.353263557807686,3.0494646396198473
0.2815105251324226,0.1584936427373563,131,31,22.353263557807686,3.0494646396198473
0.28309505745464214,0.15849205817350884,131,31,22.353263557807686,3.0494646396198473
0.2846795739352435,0.1584904736255033,131,31,22.353263557807686,3.0494646396198473
0.2862640745743867,0.15848888909333952,131,31,22.353263557807686,3.0494646396198473
0.2878485593722313,0.1584873045770174,131,31,22.353263557807686,3.0494646396198473
0.28943302832893725,0.1584857200765367,131,31,22.353263557807686,3.0494646396198473
0.29101748144466383,0.1584841355918973,131,31,22.353263557807686,3.0494646396198473
0.29260191871957075,0.15848255112309906,131,31,22.353263557807686,3.0494646396198473
0.2941863401538173,0.15848096667014178,131,31,22.353263557807686,3.0494646396198473
0.29577074574756274,0.15847938223302532,131,31,22.353263557807686,3.0494646396198473
0.29735513550096637,0.1584777978117495,131,31,22.353263557807686,3.0494646396198473
0.2989395094141874,0.1584762134063142,131,31,22.353263557807686,3.0494646396198473
0.30052386748738497,0.15847462901671924,131,31,22.353263557807686,3.0494646396198473
0.302108209720718,0.15847304464296447,131,31,22.353263557807686,3.0494646396198473
0.30369253611434543,0.15847146028504971,131,31,22.353263557807686,3.0494646396198473
0.30527684666842647,0.15846987594297482,131,31,22.353263557807686,3.0494646396198473
0.30686114138311976,0.15846829161673961,131,31,22.353263557807686,3.0494646396198473
0.30844542025858424,0.15846670730634396,131,31,22.353263557807686,3.0494646396198473
0.31002968329497876,0.15846512301178772,131,31,22.353263557807686,3.0494646396198473
0.311613930492462,0.15846353873307067,131,31,22.353263557807686,3.0494646396198473
0.3131981618511928,0.1584619544701927,131,31,22.353263557807686,3.0494646396198473
0.3147823773713298,0.15846037022315365,131,31,22.353263557807686,3.0494646396198473
0.31636657705303173,0.15845878599195334,131,31,22.353263557807686,3.0494646396198473
0.31795076089645724,0.15845720177659164,131,31,22.353263557807686,3.0494646396198473
0.31953492890176494,0.15845561757706836,131,31,22.353263557807686,3.0494646396198473
0.32111908106911347,0.15845403339338335,131,31,22.353263557807686,3.0494646396198473
0.3227032173986614,0.15845244922553647,131,31,22.353263557807686,3.0494646396198473
0.3242873378905673,0.15845086507352754,131,31,22.353263557807686,3.0494646396198473
0.3258714425449896,0.1584492809373564,131,31,22.353263557807686,3.0494646396198473
0.327455531362087,0.15844769681702292,131,31,22.353263557807686,3.0494646396198473
0.3290396043420179,0.15844611271252693,131,31,22.353263557807686,3.0494646396198473
0.33062366148494093,0.15844452862386824,131,31,22.353263557807686,3.0494646396198473
0.33220770279101436,0.1584429445510467,131,31,22.353263557807686,3.0494646396198473
0.33379172826039677,0.15844136049406218,131,31,22.353263557807686,3.0494646396198473
0.3353757378932467,0.15843977645291452,131,31,22.353263557807686,3.0494646396198473
0.33695973168972243,0.15843819242760354,131,31,22.353263557807686,3.0494646396198473
0.33854370964998254,0.1584366084181291,131,31,22.353263557807686,3.0494646396198473
0.3401276717741854,0.15843502442449103,131,31,22.353263557807686,3.0494646396198473
0.3417116180624894,0.15843344044668917,131,31,22.353263557807686,3.0494646396198473
0.34329554851505295,0.15843185648472338,131,31,22.353263557807686,3.0494646396198473
0.3448794631320345,0.15843027253859346,131,31,22.353263557807686,3.0494646396198473
0.34646336191359245,0.15842868860829928,131,31,22.353263557807686,3.0494646396198473
0.34804724485988514,0.15842710469384072,131,31,22.353263557807686,3.0494646396198473
0.34963111197107083,0.15842552079521754,131,31,22.353263557807686,3.0494646396198473
0.3512149632473081,0.15842393691242965,131,31,22.353263557807686,3.0494646396198473
0.35279879868875524,0.15842235304547683,131,31,22.353263557807686,3.0494646396198473
0.35438261829557055,0.158420769194359,131,31,22.353263557807686,3.0494646396198473
0.3559664220679125,0.15841918535907593,131,31,22.353263557807686,3.0494646396198473
0.35755021000593934,0.1584176015396275,131,31,22.353263557807686,3.0494646396198473
0.35913398210980935,0.15841601773601355,131,31,22.353263557807686,3.0494646396198473
0.36071773837968096,0.1584144339482339,131,31,22.353263557807686,3.0494646396198473
0.3623014788157126,0.15841285017628842,131,31,22.353263557807686,3.0494646396198473
0.3638852034180626,0.15841126642017692,131,31,22.353263557807686,3.0494646396198473
0.3654689121868891,0.15840968267989927,131,31,22.353263557807686,3.0494646396198473
0.3670526051223505,0.1584080989554553,131,31,22.353263557807686,3.0494646396198473
0.36863628222460515,0.15840651524684485,131,31,22.353263557807686,3.0494646396198473
