Vout,Iout,Irradiance,Temperature,MaxVoltage,MaxPower
0.0045688060691724125,0.91377,781,10,20.821264595065283,18.59269179498957
0.013706333725968812,0.91377,781,10,20.821264595065283,18.59269179498957
0.022843675619119853,0.9137653398169308,781,10,20.821264595065283,18.59269179498957
0.03198079856201182,0.913756202289274,781,10,20.821264595065283,18.59269179498957
0.041117691708683575,0.9137470649478469,781,10,20.821264595065283,18.59269179498957
0.050254365713316505,0.9137379278258178,781,10,20.821264595065283,18.59269179498957
0.059390830410716425,0.9137287909335848,781,10,20.821264595065283,18.59269179498957
0.06852709487915519,0.9137196542604938,781,10,20.821264595065283,18.59269179498957
0.0776631674984785,0.9137105177967102,781,10,20.821264595065283,18.59269179498957
0.08679905600384372,0.9137013815331554,781,10,20.821264595065283,18.59269179498957
0.09593476753532337,0.9136922454614497,781,10,20.821264595065283,18.59269179498957
0.10507030868369181,0.913683109573858,781,10,20.821264595065283,18.59269179498957
0.11420568553268906,0.9136739738632401,781,10,20.821264595065283,18.59269179498957
0.12334090369803295,0.9136648383230053,781,10,20.821264595065283,18.59269179498957
0.13247596836342934,0.9136557029470699,781,10,20.821264595065283,18.59269179498957
0.14161088431381183,0.9136465677298181,781,10,20.821264595065283,18.59269179498957
0.15074565596602407,0.9136374326660662,781,10,20.821264595065283,18.59269179498957
0.15988028739714097,0.9136282977510294,781,10,20.821264595065283,18.59269179498957
0.16901478237061113,0.9136191629802907,781,10,20.821264595065283,18.59269179498957
0.17814914436038776,0.913610028349773,781,10,20.821264595065283,18.59269179498957
0.187283376573203,0.9136008938557131,781,10,20.821264595065283,18.59269179498957
0.19641748196912795,0.9135917594946368,781,10,20.821264595065283,18.59269179498957
0.2055514632805517,0.9135826252633373,781,10,20.821264595065283,18.59269179498957
0.21468532302969912,0.9135734911588549,781,10,20.821264595065283,18.59269179498957
0.22381906354480138,0.9135643571784569,781,10,20.821264595065283,18.59269179498957
0.2329526869750222,0.9135552233196211,781,10,20.821264595065283,18.59269179498957
0.24208619530423542,0.9135460895800195,781,10,20.821264595065283,18.59269179498957
0.2512195903637427,0.9135369559575026,781,10,20.821264595065283,18.59269179498957
0.26035287384401296,0.9135278224500868,781,10,20.821264595065283,18.59269179498957
0.2694860473055177,0.9135186890559406,781,10,20.821264595065283,18.59269179498957
0.2786191121887337,0.9135095557733737,781,10,20.821264595065283,18.59269179498957
0.28775206982337526,0.9135004226008255,781,10,20.821264595065283,18.59269179498957
0.29688492143691675,0.9134912895368557,781,10,20.821264595065283,18.59269179498957
0.306017668162459,0.9134821565801343,781,10,20.821264595065283,18.59269179498957
0.31515031104599045,0.9134730237294341,781,10,20.821264595065283,18.59269179498957
0.32428285105308974,0.9134638909836219,781,10,20.821264595065283,18.59269179498957
0.33341528907511264,0.9134547583416516,781,10,20.821264595065283,18.59269179498957
0.3425476259349027,0.9134456258025578,781,10,20.821264595065283,18.59269179498957
0.3516798623920631,0.9134364933654491,781,10,20.821264595065283,18.59269179498957
0.3608119991478218,0.9134273610295025,781,10,20.821264595065283,18.59269179498957
0.3699440368495239,0.9134182287939586,781,10,20.821264595065283,18.59269179498957
0.3790759760947764,0.9134090966581161,781,10,20.821264595065283,18.59269179498957
0.38820781743527616,0.9133999646213276,781,10,20.821264595065283,18.59269179498957
0.39733956138034154,0.9133908326829955,781,10,20.821264595065283,18.59269179498957
0.40647120840017353,0.9133817008425682,781,10,20.821264595065283,18.59269179498957
0.41560275892886533,0.9133725690995363,781,10,20.821264595065283,18.59269179498957
0.42473421336718054,0.9133634374534297,781,10,20.821264595065283,18.59269179498957
0.43386557208511756,0.9133543059038142,781,10,20.821264595065283,18.59269179498957
0.44299683542427665,0.9133451744502891,781,10,20.821264595065283,18.59269179498957
0.45212800370004536,0.9133360430924843,781,10,20.821264595065283,18.59269179498957
0.4612590772036147,0.9133269118300582,781,10,20.821264595065283,18.59269179498957
0.47039005620384106,0.9133177806626956,781,10,20.821264595065283,18.59269179498957
0.4795209409489654,0.9133086495901052,781,10,20.821264595065283,18.59269179498957
0.48865173166819853,0.9132995186120181,781,10,20.821264595065283,18.59269179498957
0.4977824285731853,0.913290387728186,781,10,20.821264595065283,18.59269179498957
0.5069130318593569,0.9132812569383799,781,10,20.821264595065283,18.59269179498957
0.5160435417071783,0.913272126242388,781,10,20.821264595065283,18.59269179498957
0.5251739582832982,0.9132629956400149,781,10,20.821264595065283,18.59269179498957
0.5343042817416147,0.9132538651310802,781,10,20.821264595065283,18.59269179498957
0.543434512224254,0.9132447347154171,781,10,20.821264595065283,18.59269179498957
0.5525646498624774,0.9132356043928719,781,10,20.821264595065283,18.59269179498957
0.5616946947775172,0.9132264741633023,781,10,20.821264595065283,18.59269179498957
0.5708246470813478,0.9132173440265771,781,10,20.821264595065283,18.59269179498957
0.5799545068773981,0.913208213982575,781,10,20.821264595065283,18.59269179498957
0.58908427426121,0.9131990840311842,781,10,20.821264595065283,18.59269179498957
0.5982139493210437,0.9131899541723012,781,10,20.821264595065283,18.59269179498957
0.6073435321384388,0.9131808244058304,781,10,20.821264595065283,18.59269179498957
0.616473022788732,0.9131716947316835,781,10,20.821264595065283,18.59269179498957
0.6256024213415329,0.9131625651497791,781,10,20.821264595065283,18.59269179498957
0.6347317278611655,0.9131534356600418,781,10,20.821264595065283,18.59269179498957
0.6438609424070757,0.913144306262402,781,10,20.821264595065283,18.59269179498957
0.6529900650342045,0.9131351769567952,781,10,20.821264595065283,18.59269179498957
0.6621190957933366,0.9131260477431623,781,10,20.821264595065283,18.59269179498957
0.6712480347314194,0.9131169186214481,781,10,20.821264595065283,18.59269179498957
0.680376881891858,0.9131077895916019,781,10,20.821264595065283,18.59269179498957
0.6895056373147882,0.9130986606535767,781,10,20.821264595065283,18.59269179498957
0.6986343010373282,0.9130895318073291,781,10,20.821264595065283,18.59269179498957
0.7077628730938099,0.9130804030528191,781,10,20.821264595065283,18.59269179498957
0.7168913535159942,0.9130712743900095,781,10,20.821264595065283,18.59269179498957
0.7260197423332683,0.9130621458188659,781,10,20.821264595065283,18.59269179498957
0.7351480395728286,0.9130530173393565,781,10,20.821264595065283,18.59269179498957
0.7442762452598493,0.9130438889514522,781,10,20.821264595065283,18.59269179498957
0.7534043594176372,0.9130347606551255,781,10,20.821264595065283,18.59269179498957
0.7625323820677768,0.9130256324503512,781,10,20.821264595065283,18.59269179498957
0.7716603132302621,0.9130165043371062,781,10,20.821264595065283,18.59269179498957
0.780788152923618,0.913007376315369,781,10,20.821264595065283,18.59269179498957
0.7899159011650153,0.9129982483851192,781,10,20.821264595065283,18.59269179498957
0.799043557970373,0.9129891205463387,781,10,20.821264595065283,18.59269179498957
0.8081711233544561,0.9129799927990101,781,10,20.821264595065283,18.59269179498957
0.8172985973309634,0.9129708651431175,781,10,20.821264595065283,18.59269179498957
0.8264259799126099,0.9129617375786462,781,10,20.821264595065283,18.59269179498957
0.8355532711112026,0.9129526101055825,781,10,20.821264595065283,18.59269179498957
0.8446804709377099,0.9129434827239136,781,10,20.821264595065283,18.59269179498957
0.8538075794023272,0.9129343554336278,781,10,20.821264595065283,18.59269179498957
0.8629345965145346,0.912925228234714,781,10,20.821264595065283,18.59269179498957
0.8720615222831541,0.9129161011271621,781,10,20.821264595065283,18.59269179498957
0.8811883567163984,0.9129069741109627,781,10,20.821264595065283,18.59269179498957
0.8903150998219184,0.9128978471861067,781,10,20.821264595065283,18.59269179498957
0.8994417516068466,0.9128887203525862,781,10,20.821264595065283,18.59269179498957
0.9085683120778375,0.9128795936103933,781,10,20.821264595065283,18.59269179498957
0.917694781241103,0.9128704669595211,781,10,20.821264595065283,18.59269179498957
0.9268211591024478,0.9128613403999628,781,10,20.821264595065283,18.59269179498957
0.9359474456672995,0.9128522139317121,781,10,20.821264595065283,18.59269179498957
0.9450736409407388,0.9128430875547635,781,10,20.821264595065283,18.59269179498957
0.9541997449275255,0.9128339612691113,781,10,20.821264595065283,18.59269179498957
0.9633257576321234,0.9128248350747504,781,10,20.821264595065283,18.59269179498957
0.972451679058723,0.9128157089716763,781,10,20.821264595065283,18.59269179498957
0.9815775092112625,0.9128065829598844,781,10,20.821264595065283,18.59269179498957
0.990703248093447,0.9127974570393703,781,10,20.821264595065283,18.59269179498957
0.9998288957087677,0.9127883312101304,781,10,20.821264595065283,18.59269179498957
1.0089544520605158,0.9127792054721608,781,10,20.821264595065283,18.59269179498957
1.018079917151801,0.9127700798254581,781,10,20.821264595065283,18.59269179498957
1.0272052909855633,0.9127609542700189,781,10,20.821264595065283,18.59269179498957
1.036330573564586,0.9127518288058402,781,10,20.821264595065283,18.59269179498957
1.0454557648915093,0.912742703432919,781,10,20.821264595065283,18.59269179498957
1.0545808649688402,0.9127335781512526,781,10,20.821264595065283,18.59269179498957
1.0637058737989624,0.9127244529608382,781,10,20.821264595065283,18.59269179498957
1.0728307913841473,0.9127153278616733,781,10,20.821264595065283,18.59269179498957
1.081955617726561,0.9127062028537557,781,10,20.821264595065283,18.59269179498957
1.0910803528282738,0.912697077937083,781,10,20.821264595065283,18.59269179498957
1.100204996691266,0.9126879531116531,781,10,20.821264595065283,18.59269179498957
1.1093295493174362,0.912678828377464,781,10,20.821264595065283,18.59269179498957
1.1184540107086074,0.9126697037345134,781,10,20.821264595065283,18.59269179498957
1.1275783808665316,0.9126605791827997,781,10,20.821264595065283,18.59269179498957
1.1367026597928966,0.912651454722321,781,10,20.821264595065283,18.59269179498957
1.1458268474893312,0.9126423303530755,781,10,20.821264595065283,18.59269179498957
1.1549509439574086,0.9126332060750616,781,10,20.821264595065283,18.59269179498957
1.1640749491986497,0.9126240818882776,781,10,20.821264595065283,18.59269179498957
1.173198863214531,0.912614957792722,781,10,20.821264595065283,18.59269179498957
1.1823226860064837,0.9126058337883931,781,10,20.821264595065283,18.59269179498957
1.1914464175758999,0.9125967098752896,781,10,20.821264595065283,18.59269179498957
1.2005700579241343,0.9125875860534101,781,10,20.821264595065283,18.59269179498957
1.209693607052508,0.9125784623227531,781,10,20.821264595065283,18.59269179498957
1.2188170649623102,0.9125693386833172,781,10,20.821264595065283,18.59269179498957
1.227940431654801,0.9125602151351012,781,10,20.821264595065283,18.59269179498957
1.237063707131215,0.9125510916781038,781,10,20.821264595065283,18.59269179498957
1.2461868913927594,0.9125419683123237,781,10,20.821264595065283,18.59269179498957
1.2553099844406208,0.9125328450377596,781,10,20.821264595065283,18.59269179498957
1.2644329862759647,0.9125237218544103,781,10,20.821264595065283,18.59269179498957
1.2735558968999352,0.9125145987622748,781,10,20.821264595065283,18.59269179498957
1.2826787163136604,0.9125054757613518,781,10,20.821264595065283,18.59269179498957
1.291801444518251,0.9124963528516402,781,10,20.821264595065283,18.59269179498957
1.3009240815148024,0.9124872300331387,781,10,20.821264595065283,18.59269179498957
1.310046627304396,0.9124781073058464,781,10,20.821264595065283,18.59269179498957
1.3191690818880997,0.9124689846697621,781,10,20.821264595065283,18.59269179498957
1.32829144526697,0.9124598621248848,781,10,20.821264595065283,18.59269179498957
1.3374137174420526,0.9124507396712134,781,10,20.821264595065283,18.59269179498957
1.3465358984143811,0.9124416173087468,781,10,20.821264595065283,18.59269179498957
1.3556579881849824,0.9124324950374839,781,10,20.821264595065283,18.59269179498957
1.3647799867548716,0.9124233728574238,781,10,20.821264595065283,18.59269179498957
1.3739018941250583,0.9124142507685655,781,10,20.821264595065283,18.59269179498957
1.383023710296543,0.9124051287709078,781,10,20.821264595065283,18.59269179498957
1.3921454352703204,0.9123960068644499,781,10,20.821264595065283,18.59269179498957
1.4012670690473779,0.9123868850491905,781,10,20.821264595065283,18.59269179498957
1.4103886116286974,0.912377763325129,781,10,20.821264595065283,18.59269179498957
1.4195100630152564,0.9123686416922641,781,10,20.821264595065283,18.59269179498957
1.4286314232080262,0.912359520150595,781,10,20.821264595065283,18.59269179498957
1.4377526922079729,0.9123503987001206,781,10,20.821264595065283,18.59269179498957
1.4468738700160602,0.9123412773408399,781,10,20.821264595065283,18.59269179498957
1.4559949566332457,0.9123321560727521,781,10,20.821264595065283,18.59269179498957
1.4651159520604857,0.9123230348958562,781,10,20.821264595065283,18.59269179498957
1.4742368562987311,0.9123139138101511,781,10,20.821264595065283,18.59269179498957
1.4833576693489319,0.912304792815636,781,10,20.821264595065283,18.59269179498957
1.4924783912120325,0.9122956719123099,781,10,20.821264595065283,18.59269179498957
1.5015990218889765,0.9122865511001718,781,10,20.821264595065283,18.59269179498957
1.5107195613807052,0.9122774303792207,781,10,20.821264595065283,18.59269179498957
1.5198400096881564,0.9122683097494558,781,10,20.821264595065283,18.59269179498957
1.528960366812267,0.9122591892108762,781,10,20.821264595065283,18.59269179498957
1.5380806327539713,0.9122500687634808,781,10,20.821264595065283,18.59269179498957
1.547200807514202,0.9122409484072688,781,10,20.821264595065283,18.59269179498957
1.5563208910938908,0.9122318281422391,781,10,20.821264595065283,18.59269179498957
1.5654408834939668,0.9122227079683909,781,10,20.821264595065283,18.59269179498957
1.5745607847153582,0.9122135878857233,781,10,20.821264595065283,18.59269179498957
1.5836805947589923,0.9122044678942353,781,10,20.821264595065283,18.59269179498957
1.592800313625794,0.9121953479939259,781,10,20.821264595065283,18.59269179498957
1.6019199413166887,0.9121862281847942,781,10,20.821264595065283,18.59269179498957
1.6110394778325994,0.9121771084668394,781,10,20.821264595065283,18.59269179498957
1.6201589231744493,0.9121679888400605,781,10,20.821264595065283,18.59269179498957
1.6292782773431602,0.9121588693044566,781,10,20.821264595065283,18.59269179498957
1.6383975403396531,0.9121497498600266,781,10,20.821264595065283,18.59269179498957
1.6475167121648477,0.9121406305067699,781,10,20.821264595065283,18.59269179498957
1.656635792819664,0.9121315112446853,781,10,20.821264595065283,18.59269179498957
1.6657547823050212,0.9121223920737721,781,10,20.821264595065283,18.59269179498957
1.6748736806218374,0.9121132729940292,781,10,20.821264595065283,18.59269179498957
1.6839924877710302,0.9121041540054557,781,10,20.821264595065283,18.59269179498957
1.6931112037535174,0.9120950351080508,781,10,20.821264595065283,18.59269179498957
1.7022298285702155,0.9120859163018136,781,10,20.821264595065283,18.59269179498957
1.7113483622220413,0.912076797586743,781,10,20.821264595065283,18.59269179498957
1.7204668047099108,0.9120676789628381,781,10,20.821264595065283,18.59269179498957
1.7295851560347397,0.9120585604300981,781,10,20.821264595065283,18.59269179498957
1.7387034161974424,0.9120494419885221,781,10,20.821264595065283,18.59269179498957
1.7478215851989352,0.9120403236381092,781,10,20.821264595065283,18.59269179498957
1.756939663040133,0.9120312053788583,781,10,20.821264595065283,18.59269179498957
1.766057649721949,0.9120220872107687,781,10,20.821264595065283,18.59269179498957
1.775175545245298,0.9120129691338393,781,10,20.821264595065283,18.59269179498957
1.784293349611094,0.9120038511480693,781,10,20.821264595065283,18.59269179498957
1.793411062820251,0.9119947332534578,781,10,20.821264595065283,18.59269179498957
1.802528684873683,0.9119856154500038,781,10,20.821264595065283,18.59269179498957
1.811646215772302,0.9119764977377064,781,10,20.821264595065283,18.59269179498957
1.8207636555170228,0.9119673801165648,781,10,20.821264595065283,18.59269179498957
1.8298810041087576,0.9119582625865779,781,10,20.821264595065283,18.59269179498957
1.8389982615484197,0.9119491451477449,781,10,20.821264595065283,18.59269179498957
1.8481154278369214,0.911940027800065,781,10,20.821264595065283,18.59269179498957
1.8572325029751762,0.911930910543537,781,10,20.821264595065283,18.59269179498957
1.8663494869640964,0.9119217933781603,781,10,20.821264595065283,18.59269179498957
1.8754663798045943,0.9119126763039337,781,10,20.821264595065283,18.59269179498957
1.8845831814975822,0.9119035593208565,781,10,20.821264595065283,18.59269179498957
1.8936998920439723,0.9118944424289277,781,10,20.821264595065283,18.59269179498957
1.9028165114446771,0.9118853256281465,781,10,20.821264595065283,18.59269179498957
1.9119330397006087,0.9118762089185117,781,10,20.821264595065283,18.59269179498957
1.9210494768126787,0.9118670923000227,781,10,20.821264595065283,18.59269179498957
1.9301658227817995,0.9118579757726785,781,10,20.821264595065283,18.59269179498957
1.9392820776088828,0.9118488593364781,781,10,20.821264595065283,18.59269179498957
1.9483982412948406,0.9118397429914206,781,10,20.821264595065283,18.59269179498957
1.9575143138405844,0.9118306267375051,781,10,20.821264595065283,18.59269179498957
1.966630295247026,0.9118215105747308,781,10,20.821264595065283,18.59269179498957
1.9757461855150773,0.9118123945030967,781,10,20.821264595065283,18.59269179498957
1.9848619846456494,0.9118032785226019,781,10,20.821264595065283,18.59269179498957
1.9939776926396546,0.9117941626332454,781,10,20.821264595065283,18.59269179498957
2.003093309498004,0.9117850468350265,781,10,20.821264595065283,18.59269179498957
2.0122088352216094,0.9117759311279441,781,10,20.821264595065283,18.59269179498957
2.0213242698113816,0.9117668155119972,781,10,20.821264595065283,18.59269179498957
2.0304396132682325,0.9117576999871853,781,10,20.821264595065283,18.59269179498957
2.0395548655930726,0.911748584553507,781,10,20.821264595065283,18.59269179498957
2.0486700267868154,0.9117394692109617,781,10,20.821264595065283,18.59269179498957
2.0577850968503704,0.9117303539595485,781,10,20.821264595065283,18.59269179498957
2.0669000757846496,0.9117212387992663,781,10,20.821264595065283,18.59269179498957
2.076014963590564,0.9117121237301142,781,10,20.821264595065283,18.59269179498957
2.0851297602690244,0.9117030087520914,781,10,20.821264595065283,18.59269179498957
2.0942444658209434,0.9116938938651971,781,10,20.821264595065283,18.59269179498957
2.1033590802472317,0.91168477906943,781,10,20.821264595065283,18.59269179498957
2.1124736035487994,0.9116756643647896,781,10,20.821264595065283,18.59269179498957
2.1215880357265595,0.9116665497512748,781,10,20.821264595065283,18.59269179498957
2.1307023767814215,0.9116574352288848,781,10,20.821264595065283,18.59269179498957
2.139816626714297,0.9116483207976185,781,10,20.821264595065283,18.59269179498957
2.148930785526097,0.911639206457475,781,10,20.821264595065283,18.59269179498957
2.158044853217733,0.9116300922084536,781,10,20.821264595065283,18.59269179498957
2.1671588297901168,0.9116209780505532,781,10,20.821264595065283,18.59269179498957
2.1762727152441577,0.911611863983773,781,10,20.821264595065283,18.59269179498957
2.1853865095807676,0.9116027500081121,781,10,20.821264595065283,18.59269179498957
