Vout,Iout,Irradiance,Temperature,MaxVoltage,MaxPower
0.010270341246718781,2.0540879999999997,1821,-11,19.30516975379248,39.28260948531987
0.030810833831826194,2.0540879999999997,1821,-11,19.30516975379248,39.28260948531987
0.051350908833871396,2.054077524249953,1821,-11,19.30516975379248,39.28260948531987
0.0718904916517786,2.0540569837573677,1821,-11,19.30516975379248,39.28260948531987
0.09242955790462198,2.0540364436834135,1821,-11,19.30516975379248,39.28260948531987
0.11296813154222056,2.0540159041026493,1821,-11,19.30516975379248,39.28260948531987
0.13350623467249706,2.0539953650384506,1821,-11,19.30516975379248,39.28260948531987
0.15404388770274152,2.053974826466867,1821,-11,19.30516975379248,39.28260948531987
0.1745811094702328,2.053954288365791,1821,-11,19.30516975379248,39.28260948531987
0.1951179173630381,2.053933750714814,1821,-11,19.30516975379248,39.28260948531987
0.21565432743151705,2.053913213495101,1821,-11,19.30516975379248,39.28260948531987
0.23619035449124737,2.053892676689262,1821,-11,19.30516975379248,39.28260948531987
0.256726012218031,2.0538721402812468,1821,-11,19.30516975379248,39.28260948531987
0.27726131323559,2.053851604256241,1821,-11,19.30516975379248,39.28260948531987
0.29779626919651536,2.0538310686005676,1821,-11,19.30516975379248,39.28260948531987
0.3183308908569871,2.0538105333016037,1821,-11,19.30516975379248,39.28260948531987
0.3388651881457462,2.053789998347696,1821,-11,19.30516975379248,39.28260948531987
0.3593991702277581,2.053769463728089,1821,-11,19.30516975379248,39.28260948531987
0.3799328455629797,2.053748929432854,1821,-11,19.30516975379248,39.28260948531987
0.40046622196060305,2.0537283954528256,1821,-11,19.30516975379248,39.28260948531987
0.4209993066291271,2.053707861779544,1821,-11,19.30516975379248,39.28260948531987
0.44153210622257477,2.0536873284051995,1821,-11,19.30516975379248,39.28260948531987
0.4620646268831566,2.0536667953225844,1821,-11,19.30516975379248,39.28260948531987
0.48259687428064907,2.0536462625250445,1821,-11,19.30516975379248,39.28260948531987
0.5031288536487454,2.053625730006437,1821,-11,19.30516975379248,39.28260948531987
0.5236605698186081,2.053605197761093,1821,-11,19.30516975379248,39.28260948531987
0.5441920272498402,2.0535846657837777,1821,-11,19.30516975379248,39.28260948531987
0.5647232300590735,2.0535641340696613,1821,-11,19.30516975379248,39.28260948531987
0.5852541820463585,2.0535436026142833,1821,-11,19.30516975379248,39.28260948531987
0.6057848867195206,2.0535230714135273,1821,-11,19.30516975379248,39.28260948531987
0.6263153473166458,2.053502540463593,1821,-11,19.30516975379248,39.28260948531987
0.6468455668268352,2.053482009760973,1821,-11,19.30516975379248,39.28260948531987
0.6673755480093607,2.053461479302429,1821,-11,19.30516975379248,39.28260948531987
0.68790529341135,2.053440949084972,1821,-11,19.30516975379248,39.28260948531987
0.7084348053841083,2.0534204191058425,1821,-11,19.30516975379248,39.28260948531987
0.7289640860981857,2.0533998893624936,1821,-11,19.30516975379248,39.28260948531987
0.7494931375572847,2.0533793598525736,1821,-11,19.30516975379248,39.28260948531987
0.7700219616110975,2.0533588305739126,1821,-11,19.30516975379248,39.28260948531987
0.790550559967156,2.0533383015245064,1821,-11,19.30516975379248,39.28260948531987
0.8110789342017698,2.0533177727025054,1821,-11,19.30516975379248,39.28260948531987
0.8316070857701225,2.0532972441062025,1821,-11,19.30516975379248,39.28260948531987
0.8521350160155915,2.053276715734021,1821,-11,19.30516975379248,39.28260948531987
0.8726627261783507,2.053256187584505,1821,-11,19.30516975379248,39.28260948531987
0.8931902174033105,2.0532356596563126,1821,-11,19.30516975379248,39.28260948531987
0.9137174907474485,2.0532151319482024,1821,-11,19.30516975379248,39.28260948531987
0.9342445471865737,2.0531946044590303,1821,-11,19.30516975379248,39.28260948531987
0.954771387621574,2.053174077187739,1821,-11,19.30516975379248,39.28260948531987
0.9752980128841781,2.0531535501333527,1821,-11,19.30516975379248,39.28260948531987
0.9958244237422789,2.0531330232949703,1821,-11,19.30516975379248,39.28260948531987
1.0163506209048438,2.0531124966717607,1821,-11,19.30516975379248,39.28260948531987
1.036876605026449,2.053091970262955,1821,-11,19.30516975379248,39.28260948531987
1.0574023767114653,2.0530714440678453,1821,-11,19.30516975379248,39.28260948531987
1.0779279365179186,2.053050918085776,1821,-11,19.30516975379248,39.28260948531987
1.0984532849610584,2.0530303923161437,1821,-11,19.30516975379248,39.28260948531987
1.1189784225166477,2.05300986675839,1821,-11,19.30516975379248,39.28260948531987
1.1395033496240004,2.0529893414119993,1821,-11,19.30516975379248,39.28260948531987
1.1600280666887883,2.0529688162764965,1821,-11,19.30516975379248,39.28260948531987
1.180552574085627,2.0529482913514414,1821,-11,19.30516975379248,39.28260948531987
1.2010768721604668,2.0529277666364294,1821,-11,19.30516975379248,39.28260948531987
1.2216009612327976,2.0529072421310848,1821,-11,19.30516975379248,39.28260948531987
1.242124841597685,2.0528867178350625,1821,-11,19.30516975379248,39.28260948531987
1.26264851352765,2.052866193748043,1821,-11,19.30516975379248,39.28260948531987
1.2831719772744032,2.0528456698697304,1821,-11,19.30516975379248,39.28260948531987
1.3036952330704454,2.0528251461998526,1821,-11,19.30516975379248,39.28260948531987
1.3242182811305472,2.0528046227381584,1821,-11,19.30516975379248,39.28260948531987
1.3447411216531115,2.0527840994844144,1821,-11,19.30516975379248,39.28260948531987
1.365263754821434,2.052763576438407,1821,-11,19.30516975379248,39.28260948531987
1.3857861808048642,2.0527430535999365,1821,-11,19.30516975379248,39.28260948531987
1.4063083997598809,2.0527225309688206,1821,-11,19.30516975379248,39.28260948531987
1.4268304118310802,2.0527020085448893,1821,-11,19.30516975379248,39.28260948531987
1.4473522171520898,2.0526814863279865,1821,-11,19.30516975379248,39.28260948531987
1.4678738158464153,2.0526609643179676,1821,-11,19.30516975379248,39.28260948531987
1.4883952080282161,2.052640442514699,1821,-11,19.30516975379248,39.28260948531987
1.5089163938030266,2.052619920918057,1821,-11,19.30516975379248,39.28260948531987
1.5294373732684186,2.052599399527927,1821,-11,19.30516975379248,39.28260948531987
1.5499581465146146,2.0525788783442045,1821,-11,19.30516975379248,39.28260948531987
1.5704787136250522,2.052558357366791,1821,-11,19.30516975379248,39.28260948531987
1.5909990746769078,2.0525378365955973,1821,-11,19.30516975379248,39.28260948531987
1.6115192297415781,2.052517316030539,1821,-11,19.30516975379248,39.28260948531987
1.632039178885123,2.052496795671539,1821,-11,19.30516975379248,39.28260948531987
1.6525589221686783,2.0524762755185266,1821,-11,19.30516975379248,39.28260948531987
1.6730784596488326,2.052455755571435,1821,-11,19.30516975379248,39.28260948531987
1.6935977913779796,2.0524352358302034,1821,-11,19.30516975379248,39.28260948531987
1.7141169174046385,2.0524147162947752,1821,-11,19.30516975379248,39.28260948531987
1.7346358377737543,2.052394196965098,1821,-11,19.30516975379248,39.28260948531987
1.7551545525269705,2.0523736778411235,1821,-11,19.30516975379248,39.28260948531987
1.7756730617028844,2.052353158922806,1821,-11,19.30516975379248,39.28260948531987
1.7961913653372825,2.0523326402101048,1821,-11,19.30516975379248,39.28260948531987
1.8167094634633543,2.0523121217029807,1821,-11,19.30516975379248,39.28260948531987
1.8372273561118935,2.0522916034013985,1821,-11,19.30516975379248,39.28260948531987
1.857745043311483,2.0522710853053243,1821,-11,19.30516975379248,39.28260948531987
1.8782625250886642,2.0522505674147276,1821,-11,19.30516975379248,39.28260948531987
1.8987798014680934,2.05223004972958,1821,-11,19.30516975379248,39.28260948531987
1.9192968724726882,2.0522095322498544,1821,-11,19.30516975379248,39.28260948531987
1.9398137381237606,2.0521890149755264,1821,-11,19.30516975379248,39.28260948531987
1.9603303984411402,2.0521684979065737,1821,-11,19.30516975379248,39.28260948531987
1.980846853443289,2.0521479810429746,1821,-11,19.30516975379248,39.28260948531987
2.001363103147406,2.052127464384709,1821,-11,19.30516975379248,39.28260948531987
2.0218791475695252,2.052106947931758,1821,-11,19.30516975379248,39.28260948531987
2.0423949867246045,2.052086431684106,1821,-11,19.30516975379248,39.28260948531987
2.062910620626608,2.0520659156417356,1821,-11,19.30516975379248,39.28260948531987
2.083426049288583,2.0520453998046317,1821,-11,19.30516975379248,39.28260948531987
2.103941272722733,2.0520248841727815,1821,-11,19.30516975379248,39.28260948531987
2.1244562909404774,2.052004368746171,1821,-11,19.30516975379248,39.28260948531987
2.1449711039525163,2.0519838535247885,1821,-11,19.30516975379248,39.28260948531987
2.1654857117688837,2.0519633385086222,1821,-11,19.30516975379248,39.28260948531987
2.1860001143989987,2.051942823697662,1821,-11,19.30516975379248,39.28260948531987
2.2065143118517163,2.0519223090918968,1821,-11,19.30516975379248,39.28260948531987
2.2270283041353647,2.0519017946913185,1821,-11,19.30516975379248,39.28260948531987
2.2475420912577895,2.051881280495917,1821,-11,19.30516975379248,39.28260948531987
2.268055673226393,2.0518607665056847,1821,-11,19.30516975379248,39.28260948531987
2.288569050048162,2.0518402527206137,1821,-11,19.30516975379248,39.28260948531987
2.309082221729706,2.0518197391406967,1821,-11,19.30516975379248,39.28260948531987
2.3295951882772834,2.0517992257659263,1821,-11,19.30516975379248,39.28260948531987
2.350107949696828,2.051778712596296,1821,-11,19.30516975379248,39.28260948531987
2.3706205059939744,2.0517581996318,1821,-11,19.30516975379248,39.28260948531987
2.3911328571740835,2.0517376868724315,1821,-11,19.30516975379248,39.28260948531987
2.41164500324226,2.0517171743181857,1821,-11,19.30516975379248,39.28260948531987
2.4321569442033724,2.051696661969057,1821,-11,19.30516975379248,39.28260948531987
2.452668680062075,2.05167614982504,1821,-11,19.30516975379248,39.28260948531987
2.4731802108228207,2.05165563788613,1821,-11,19.30516975379248,39.28260948531987
2.4936915364898757,2.0516351261523225,1821,-11,19.30516975379248,39.28260948531987
2.514202657067338,2.051614614623613,1821,-11,19.30516975379248,39.28260948531987
2.534713572559147,2.051594103299997,1821,-11,19.30516975379248,39.28260948531987
2.555224282969097,2.051573592181471,1821,-11,19.30516975379248,39.28260948531987
2.5757347883008475,2.0515530812680303,1821,-11,19.30516975379248,39.28260948531987
2.596245088557935,2.0515325705596714,1821,-11,19.30516975379248,39.28260948531987
2.616755183743782,2.0515120600563908,1821,-11,19.30516975379248,39.28260948531987
2.6372650738617036,2.0514915497581847,1821,-11,19.30516975379248,39.28260948531987
2.6577747589149188,2.0514710396650497,1821,-11,19.30516975379248,39.28260948531987
2.678284238906557,2.051450529776983,1821,-11,19.30516975379248,39.28260948531987
2.6987935138396635,2.051430020093981,1821,-11,19.30516975379248,39.28260948531987
2.719302583717207,2.05140951061604,1821,-11,19.30516975379248,39.28260948531987
2.739811448542086,2.051389001343158,1821,-11,19.30516975379248,39.28260948531987
2.7603201083171345,2.0513684922753312,1821,-11,19.30516975379248,39.28260948531987
2.7808285630451244,2.0513479834125574,1821,-11,19.30516975379248,39.28260948531987
2.801336812728773,2.0513274747548333,1821,-11,19.30516975379248,39.28260948531987
2.821844857370747,2.0513069663021564,1821,-11,19.30516975379248,39.28260948531987
2.842352696973663,2.0512864580545234,1821,-11,19.30516975379248,39.28260948531987
2.8628603315400976,2.051265950011932,1821,-11,19.30516975379248,39.28260948531987
2.8833677610725834,2.0512454421743804,1821,-11,19.30516975379248,39.28260948531987
2.903874985573619,2.0512249345418647,1821,-11,19.30516975379248,39.28260948531987
2.9243820050456653,2.0512044271143828,1821,-11,19.30516975379248,39.28260948531987
2.944888819491154,2.051183919891933,1821,-11,19.30516975379248,39.28260948531987
2.9653954289124878,2.0511634128745113,1821,-11,19.30516975379248,39.28260948531987
2.985901833312038,2.0511429060621165,1821,-11,19.30516975379248,39.28260948531987
3.0064080326921565,2.051122399454746,1821,-11,19.30516975379248,39.28260948531987
3.026914027055168,2.051101893052397,1821,-11,19.30516975379248,39.28260948531987
3.047419816403379,2.0510813868550675,1821,-11,19.30516975379248,39.28260948531987
3.0679254007390733,2.0510608808627553,1821,-11,19.30516975379248,39.28260948531987
3.088430780064518,2.0510403750754578,1821,-11,19.30516975379248,39.28260948531987
3.1089359543819652,2.0510198694931727,1821,-11,19.30516975379248,39.28260948531987
3.129440923693648,2.0509993641158974,1821,-11,19.30516975379248,39.28260948531987
3.1499456880017878,2.0509788589436306,1821,-11,19.30516975379248,39.28260948531987
3.1704502473085916,2.0509583539763696,1821,-11,19.30516975379248,39.28260948531987
3.1909546016162555,2.050937849214112,1821,-11,19.30516975379248,39.28260948531987
3.2114587509269628,2.0509173446568556,1821,-11,19.30516975379248,39.28260948531987
3.2319626952428875,2.0508968403045986,1821,-11,19.30516975379248,39.28260948531987
3.2524664345661933,2.050876336157338,1821,-11,19.30516975379248,39.28260948531987
3.272969968899037,2.0508558322150727,1821,-11,19.30516975379248,39.28260948531987
3.293473298243563,2.0508353284778,1821,-11,19.30516975379248,39.28260948531987
3.3139764226019133,2.0508148249455176,1821,-11,19.30516975379248,39.28260948531987
3.334479341976219,2.0507943216182234,1821,-11,19.30516975379248,39.28260948531987
3.3549820563686072,2.0507738184959154,1821,-11,19.30516975379248,39.28260948531987
3.375484565781197,2.0507533155785915,1821,-11,19.30516975379248,39.28260948531987
3.3959868702161056,2.0507328128662494,1821,-11,19.30516975379248,39.28260948531987
3.4164889696754397,2.050712310358887,1821,-11,19.30516975379248,39.28260948531987
3.4369908641613063,2.050691808056502,1821,-11,19.30516975379248,39.28260948531987
3.457492553675805,2.050671305959093,1821,-11,19.30516975379248,39.28260948531987
3.4779940382210337,2.050650804066658,1821,-11,19.30516975379248,39.28260948531987
3.498495317799084,2.050630302379193,1821,-11,19.30516975379248,39.28260948531987
3.5189963924120473,2.0506098008966984,1821,-11,19.30516975379248,39.28260948531987
3.539497262062009,2.0505892996191704,1821,-11,19.30516975379248,39.28260948531987
3.559997926751053,2.0505687985466077,1821,-11,19.30516975379248,39.28260948531987
3.5804983864812594,2.0505482976790077,1821,-11,19.30516975379248,39.28260948531987
3.6009986412547086,2.0505277970163687,1821,-11,19.30516975379248,39.28260948531987
3.6214986910734748,2.050507296558689,1821,-11,19.30516975379248,39.28260948531987
3.6419985359396336,2.0504867963059654,1821,-11,19.30516975379248,39.28260948531987
3.662498175855257,2.0504662962581968,1821,-11,19.30516975379248,39.28260948531987
3.682997610822415,2.0504457964153806,1821,-11,19.30516975379248,39.28260948531987
3.7034968408431754,2.0504252967775147,1821,-11,19.30516975379248,39.28260948531987
3.723995865919607,2.050404797344598,1821,-11,19.30516975379248,39.28260948531987
3.744494686053774,2.0503842981166267,1821,-11,19.30516975379248,39.28260948531987
3.764993301247742,2.0503637990936006,1821,-11,19.30516975379248,39.28260948531987
3.7854917115035733,2.0503433002755163,1821,-11,19.30516975379248,39.28260948531987
3.8059899168233313,2.050322801662372,1821,-11,19.30516975379248,39.28260948531987
3.826487917209076,2.050302303254166,1821,-11,19.30516975379248,39.28260948531987
3.8469857126628675,2.050281805050896,1821,-11,19.30516975379248,39.28260948531987
3.867483303186766,2.05026130705256,1821,-11,19.30516975379248,39.28260948531987
3.887980688782829,2.050240809259156,1821,-11,19.30516975379248,39.28260948531987
3.9084778694531144,2.050220311670682,1821,-11,19.30516975379248,39.28260948531987
3.928974845199679,2.050199814287136,1821,-11,19.30516975379248,39.28260948531987
3.9494716160245793,2.0501793171085154,1821,-11,19.30516975379248,39.28260948531987
3.9699681819298704,2.0501588201348184,1821,-11,19.30516975379248,39.28260948531987
3.990464542917608,2.0501383233660433,1821,-11,19.30516975379248,39.28260948531987
4.010960698989846,2.050117826802188,1821,-11,19.30516975379248,39.28260948531987
4.03145665014864,2.0500973304432497,1821,-11,19.30516975379248,39.28260948531987
4.051952396396043,2.0500768342892273,1821,-11,19.30516975379248,39.28260948531987
4.0724479377341085,2.050056338340118,1821,-11,19.30516975379248,39.28260948531987
4.09294327416489,2.0500358425959204,1821,-11,19.30516975379248,39.28260948531987
4.113438405690438,2.0500153470566316,1821,-11,19.30516975379248,39.28260948531987
4.133933332312805,2.0499948517222504,1821,-11,19.30516975379248,39.28260948531987
4.154428054034043,2.0499743565927746,1821,-11,19.30516975379248,39.28260948531987
4.174922570856206,2.0499538616682016,1821,-11,19.30516975379248,39.28260948531987
4.195416882781344,2.04993336694853,1821,-11,19.30516975379248,39.28260948531987
4.2159109898115075,2.049912872433757,1821,-11,19.30516975379248,39.28260948531987
4.236404891948747,2.049892378123882,1821,-11,19.30516975379248,39.28260948531987
4.256898589195115,2.0498718840189007,1821,-11,19.30516975379248,39.28260948531987
4.277392081552662,2.049851390118813,1821,-11,19.30516975379248,39.28260948531987
4.297885369023437,2.0498308964236163,1821,-11,19.30516975379248,39.28260948531987
4.318378451609489,2.049810402933308,1821,-11,19.30516975379248,39.28260948531987
4.338871329312872,2.0497899096478864,1821,-11,19.30516975379248,39.28260948531987
4.359364002135633,2.04976941656735,1821,-11,19.30516975379248,39.28260948531987
4.379856470079822,2.0497489236916957,1821,-11,19.30516975379248,39.28260948531987
4.4003487331474895,2.0497284310209225,1821,-11,19.30516975379248,39.28260948531987
4.420840791340683,2.0497079385550276,1821,-11,19.30516975379248,39.28260948531987
4.441332644661453,2.049687446294009,1821,-11,19.30516975379248,39.28260948531987
4.46182429311185,2.049666954237865,1821,-11,19.30516975379248,39.28260948531987
4.482315736693923,2.0496464623865935,1821,-11,19.30516975379248,39.28260948531987
4.502806975409718,2.0496259707401925,1821,-11,19.30516975379248,39.28260948531987
4.523298009261287,2.0496054792986595,1821,-11,19.30516975379248,39.28260948531987
4.543788838250679,2.049584988061993,1821,-11,19.30516975379248,39.28260948531987
4.564279462379941,2.0495644970301905,1821,-11,19.30516975379248,39.28260948531987
4.584769881651122,2.0495440062032504,1821,-11,19.30516975379248,39.28260948531987
4.605260096066273,2.04952351558117,1821,-11,19.30516975379248,39.28260948531987
4.62575010562744,2.049503025163948,1821,-11,19.30516975379248,39.28260948531987
4.646239910336672,2.049482534951582,1821,-11,19.30516975379248,39.28260948531987
4.66672951019602,2.04946204494407,1821,-11,19.30516975379248,39.28260948531987
4.687218905207528,2.0494415551414096,1821,-11,19.30516975379248,39.28260948531987
4.707708095373248,2.049421065543599,1821,-11,19.30516975379248,39.28260948531987
4.728197080695228,2.049400576150637,1821,-11,19.30516975379248,39.28260948531987
4.748685861175514,2.04938008696252,1821,-11,19.30516975379248,39.28260948531987
4.769174436816155,2.049359597979247,1821,-11,19.30516975379248,39.28260948531987
4.789662807619202,2.0493391092008153,1821,-11,19.30516975379248,39.28260948531987
4.8101509735867,2.049318620627224,1821,-11,19.30516975379248,39.28260948531987
4.830638934720699,2.0492981322584694,1821,-11,19.30516975379248,39.28260948531987
4.851126691023245,2.049277644094551,1821,-11,19.30516975379248,39.28260948531987
4.871614242496387,2.0492571561354658,1821,-11,19.30516975379248,39.28260948531987
4.892101589142174,2.049236668381212,1821,-11,19.30516975379248,39.28260948531987
