Vout,Iout,Irradiance,Temperature,MaxVoltage,MaxPower
0.011290091441428448,2.25804,1821,45,22.92088430620649,51.14829969757624
0.03387006555980894,2.25804,1821,45,22.92088430620649,51.14829969757624
0.05644958063297919,2.2580284841045586,1821,45,22.92088430620649,51.14829969757624
0.07902855465266441,2.25800590413044,1821,45,22.92088430620649,51.14829969757624
0.10160696081713765,2.2579833246165184,1821,45,22.92088430620649,51.14829969757624
0.1241848254542141,2.257960745644757,1821,45,22.92088430620649,51.14829969757624
0.14676217286692944,2.2579381672408503,1821,45,22.92088430620649,51.14829969757624
0.16933902548882937,2.257915589378471,1821,45,22.92088430620649,51.14829969757624
0.191915404027561,2.2578930120333163,1821,45,22.92088430620649,51.14829969757624
0.21449132759766604,2.257870435182952,1821,45,22.92088430620649,51.14829969757624
0.23706681384315711,2.257847858806671,1821,45,22.92088430620649,51.14829969757624
0.2596418790506621,2.2578252828853587,1821,45,22.92088430620649,51.14829969757624
0.282216538253864,2.2578027074013707,1821,45,22.92088430620649,51.14829969757624
0.30479080532990405,2.257780132338421,1821,45,22.92088430620649,51.14829969757624
0.327364693088368,2.257757557681475,1821,45,22.92088430620649,51.14829969757624
0.3499382133534256,2.2577349834166567,1821,45,22.92088430620649,51.14829969757624
0.37251137703965004,2.257712409531156,1821,45,22.92088430620649,51.14829969757624
0.3950841942220037,2.257689836013148,1821,45,22.92088430620649,51.14829969757624
0.41765667420043884,2.257667262851719,1821,45,22.92088430620649,51.14829969757624
0.4402288255595284,2.2576446900367944,1821,45,22.92088430620649,51.14829969757624
0.4628006562235086,2.257622117559073,1821,45,22.92088430620649,51.14829969757624
0.4853721735070859,2.2575995454099713,1821,45,22.92088430620649,51.14829969757624
0.5079433841623353,2.2575769735815645,1821,45,22.92088430620649,51.14829969757624
0.5305142944219902,2.257554402066538,1821,45,22.92088430620649,51.14829969757624
0.553084910039401,2.2575318308581402,1821,45,22.92088430620649,51.14829969757624
0.5756552363254204,2.2575092599501376,1821,45,22.92088430620649,51.14829969757624
0.5982252781824484,2.2574866893367775,1821,45,22.92088430620649,51.14829969757624
0.6207950401358612,2.2574641190127482,1821,45,22.92088430620649,51.14829969757624
0.6433645263630182,2.2574415489731483,1821,45,22.92088430620649,51.14829969757624
0.6659337407200403,2.257418979213452,1821,45,22.92088430620649,51.14829969757624
0.6885026867665257,2.257396409729482,1821,45,22.92088430620649,51.14829969757624
0.711071367788365,2.2573738405173818,1821,45,22.92088430620649,51.14829969757624
0.7336397868188009,2.2573512715735924,1821,45,22.92088430620649,51.14829969757624
0.7562079466578672,2.2573287028948275,1821,45,22.92088430620649,51.14829969757624
0.7787758498903321,2.257306134478054,1821,45,22.92088430620649,51.14829969757624
0.8013434989022613,2.2572835663204716,1821,45,22.92088430620649,51.14829969757624
0.8239108958963064,2.257260998419496,1821,45,22.92088430620649,51.14829969757624
0.846478042905817,2.257238430772741,1821,45,22.92088430620649,51.14829969757624
0.8690449418078671,2.2572158633780037,1821,45,22.92088430620649,51.14829969757624
0.8916115943352793,2.257193296233251,1821,45,22.92088430620649,51.14829969757624
0.9141780020877237,2.2571707293366057,1821,45,22.92088430620649,51.14829969757624
0.9367441665419629,2.257148162686335,1821,45,22.92088430620649,51.14829969757624
0.9593100890613079,2.257125596280839,1821,45,22.92088430620649,51.14829969757624
0.9818757709043489,2.2571030301186417,1821,45,22.92088430620649,51.14829969757624
1.0044412132330107,2.257080464198379,1821,45,22.92088430620649,51.14829969757624
1.0270064171199926,2.2570578985187923,1821,45,22.92088430620649,51.14829969757624
1.049571383555631,2.2570353330787203,1821,45,22.92088430620649,51.14829969757624
1.0721361134542384,2.25701276787709,1821,45,22.92088430620649,51.14829969757624
1.094700607659952,2.256990202912911,1821,45,22.92088430620649,51.14829969757624
1.1172648669521335,2.256967638185269,1821,45,22.92088430620649,51.14829969757624
1.1398288920503519,2.2569450736933194,1821,45,22.92088430620649,51.14829969757624
1.1623926836189868,2.2569225094362837,1821,45,22.92088430620649,51.14829969757624
1.1849562422714712,2.256899945413442,1821,45,22.92088430620649,51.14829969757624
1.2075195685742135,2.25687738162413,1821,45,22.92088430620649,51.14829969757624
1.2300826630502157,2.2568548180677337,1821,45,22.92088430620649,51.14829969757624
1.2526455261824123,2.2568322547436876,1821,45,22.92088430620649,51.14829969757624
1.2752081584167538,2.2568096916514677,1821,45,22.92088430620649,51.14829969757624
1.2977705601650518,2.256787128790592,1821,45,22.92088430620649,51.14829969757624
1.320332731807606,2.256764566160614,1821,45,22.92088430620649,51.14829969757624
1.3428946736956293,2.256742003761122,1821,45,22.92088430620649,51.14829969757624
1.3654563861534845,2.2567194415917355,1821,45,22.92088430620649,51.14829969757624
1.388017869480751,2.256696879652104,1821,45,22.92088430620649,51.14829969757624
1.4105791239541323,2.256674317941902,1821,45,22.92088430620649,51.14829969757624
1.4331401498292142,2.256651756460831,1821,45,22.92088430620649,51.14829969757624
1.455700947342092,2.256629195208614,1821,45,22.92088430620649,51.14829969757624
1.4782615167108684,2.256606634184995,1821,45,22.92088430620649,51.14829969757624
1.5008218581370378,2.2565840733897384,1821,45,22.92088430620649,51.14829969757624
1.5233819718067665,2.2565615128226257,1821,45,22.92088430620649,51.14829969757624
1.5459418578920683,2.2565389524834556,1821,45,22.92088430620649,51.14829969757624
1.568501516551897,2.256516392372042,1821,45,22.92088430620649,51.14829969757624
1.591060947933149,2.2564938324882124,1821,45,22.92088430620649,51.14829969757624
1.613620152171592,2.2564712728318086,1821,45,22.92088430620649,51.14829969757624
1.6361791293927208,2.2564487134026834,1821,45,22.92088430620649,51.14829969757624
1.658737879712548,2.256426154200701,1821,45,22.92088430620649,51.14829969757624
1.6812964032383335,2.256403595225736,1821,45,22.92088430620649,51.14829969757624
1.7038547000692574,2.2563810364776717,1821,45,22.92088430620649,51.14829969757624
1.7264127702970433,2.256358477956402,1821,45,22.92088430620649,51.14829969757624
1.7489706140065302,2.256335919661827,1821,45,22.92088430620649,51.14829969757624
1.771528231276203,2.256313361593855,1821,45,22.92088430620649,51.14829969757624
1.7940856221786816,2.2562908037524014,1821,45,22.92088430620649,51.14829969757624
1.8166427867811707,2.2562682461373873,1821,45,22.92088430620649,51.14829969757624
1.8391997251458796,2.256245688748741,1821,45,22.92088430620649,51.14829969757624
1.861756437330403,2.256223131586394,1821,45,22.92088430620649,51.14829969757624
1.884312923388078,2.256200574650285,1821,45,22.92088430620649,51.14829969757624
1.9068691833683116,2.256178017940356,1821,45,22.92088430620649,51.14829969757624
1.9294252173168827,2.2561554614565544,1821,45,22.92088430620649,51.14829969757624
1.9519810252762209,2.2561329051988297,1821,45,22.92088430620649,51.14829969757624
1.9745366072856652,2.2561103491671366,1821,45,22.92088430620649,51.14829969757624
1.9970919633817015,2.256087793361433,1821,45,22.92088430620649,51.14829969757624
2.0196470935981807,2.2560652377816792,1821,45,22.92088430620649,51.14829969757624
2.042201997966524,2.256042682427839,1821,45,22.92088430620649,51.14829969757624
2.064756676515908,2.2560201272998777,1821,45,22.92088430620649,51.14829969757624
2.087311129273436,2.255997572397765,1821,45,22.92088430620649,51.14829969757624
2.109865356264303,2.2559750177214712,1821,45,22.92088430620649,51.14829969757624
2.1324193575119352,2.2559524632709693,1821,45,22.92088430620649,51.14829969757624
2.154973133038133,2.255929909046234,1821,45,22.92088430620649,51.14829969757624
2.1775266828631903,2.2559073550472415,1821,45,22.92088430620649,51.14829969757624
2.2000800070060142,2.2558848012739707,1821,45,22.92088430620649,51.14829969757624
2.2226331054842303,2.255862247726401,1821,45,22.92088430620649,51.14829969757624
2.245185978314282,2.255839694404514,1821,45,22.92088430620649,51.14829969757624
2.2677386255115195,2.255817141308291,1821,45,22.92088430620649,51.14829969757624
2.290291047090287,2.255794588437716,1821,45,22.92088430620649,51.14829969757624
2.312843243063998,2.255772035792774,1821,45,22.92088430620649,51.14829969757624
2.3353952134452065,2.255749483373451,1821,45,22.92088430620649,51.14829969757624
2.3579469582456745,2.255726931179732,1821,45,22.92088430620649,51.14829969757624
2.380498477476433,2.2557043792116063,1821,45,22.92088430620649,51.14829969757624
2.4030497711478365,2.255681827469061,1821,45,22.92088430620649,51.14829969757624
2.425600839269618,2.2556592759520853,1821,45,22.92088430620649,51.14829969757624
2.4481516818509332,2.2556367246606692,1821,45,22.92088430620649,51.14829969757624
2.4707022989004086,2.2556141735948025,1821,45,22.92088430620649,51.14829969757624
2.4932526904261776,2.2555916227544763,1821,45,22.92088430620649,51.14829969757624
2.5158028564359243,2.255569072139682,1821,45,22.92088430620649,51.14829969757624
2.538352796936912,2.2555465217504116,1821,45,22.92088430620649,51.14829969757624
2.560902511936022,2.2555239715866566,1821,45,22.92088430620649,51.14829969757624
2.583452001439776,2.2555014216484106,1821,45,22.92088430620649,51.14829969757624
2.6060012654543705,2.2554788719356664,1821,45,22.92088430620649,51.14829969757624
2.6285503039856963,2.255456322448418,1821,45,22.92088430620649,51.14829969757624
2.651099117039365,2.2554337731866583,1821,45,22.92088430620649,51.14829969757624
2.67364770462073,2.255411224150382,1821,45,22.92088430620649,51.14829969757624
2.696196066734907,2.2553886753395833,1821,45,22.92088430620649,51.14829969757624
2.718744203386789,2.255366126754257,1821,45,22.92088430620649,51.14829969757624
2.741292114581069,2.2553435783943976,1821,45,22.92088430620649,51.14829969757624
2.7638398003222515,2.25532103026,1821,45,22.92088430620649,51.14829969757624
2.786387260614665,2.255298482351061,1821,45,22.92088430620649,51.14829969757624
2.8089344954624824,2.2552759346675746,1821,45,22.92088430620649,51.14829969757624
2.8314815048697266,2.255253387209537,1821,45,22.92088430620649,51.14829969757624
2.8540282888402837,2.255230839976944,1821,45,22.92088430620649,51.14829969757624
2.8765748473779156,2.255208292969791,1821,45,22.92088430620649,51.14829969757624
2.8991211804862695,2.2551857461880753,1821,45,22.92088430620649,51.14829969757624
2.9216672881688823,2.2551631996317925,1821,45,22.92088430620649,51.14829969757624
2.944213170429193,2.255140653300939,1821,45,22.92088430620649,51.14829969757624
2.9667588272705507,2.255118107195511,1821,45,22.92088430620649,51.14829969757624
2.989304258696219,2.2550955613155055,1821,45,22.92088430620649,51.14829969757624
3.011849464709384,2.2550730156609187,1821,45,22.92088430620649,51.14829969757624
3.03439444531316,2.2550504702317475,1821,45,22.92088430620649,51.14829969757624
3.0569392005105955,2.255027925027989,1821,45,22.92088430620649,51.14829969757624
3.0794837303046774,2.2550053800496395,1821,45,22.92088430620649,51.14829969757624
3.1020280346983364,2.2549828352966967,1821,45,22.92088430620649,51.14829969757624
3.1245721136944495,2.2549602907691573,1821,45,22.92088430620649,51.14829969757624
3.147115967295849,2.254937746467018,1821,45,22.92088430620649,51.14829969757624
3.16965959550532,2.254915202390276,1821,45,22.92088430620649,51.14829969757624
3.192202998325607,2.2548926585389295,1821,45,22.92088430620649,51.14829969757624
3.214746175759417,2.254870114912974,1821,45,22.92088430620649,51.14829969757624
3.237289127809423,2.2548475715124083,1821,45,22.92088430620649,51.14829969757624
3.2598318544782643,2.254825028337229,1821,45,22.92088430620649,51.14829969757624
3.282374355768551,2.254802485387433,1821,45,22.92088430620649,51.14829969757624
3.304916631682865,2.254779942663019,1821,45,22.92088430620649,51.14829969757624
3.3274586822237646,2.2547574001639825,1821,45,22.92088430620649,51.14829969757624
3.3500005073937826,2.254734857890323,1821,45,22.92088430620649,51.14829969757624
3.3725421071954322,2.254712315842036,1821,45,22.92088430620649,51.14829969757624
3.395083481631205,2.2546897740191203,1821,45,22.92088430620649,51.14829969757624
3.4176246307035756,2.2546672324215726,1821,45,22.92088430620649,51.14829969757624
3.4401655544149996,2.2546446910493914,1821,45,22.92088430620649,51.14829969757624
3.4627062527679193,2.254622149902573,1821,45,22.92088430620649,51.14829969757624
3.48524672576476,2.2545996089811156,1821,45,22.92088430620649,51.14829969757624
3.507786973407936,2.254577068285017,1821,45,22.92088430620649,51.14829969757624
3.530326995699849,2.2545545278142742,1821,45,22.92088430620649,51.14829969757624
3.552866792642886,2.254531987568885,1821,45,22.92088430620649,51.14829969757624
3.575406364239428,2.2545094475488474,1821,45,22.92088430620649,51.14829969757624
3.5979457104918446,2.254486907754158,1821,45,22.92088430620649,51.14829969757624
3.620484831402494,2.2544643681848155,1821,45,22.92088430620649,51.14829969757624
3.64302372697373,2.2544418288408172,1821,45,22.92088430620649,51.14829969757624
3.665562397207896,2.2544192897221604,1821,45,22.92088430620649,51.14829969757624
3.6881008421073296,2.2543967508288434,1821,45,22.92088430620649,51.14829969757624
3.7106390616743616,2.254374212160863,1821,45,22.92088430620649,51.14829969757624
3.733177055911317,2.2543516737182174,1821,45,22.92088430620649,51.14829969757624
3.7557148248205143,2.254329135500904,1821,45,22.92088430620649,51.14829969757624
3.778252368404268,2.254306597508921,1821,45,22.92088430620649,51.14829969757624
3.800789686664888,2.254284059742266,1821,45,22.92088430620649,51.14829969757624
3.823326779604678,2.254261522200936,1821,45,22.92088430620649,51.14829969757624
3.8458636472259395,2.254238984884929,1821,45,22.92088430620649,51.14829969757624
3.86840028953097,2.254216447794243,1821,45,22.92088430620649,51.14829969757624
3.8909367065220626,2.2541939109288753,1821,45,22.92088430620649,51.14829969757624
3.913472898201508,2.254171374288824,1821,45,22.92088430620649,51.14829969757624
3.9360088645715936,2.254148837874087,1821,45,22.92088430620649,51.14829969757624
3.958544605634605,2.254126301684661,1821,45,22.92088430620649,51.14829969757624
3.981080121392824,2.2541037657205445,1821,45,22.92088430620649,51.14829969757624
4.00361541184853,2.254081229981735,1821,45,22.92088430620649,51.14829969757624
4.026150477004003,2.2540586944682306,1821,45,22.92088430620649,51.14829969757624
4.048685316861516,2.2540361591800284,1821,45,22.92088430620649,51.14829969757624
4.071219931423346,2.2540136241171265,1821,45,22.92088430620649,51.14829969757624
4.093754320691763,2.2539910892795225,1821,45,22.92088430620649,51.14829969757624
4.116288484669039,2.253968554667214,1821,45,22.92088430620649,51.14829969757624
4.1388224233574435,2.2539460202801993,1821,45,22.92088430620649,51.14829969757624
4.161356136759244,2.253923486118475,1821,45,22.92088430620649,51.14829969757624
4.183889624876708,2.2539009521820406,1821,45,22.92088430620649,51.14829969757624
4.206422887712103,2.253878418470892,1821,45,22.92088430620649,51.14829969757624
4.228955925267689,2.253855884985028,1821,45,22.92088430620649,51.14829969757624
4.251488737545732,2.2538333517244458,1821,45,22.92088430620649,51.14829969757624
4.274021324548498,2.2538108186891437,1821,45,22.92088430620649,51.14829969757624
4.2965536862782425,2.2537882858791187,1821,45,22.92088430620649,51.14829969757624
4.319085822737232,2.2537657532943696,1821,45,22.92088430620649,51.14829969757624
4.341617733927725,2.253743220934893,1821,45,22.92088430620649,51.14829969757624
4.364149419851981,2.253720688800687,1821,45,22.92088430620649,51.14829969757624
4.38668088051226,2.25369815689175,1821,45,22.92088430620649,51.14829969757624
4.40921211591082,2.253675625208079,1821,45,22.92088430620649,51.14829969757624
4.431743126049919,2.253653093749672,1821,45,22.92088430620649,51.14829969757624
4.454273910931815,2.2536305625165265,1821,45,22.92088430620649,51.14829969757624
4.476804470558767,2.2536080315086404,1821,45,22.92088430620649,51.14829969757624
4.499334804933029,2.253585500726012,1821,45,22.92088430620649,51.14829969757624
4.521864914056857,2.253562970168638,1821,45,22.92088430620649,51.14829969757624
4.544394797932508,2.2535404398365166,1821,45,22.92088430620649,51.14829969757624
4.56692445656224,2.253517909729646,1821,45,22.92088430620649,51.14829969757624
4.589453889948304,2.2534953798480233,1821,45,22.92088430620649,51.14829969757624
4.61198309809296,2.253472850191647,1821,45,22.92088430620649,51.14829969757624
4.634512080998459,2.2534503207605137,1821,45,22.92088430620649,51.14829969757624
4.657040838667057,2.2534277915546217,1821,45,22.92088430620649,51.14829969757624
4.679569371101007,2.253405262573969,1821,45,22.92088430620649,51.14829969757624
4.702097678302565,2.2533827338185537,1821,45,22.92088430620649,51.14829969757624
4.724625760273984,2.2533602052883728,1821,45,22.92088430620649,51.14829969757624
4.747153617017519,2.2533376769834237,1821,45,22.92088430620649,51.14829969757624
4.76968124853542,2.253315148903705,1821,45,22.92088430620649,51.14829969757624
4.792208654829944,2.253292621049215,1821,45,22.92088430620649,51.14829969757624
4.814735835903343,2.2532700934199497,1821,45,22.92088430620649,51.14829969757624
4.83726279175787,2.253247566015908,1821,45,22.92088430620649,51.14829969757624
4.859789522395778,2.2532250388370874,1821,45,22.92088430620649,51.14829969757624
4.8823160278193205,2.2532025118834853,1821,45,22.92088430620649,51.14829969757624
4.904842308030749,2.2531799851551,1821,45,22.92088430620649,51.14829969757624
4.9273683630323175,2.253157458651929,1821,45,22.92088430620649,51.14829969757624
4.949894192826278,2.2531349323739707,1821,45,22.92088430620649,51.14829969757624
4.972419797414882,2.253112406321222,1821,45,22.92088430620649,51.14829969757624
4.994945176800384,2.2530898804936803,1821,45,22.92088430620649,51.14829969757624
5.017470330985034,2.2530673548913445,1821,45,22.92088430620649,51.14829969757624
5.039995259971085,2.2530448295142116,1821,45,22.92088430620649,51.14829969757624
5.06251996376079,2.2530223043622795,1821,45,22.92088430620649,51.14829969757624
5.085044442356399,2.252999779435546,1821,45,22.92088430620649,51.14829969757624
5.107568695760166,2.2529772547340086,1821,45,22.92088430620649,51.14829969757624
5.13009272397434,2.2529547302576654,1821,45,22.92088430620649,51.14829969757624
5.152616527001176,2.252932206006514,1821,45,22.92088430620649,51.14829969757624
5.175140104842925,2.2529096819805523,1821,45,22.92088430620649,51.14829969757624
5.197663457501839,2.252887158179778,1821,45,22.92088430620649,51.14829969757624
5.220186584980168,2.2528646346041885,1821,45,22.92088430620649,51.14829969757624
5.242709487280164,2.252842111253782,1821,45,22.92088430620649,51.14829969757624
5.265232164404081,2.252819588128556,1821,45,22.92088430620649,51.14829969757624
5.287754616354166,2.2527970652285085,1821,45,22.92088430620649,51.14829969757624
5.310276843132675,2.2527745425536367,1821,45,22.92088430620649,51.14829969757624
5.332798844741858,2.252752020103939,1821,45,22.92088430620649,51.14829969757624
5.355320621183965,2.252729497879413,1821,45,22.92088430620649,51.14829969757624
5.377842172461248,2.2527069758800558,1821,45,22.92088430620649,51.14829969757624
5.400363498575959,2.252684454105866,1821,45,22.92088430620649,51.14829969757624
5.422884599530349,2.252661932556841,1821,45,22.92088430620649,51.14829969757624
5.4454054753266705,2.2526394112329786,1821,45,22.92088430620649,51.14829969757624
5.46792612596717,2.2526168901342762,1821,45,22.92088430620649,51.14829969757624
