Vout,Iout,Irradiance,Temperature,MaxVoltage,MaxPower
6.059941731329507e-06,0.001212,1,31,0.21965765621686686,0.00021797993015414157
1.81797131399304e-05,0.001212,1,31,0.21965765621686686,0.00021797993015414157
3.0299238156618476e-05,0.0012119938188582687,1,31,0.21965765621686686,0.00021797993015414157
4.2418472763560104e-05,0.00121198169908686,1,31,0.21965765621686686,0.00021797993015414157
5.4537402574963596e-05,0.0012119695795624614,1,31,0.21965765621686686,0.00021797993015414157
6.665604172224914e-05,0.0012119574603290666,1,31,0.21965765621686686,0.00021797993015414157
7.877440325003917e-05,0.001211945341400467,1,31,0.21965765621686686,0.00021797993015414157
9.089249919950981e-05,0.0012119332227625316,1,31,0.21965765621686686,0.00021797993015414157
0.00010301034068546345,0.0012119211044022157,1,31,0.21965765621686686,0.00021797993015414157
0.00011512793796760521,0.0012119089863074782,1,31,0.21965765621686686,0.00021797993015414157
0.00012724530051633556,0.001211896868467204,1,31,0.21965765621686686,0.00021797993015414157
0.00013936243707348076,0.0012118847508711338,1,31,0.21965765621686686,0.00021797993015414157
0.00015147935570835022,0.0012118726335097968,1,31,0.21965765621686686,0.00021797993015414157
0.00016359606386948133,0.0012118605163744514,1,31,0.21965765621686686,0.00021797993015414157
0.0001757125684324024,0.0012118483994570282,1,31,0.21965765621686686,0.00021797993015414157
0.00018782887574372105,0.0012118362827500788,1,31,0.21965765621686686,0.00021797993015414157
0.00019994499166181996,0.0012118241662467276,1,31,0.21965765621686686,0.00021797993015414157
0.00021206092159442184,0.001211812049940628,1,31,0.21965765621686686,0.00021797993015414157
0.0002241766705332641,0.0012117999338259215,1,31,0.21965765621686686,0.00021797993015414157
0.0002362922430861049,0.0012117878178972005,1,31,0.21965765621686686,0.00021797993015414157
0.0002484076435062675,0.0012117757021494733,1,31,0.21965765621686686,0.00021797993015414157
0.00026052287571991104,0.001211763586578132,1,31,0.21965765621686686,0.00021797993015414157
0.0002726379433512029,0.0012117514711789234,1,31,0.21965765621686686,0.00021797993015414157
0.0002847528497455545,0.0012117393559479214,1,31,0.21965765621686686,0.00021797993015414157
0.00029686759799106923,0.0012117272408815017,1,31,0.21965765621686686,0.00021797993015414157
0.00030898219093834,0.0012117151259763187,1,31,0.21965765621686686,0.00021797993015414157
0.0003210966312187239,0.0012117030112292848,1,31,0.21965765621686686,0.00021797993015414157
0.0003332109212612105,0.001211690896637549,1,31,0.21965765621686686,0.00021797993015414157
0.0003453250633079919,0.0012116787821984801,1,31,0.21965765621686686,0.00021797993015414157
0.000357439059428836,0.0012116666679096492,1,31,0.21965765621686686,0.00021797993015414157
0.00036955291153435244,0.0012116545537688137,1,31,0.21965765621686686,0.00021797993015414157
0.0003816666213882386,0.0012116424397739043,1,31,0.21965765621686686,0.00021797993015414157
0.0003937801906185835,0.0012116303259230102,1,31,0.21965765621686686,0.00021797993015414157
0.0004058936207283018,0.0012116182122143678,1,31,0.21965765621686686,0.00021797993015414157
0.0004180069131047643,0.0012116060986463487,1,31,0.21965765621686686,0.00021797993015414157
0.0004301200690286887,0.0012115939852174505,1,31,0.21965765621686686,0.00021797993015414157
0.0004422330896823452,0.0012115818719262853,1,31,0.21965765621686686,0.00021797993015414157
0.0004543459761571316,0.0012115697587715727,1,31,0.21965765621686686,0.00021797993015414157
0.00046645872946056503,0.0012115576457521304,1,31,0.21965765621686686,0.00021797993015414157
0.0004785713505227356,0.001211545532866867,1,31,0.21965765621686686,0.00021797993015414157
0.0004906838402022641,0.0012115334201147749,1,31,0.21965765621686686,0.00021797993015414157
0.0005027961992918009,0.001211521307494924,1,31,0.21965765621686686,0.00021797993015414157
0.0005149084285231017,0.0012115091950064558,1,31,0.21965765621686686,0.00021797993015414157
0.0005270205285717127,0.0012114970826485774,1,31,0.21965765621686686,0.00021797993015414157
0.0005391325000612959,0.0012114849704205574,1,31,0.21965765621686686,0.00021797993015414157
0.0005512443435676207,0.00121147285832172,1,31,0.21965765621686686,0.00021797993015414157
0.0005633560596222495,0.0012114607463514417,1,31,0.21965765621686686,0.00021797993015414157
0.0005754676487159377,0.0012114486345091466,1,31,0.21965765621686686,0.00021797993015414157
0.0005875791113017755,0.001211436522794303,1,31,0.21965765621686686,0.00021797993015414157
0.0005996904477980837,0.0012114244112064205,1,31,0.21965765621686686,0.00021797993015414157
0.0006118016585910906,0.0012114122997450459,1,31,0.21965765621686686,0.00021797993015414157
0.0006239127440374004,0.0012114001884097607,1,31,0.21965765621686686,0.00021797993015414157
0.0006360237044662726,0.0012113880772001788,1,31,0.21965765621686686,0.00021797993015414157
0.0006481345401817266,0.0012113759661159438,1,31,0.21965765621686686,0.00021797993015414157
0.0006602452514644827,0.001211363855156726,1,31,0.21965765621686686,0.00021797993015414157
0.0006723558385737553,0.0012113517443222215,1,31,0.21965765621686686,0.00021797993015414157
0.000684466301748908,0.00121133963361215,1,31,0.21965765621686686,0.00021797993015414157
0.0006965766412109801,0.0012113275230262518,1,31,0.21965765621686686,0.00021797993015414157
0.0007086868571640969,0.0012113154125642878,1,31,0.21965765621686686,0.00021797993015414157
0.0007207969497967712,0.0012113033022260367,1,31,0.21965765621686686,0.00021797993015414157
0.0007329069192831048,0.0012112911920112946,1,31,0.21965765621686686,0.00021797993015414157
0.0007450167657838963,0.001211279081919873,1,31,0.21965765621686686,0.00021797993015414157
0.0007571264894476656,0.0012112669719515977,1,31,0.21965765621686686,0.00021797993015414157
0.0007692360904115987,0.001211254862106308,1,31,0.21965765621686686,0.00021797993015414157
0.0007813455688024188,0.001211242752383855,1,31,0.21965765621686686,0.00021797993015414157
0.0007934549247371927,0.0012112306427841022,1,31,0.21965765621686686,0.00021797993015414157
0.0008055641583240723,0.0012112185333069223,1,31,0.21965765621686686,0.00021797993015414157
0.0008176732696629817,0.0012112064239521985,1,31,0.21965765621686686,0.00021797993015414157
0.0008297822588462493,0.0012111943147198225,1,31,0.21965765621686686,0.00021797993015414157
0.0008418911259591934,0.0012111822056096945,1,31,0.21965765621686686,0.00021797993015414157
0.0008539998710806604,0.0012111700966217223,1,31,0.21965765621686686,0.00021797993015414157
0.0008661084942835234,0.0012111579877558203,1,31,0.21965765621686686,0.00021797993015414157
0.0008782169956351415,0.0012111458790119095,1,31,0.21965765621686686,0.00021797993015414157
0.0008903253751977846,0.0012111337703899177,1,31,0.21965765621686686,0.00021797993015414157
0.0009024336330290239,0.0012111216618897768,1,31,0.21965765621686686,0.00021797993015414157
0.0009145417691820947,0.0012111095535114252,1,31,0.21965765621686686,0.00021797993015414157
0.0009266497837062293,0.0012110974452548048,1,31,0.21965765621686686,0.00021797993015414157
0.0009387576766469647,0.0012110853371198626,1,31,0.21965765621686686,0.00021797993015414157
0.0009508654480464279,0.0012110732291065493,1,31,0.21965765621686686,0.00021797993015414157
0.000962973097943597,0.0012110611212148193,1,31,0.21965765621686686,0.00021797993015414157
0.0009750806263745448,0.0012110490134446307,1,31,0.21965765621686686,0.00021797993015414157
0.0009871880333726614,0.0012110369057959443,1,31,0.21965765621686686,0.00021797993015414157
0.0009992953189688607,0.0012110247982687241,1,31,0.21965765621686686,0.00021797993015414157
0.001011402483191772,0.0012110126908629368,1,31,0.21965765621686686,0.00021797993015414157
0.0010235095260679138,0.0012110005835785512,1,31,0.21965765621686686,0.00021797993015414157
0.001035616447621858,0.001210988476415539,1,31,0.21965765621686686,0.00021797993015414157
0.0010477232478763787,0.0012109763693738736,1,31,0.21965765621686686,0.00021797993015414157
0.0010598299268525912,0.0012109642624535304,1,31,0.21965765621686686,0.00021797993015414157
0.0010719364845700788,0.0012109521556544866,1,31,0.21965765621686686,0.00021797993015414157
0.0010840429210470116,0.001210940048976721,1,31,0.21965765621686686,0.00021797993015414157
0.0010961492363002541,0.0012109279424202142,1,31,0.21965765621686686,0.00021797993015414157
0.001108255430345467,0.001210915835984948,1,31,0.21965765621686686,0.00021797993015414157
0.0011203615031971988,0.0012109037296709054,1,31,0.21965765621686686,0.00021797993015414157
0.001132467454868972,0.001210891623478071,1,31,0.21965765621686686,0.00021797993015414157
0.001144573285373361,0.0012108795174064298,1,31,0.21965765621686686,0.00021797993015414157
0.0011566789947220664,0.0012108674114559687,1,31,0.21965765621686686,0.00021797993015414157
0.0011687845829259822,0.0012108553056266748,1,31,0.21965765621686686,0.00021797993015414157
0.0011808900499952557,0.0012108431999185367,1,31,0.21965765621686686,0.00021797993015414157
0.0011929953959393484,0.0012108310943315433,1,31,0.21965765621686686,0.00021797993015414157
0.0012051006207670846,0.0012108189888656847,1,31,0.21965765621686686,0.00021797993015414157
0.0012172057244867053,0.001210806883520951,1,31,0.21965765621686686,0.00021797993015414157
0.0012293107071059087,0.001210794778297334,1,31,0.21965765621686686,0.00021797993015414157
0.0012414155686318947,0.0012107826731948248,1,31,0.21965765621686686,0.00021797993015414157
0.0012535203090714019,0.0012107705682134163,1,31,0.21965765621686686,0.00021797993015414157
0.0012656249284307432,0.0012107584633531008,1,31,0.21965765621686686,0.00021797993015414157
0.0012777294267158398,0.0012107463586138718,1,31,0.21965765621686686,0.00021797993015414157
0.0012898338039322495,0.0012107342539957229,1,31,0.21965765621686686,0.00021797993015414157
0.0013019380600851956,0.0012107221494986483,1,31,0.21965765621686686,0.00021797993015414157
0.0013140421951795935,0.0012107100451226424,1,31,0.21965765621686686,0.00021797993015414157
0.0013261462092200723,0.0012106979408676999,1,31,0.21965765621686686,0.00021797993015414157
0.0013382501022109992,0.0012106858367338159,1,31,0.21965765621686686,0.00021797993015414157
0.001350353874156497,0.0012106737327209859,1,31,0.21965765621686686,0.00021797993015414157
0.0013624575250604657,0.0012106616288292053,1,31,0.21965765621686686,0.00021797993015414157
0.0013745610549265978,0.0012106495250584703,1,31,0.21965765621686686,0.00021797993015414157
0.0013866644637583947,0.0012106374214087767,1,31,0.21965765621686686,0.00021797993015414157
0.0013987677515591812,0.0012106253178801208,1,31,0.21965765621686686,0.00021797993015414157
0.0014108709183321198,0.0012106132144724994,1,31,0.21965765621686686,0.00021797993015414157
0.0014229739640802227,0.001210601111185909,1,31,0.21965765621686686,0.00021797993015414157
0.0014350768888063636,0.0012105890080203463,1,31,0.21965765621686686,0.00021797993015414157
0.0014471796925132872,0.0012105769049758086,1,31,0.21965765621686686,0.00021797993015414157
0.0014592823752036213,0.0012105648020522928,1,31,0.21965765621686686,0.00021797993015414157
0.0014713849368798838,0.0012105526992497962,1,31,0.21965765621686686,0.00021797993015414157
0.0014834873775444921,0.0012105405965683162,1,31,0.21965765621686686,0.00021797993015414157
0.001495589697199771,0.0012105284940078502,1,31,0.21965765621686686,0.00021797993015414157
0.0015076918958479588,0.0012105163915683958,1,31,0.21965765621686686,0.00021797993015414157
0.0015197939734912158,0.0012105042892499509,1,31,0.21965765621686686,0.00021797993015414157
0.001531895930131628,0.0012104921870525129,1,31,0.21965765621686686,0.00021797993015414157
0.001543997765771214,0.0012104800849760799,1,31,0.21965765621686686,0.00021797993015414157
0.0015560994804119312,0.0012104679830206497,1,31,0.21965765621686686,0.00021797993015414157
0.0015682010740556782,0.0012104558811862202,1,31,0.21965765621686686,0.00021797993015414157
0.0015803025467043008,0.0012104437794727898,1,31,0.21965765621686686,0.00021797993015414157
0.0015924038983595975,0.0012104316778803561,1,31,0.21965765621686686,0.00021797993015414157
0.0016045051290233191,0.0012104195764089177,1,31,0.21965765621686686,0.00021797993015414157
0.0016166062386971762,0.0012104074750584725,1,31,0.21965765621686686,0.00021797993015414157
0.0016287072273828405,0.001210395373829019,1,31,0.21965765621686686,0.00021797993015414157
0.0016408080950819474,0.0012103832727205553,1,31,0.21965765621686686,0.00021797993015414157
0.001652908841796101,0.0012103711717330798,1,31,0.21965765621686686,0.00021797993015414157
0.0016650094675268738,0.0012103590708665909,1,31,0.21965765621686686,0.00021797993015414157
0.001677109972275811,0.0012103469701210867,1,31,0.21965765621686686,0.00021797993015414157
0.0016892103560444314,0.001210334869496566,1,31,0.21965765621686686,0.00021797993015414157
0.0017013106188342305,0.0012103227689930272,1,31,0.21965765621686686,0.00021797993015414157
0.0017134107606466822,0.0012103106686104687,1,31,0.21965765621686686,0.00021797993015414157
0.0017255107814832386,0.0012102985683488888,1,31,0.21965765621686686,0.00021797993015414157
0.0017376106813453344,0.0012102864682082865,1,31,0.21965765621686686,0.00021797993015414157
0.0017497104602343862,0.0012102743681886598,1,31,0.21965765621686686,0.00021797993015414157
0.0017618101181517956,0.0012102622682900078,1,31,0.21965765621686686,0.00021797993015414157
0.0017739096550989486,0.0012102501685123288,1,31,0.21965765621686686,0.00021797993015414157
0.0017860090710772173,0.0012102380688556213,1,31,0.21965765621686686,0.00021797993015414157
0.0017981083660879621,0.0012102259693198842,1,31,0.21965765621686686,0.00021797993015414157
0.0018102075401325312,0.001210213869905116,1,31,0.21965765621686686,0.00021797993015414157
0.0018223065932122624,0.0012102017706113152,1,31,0.21965765621686686,0.00021797993015414157
0.0018344055253284842,0.0012101896714384805,1,31,0.21965765621686686,0.00021797993015414157
0.0018465043364825145,0.0012101775723866105,1,31,0.21965765621686686,0.00021797993015414157
0.0018586030266756635,0.0012101654734557044,1,31,0.21965765621686686,0.00021797993015414157
0.0018707015959092339,0.0012101533746457602,1,31,0.21965765621686686,0.00021797993015414157
0.0018828000441845209,0.001210141275956777,1,31,0.21965765621686686,0.00021797993015414157
0.0018948983715028136,0.0012101291773887533,1,31,0.21965765621686686,0.00021797993015414157
0.0019069965778653946,0.001210117078941688,1,31,0.21965765621686686,0.00021797993015414157
0.00191909466327354,0.0012101049806155794,1,31,0.21965765621686686,0.00021797993015414157
0.0019311926277285226,0.0012100928824104267,1,31,0.21965765621686686,0.00021797993015414157
0.0019432904712316083,0.0012100807843262284,1,31,0.21965765621686686,0.00021797993015414157
0.0019553881937840597,0.0012100686863629833,1,31,0.21965765621686686,0.00021797993015414157
0.0019674857953871356,0.00121005658852069,1,31,0.21965765621686686,0.00021797993015414157
0.0019795832760420903,0.0012100444907993473,1,31,0.21965765621686686,0.00021797993015414157
0.0019916806357501747,0.001210032393198954,1,31,0.21965765621686686,0.00021797993015414157
0.0020037778745126368,0.0012100202957195088,1,31,0.21965765621686686,0.00021797993015414157
0.002015874992330721,0.0012100081983610104,1,31,0.21965765621686686,0.00021797993015414157
0.00202797198920567,0.0012099961011234578,1,31,0.21965765621686686,0.00021797993015414157
0.0020400688651387227,0.0012099840040068494,1,31,0.21965765621686686,0.00021797993015414157
0.0020521656201311174,0.0012099719070111843,1,31,0.21965765621686686,0.00021797993015414157
0.0020642622541840877,0.0012099598101364608,1,31,0.21965765621686686,0.00021797993015414157
0.002076358767298867,0.001209947713382678,1,31,0.21965765621686686,0.00021797993015414157
0.002088455159476687,0.0012099356167498349,1,31,0.21965765621686686,0.00021797993015414157
0.002100551430718776,0.0012099235202379297,1,31,0.21965765621686686,0.00021797993015414157
0.002112647581026364,0.0012099114238469616,1,31,0.21965765621686686,0.00021797993015414157
0.0021247436104006746,0.001209899327576929,1,31,0.21965765621686686,0.00021797993015414157
0.002136839518842935,0.0012098872314278313,1,31,0.21965765621686686,0.00021797993015414157
0.002148935306354368,0.0012098751353996665,1,31,0.21965765621686686,0.00021797993015414157
0.002161030972936196,0.0012098630394924339,1,31,0.21965765621686686,0.00021797993015414157
0.002173126518589642,0.001209850943706132,1,31,0.21965765621686686,0.00021797993015414157
0.002185221943315925,0.0012098388480407598,1,31,0.21965765621686686,0.00021797993015414157
0.002197317247116266,0.001209826752496316,1,31,0.21965765621686686,0.00021797993015414157
0.0022094124299918833,0.0012098146570727992,1,31,0.21965765621686686,0.00021797993015414157
0.0022215074919439957,0.0012098025617702085,1,31,0.21965765621686686,0.00021797993015414157
0.0022336024329738186,0.0012097904665885424,1,31,0.21965765621686686,0.00021797993015414157
0.0022456972530825715,0.0012097783715277997,1,31,0.21965765621686686,0.00021797993015414157
0.002257791952271468,0.0012097662765879794,1,31,0.21965765621686686,0.00021797993015414157
0.002269886530541725,0.0012097541817690802,1,31,0.21965765621686686,0.00021797993015414157
0.0022819809878945573,0.0012097420870711007,1,31,0.21965765621686686,0.00021797993015414157
0.0022940753243311796,0.00120972999249404,1,31,0.21965765621686686,0.00021797993015414157
0.0023061695398528055,0.0012097178980378968,1,31,0.21965765621686686,0.00021797993015414157
0.0023182636344606486,0.0012097058037026695,1,31,0.21965765621686686,0.00021797993015414157
0.002330357608155923,0.0012096937094883574,1,31,0.21965765621686686,0.00021797993015414157
0.0023424514609398416,0.001209681615394959,1,31,0.21965765621686686,0.00021797993015414157
0.0023545451928136158,0.0012096695214224731,1,31,0.21965765621686686,0.00021797993015414157
0.002366638803778459,0.0012096574275708987,1,31,0.21965765621686686,0.00021797993015414157
0.002378732293835584,0.0012096453338402342,1,31,0.21965765621686686,0.00021797993015414157
0.0023908256629862007,0.0012096332402304788,1,31,0.21965765621686686,0.00021797993015414157
0.002402918911231521,0.001209621146741631,1,31,0.21965765621686686,0.00021797993015414157
0.0024150120385727576,0.0012096090533736897,1,31,0.21965765621686686,0.00021797993015414157
0.00242710504501112,0.0012095969601266538,1,31,0.21965765621686686,0.00021797993015414157
0.00243919793054782,0.0012095848670005218,1,31,0.21965765621686686,0.00021797993015414157
0.0024512906951840684,0.001209572773995293,1,31,0.21965765621686686,0.00021797993015414157
0.0024633833389210756,0.0012095606811109655,1,31,0.21965765621686686,0.00021797993015414157
0.002475475861760052,0.0012095485883475384,1,31,0.21965765621686686,0.00021797993015414157
0.002487568263702208,0.0012095364957050109,1,31,0.21965765621686686,0.00021797993015414157
0.0024996605447487525,0.001209524403183381,1,31,0.21965765621686686,0.00021797993015414157
0.002511752704900897,0.0012095123107826481,1,31,0.21965765621686686,0.00021797993015414157
0.0025238447441598513,0.001209500218502811,1,31,0.21965765621686686,0.00021797993015414157
0.0025359366625268246,0.001209488126343868,1,31,0.21965765621686686,0.00021797993015414157
0.002548028460003026,0.0012094760343058183,1,31,0.21965765621686686,0.00021797993015414157
0.0025601201365896666,0.0012094639423886604,1,31,0.21965765621686686,0.00021797993015414157
0.0025722116922879553,0.0012094518505923935,1,31,0.21965765621686686,0.00021797993015414157
0.0025843031270991017,0.0012094397589170161,1,31,0.21965765621686686,0.00021797993015414157
0.002596394441024314,0.001209427667362527,1,31,0.21965765621686686,0.00021797993015414157
