Vout,Iout,Irradiance,Temperature,MaxVoltage,MaxPower
0.0008121921904597072,0.16244,131,45,22.77751073273908,3.1774383318653014
0.00243656155317681,0.16244,131,45,22.77751073273908,3.1774383318653014
0.004060897892872199,0.16243917156380955,131,45,22.77751073273908,3.1774383318653014
0.005685195309993981,0.16243754719444684,131,45,22.77751073273908,3.1774383318653014
0.007309451876466244,0.16243592285818997,131,45,22.77751073273908,3.1774383318653014
0.008933669486272404,0.16243429856093528,131,45,22.77751073273908,3.1774383318653014
0.010557849887736274,0.16243267430453126,131,45,22.77751073273908,3.1774383318653014
0.01218199469469338,0.16243105008708386,131,45,22.77751073273908,3.1774383318653014
0.013806105396820695,0.16242942590684484,131,45,22.77751073273908,3.1774383318653014
0.015430183369189594,0.16242780176220029,131,45,22.77751073273908,3.1774383318653014
0.017054229881083783,0.1624261776516606,131,45,22.77751073273908,3.1774383318653014
0.018678246104138787,0.16242455357385063,131,45,22.77751073273908,3.1774383318653014
0.02030223311985512,0.16242292952750115,131,45,22.77751073273908,3.1774383318653014
0.021926191926533455,0.16242130551144052,131,45,22.77751073273908,3.1774383318653014
0.023550123445676117,0.1624196815245872,131,45,22.77751073273908,3.1774383318653014
0.025174028527896082,0.1624180575659429,131,45,22.77751073273908,3.1774383318653014
0.026797907958371316,0.16241643363458616,131,45,22.77751073273908,3.1774383318653014
0.028421762461879444,0.16241480972966635,131,45,22.77751073273908,3.1774383318653014
0.03004559270744506,0.16241318585039827,131,45,22.77751073273908,3.1774383318653014
0.03166939931262944,0.16241156199605714,131,45,22.77751073273908,3.1774383318653014
0.03329318284749017,0.16240993816597396,131,45,22.77751073273908,3.1774383318653014
0.034916943838236264,0.16240831435953118,131,45,22.77751073273908,3.1774383318653014
0.03654068277060182,0.1624066905761587,131,45,22.77751073273908,3.1774383318653014
0.0381644000929603,0.16240506681533032,131,45,22.77751073273908,3.1774383318653014
0.03978809621919909,0.16240344307656035,131,45,22.77751073273908,3.1774383318653014
0.041411771531372904,0.16240181935940035,131,45,22.77751073273908,3.1774383318653014
0.043035426382153075,0.1624001956634365,131,45,22.77751073273908,3.1774383318653014
0.044659061097088316,0.1623985719882867,131,45,22.77751073273908,3.1774383318653014
0.04628267597669159,0.16239694833359827,131,45,22.77751073273908,3.1774383318653014
0.047906271298366436,0.16239532469904572,131,45,22.77751073273908,3.1774383318653014
0.04952984731818499,0.16239370108432846,131,45,22.77751073273908,3.1774383318653014
0.05115340427252927,0.16239207748916917,131,45,22.77751073273908,3.1774383318653014
0.052776942379606215,0.1623904539133117,131,45,22.77751073273908,3.1774383318653014
0.054400461840846,0.16238883035651971,131,45,22.77751073273908,3.1774383318653014
0.056023962842193,0.162387206818575,131,45,22.77751073273908,3.1774383318653014
0.05764744555529719,0.16238558329927613,131,45,22.77751073273908,3.1774383318653014
0.05927091013861399,0.16238395979843712,131,45,22.77751073273908,3.1774383318653014
0.060894356738419524,0.16238233631588636,131,45,22.77751073273908,3.1774383318653014
0.06251778548974768,0.1623807128514654,131,45,22.77751073273908,3.1774383318653014
0.0641411965172551,0.16237908940502796,131,45,22.77751073273908,3.1774383318653014
0.06576458993601962,0.16237746597643896,131,45,22.77751073273908,3.1774383318653014
0.06738796585227735,0.1623758425655738,131,45,22.77751073273908,3.1774383318653014
0.06901132436410284,0.1623742191723174,131,45,22.77751073273908,3.1774383318653014
0.07063466556203712,0.16237259579656346,131,45,22.77751073273908,3.1774383318653014
0.07225798952966742,0.16237097243821397,131,45,22.77751073273908,3.1774383318653014
0.07388129634416198,0.16236934909717837,131,45,22.77751073273908,3.1774383318653014
0.0755045860767642,0.16236772577337308,131,45,22.77751073273908,3.1774383318653014
0.07712785879324831,0.16236610246672092,131,45,22.77751073273908,3.1774383318653014
0.07875111455434028,0.16236447917715066,131,45,22.77751073273908,3.1774383318653014
0.0803743534161062,0.1623628559045965,131,45,22.77751073273908,3.1774383318653014
0.08199757543031086,0.16236123264899774,131,45,22.77751073273908,3.1774383318653014
0.0836207806447486,0.1623596094102983,131,45,22.77751073273908,3.1774383318653014
0.08524396910354895,0.16235798618844643,131,45,22.77751073273908,3.1774383318653014
0.08686714084745847,0.16235636298339431,131,45,22.77751073273908,3.1774383318653014
0.08849029591410114,0.16235473979509785,131,45,22.77751073273908,3.1774383318653014
0.0901134343382185,0.16235311662351623,131,45,22.77751073273908,3.1774383318653014
0.09173655615189164,0.1623514934686119,131,45,22.77751073273908,3.1774383318653014
0.09335966138474557,0.16234987033035012,131,45,22.77751073273908,3.1774383318653014
0.09498275006413853,0.16234824720869875,131,45,22.77751073273908,3.1774383318653014
0.09660582221533623,0.1623466241036282,131,45,22.77751073273908,3.1774383318653014
0.09822887786167286,0.16234500101511115,131,45,22.77751073273908,3.1774383318653014
0.09985191702469971,0.16234337794312226,131,45,22.77751073273908,3.1774383318653014
0.10147493972432241,0.16234175488763822,131,45,22.77751073273908,3.1774383318653014
0.10309794597892744,0.16234013184863752,131,45,22.77751073273908,3.1774383318653014
0.1047209358054991,0.16233850882610018,131,45,22.77751073273908,3.1774383318653014
0.10634390921972739,0.16233688582000788,131,45,22.77751073273908,3.1774383318653014
0.10796686623610753,0.1623352628303436,131,45,22.77751073273908,3.1774383318653014
0.109589806868032,0.1623336398570917,131,45,22.77751073273908,3.1774383318653014
0.11121273112787525,0.1623320169002376,131,45,22.77751073273908,3.1774383318653014
0.11283563902707215,0.16233039395976798,131,45,22.77751073273908,3.1774383318653014
0.11445853057619022,0.16232877103567045,131,45,22.77751073273908,3.1774383318653014
0.11608140578499639,0.16232714812793353,131,45,22.77751073273908,3.1774383318653014
0.11770426466251854,0.1623255252365467,131,45,22.77751073273908,3.1774383318653014
0.11932710721710249,0.16232390236150018,131,45,22.77751073273908,3.1774383318653014
0.1209499334564643,0.16232227950278497,131,45,22.77751073273908,3.1774383318653014
0.12257274338773894,0.16232065666039266,131,45,22.77751073273908,3.1774383318653014
0.12419553701752474,0.1623190338343156,131,45,22.77751073273908,3.1774383318653014
0.125818314351925,0.1623174110245466,131,45,22.77751073273908,3.1774383318653014
0.12744107539658567,0.1623157882310791,131,45,22.77751073273908,3.1774383318653014
0.12906382015673099,0.16231416545390698,131,45,22.77751073273908,3.1774383318653014
0.13068654863719564,0.1623125426930246,131,45,22.77751073273908,3.1774383318653014
0.13230926084245473,0.16231091994842672,131,45,22.77751073273908,3.1774383318653014
0.13393195677665162,0.16230929722010853,131,45,22.77751073273908,3.1774383318653014
0.13555463644362334,0.16230767450806555,131,45,22.77751073273908,3.1774383318653014
0.13717729984692403,0.16230605181229363,131,45,22.77751073273908,3.1774383318653014
0.13879994698984705,0.16230442913278892,131,45,22.77751073273908,3.1774383318653014
0.1404225778754447,0.1623028064695479,131,45,22.77751073273908,3.1774383318653014
0.14204519250654699,0.16230118382256725,131,45,22.77751073273908,3.1774383318653014
0.14366779088577858,0.1622995611918439,131,45,22.77751073273908,3.1774383318653014
0.1452903730155747,0.16229793857737507,131,45,22.77751073273908,3.1774383318653014
0.1469129388981958,0.1622963159791581,131,45,22.77751073273908,3.1774383318653014
0.1485354885357407,0.16229469339719058,131,45,22.77751073273908,3.1774383318653014
0.15015802193015926,0.1622930708314702,131,45,22.77751073273908,3.1774383318653014
0.15178053908326392,0.16229144828199493,131,45,22.77751073273908,3.1774383318653014
0.15340303999673996,0.16228982574876274,131,45,22.77751073273908,3.1774383318653014
0.15502552467215558,0.1622882032317719,131,45,22.77751073273908,3.1774383318653014
0.15664799311097077,0.16228658073102067,131,45,22.77751073273908,3.1774383318653014
0.15827044531454573,0.16228495824650752,131,45,22.77751073273908,3.1774383318653014
0.1598928812841483,0.16228333577823095,131,45,22.77751073273908,3.1774383318653014
0.16151530102096143,0.16228171332618962,131,45,22.77751073273908,3.1774383318653014
0.1631377045260895,0.16228009089038228,131,45,22.77751073273908,3.1774383318653014
0.16476009180056428,0.1622784684708077,131,45,22.77751073273908,3.1774383318653014
0.16638246284535071,0.16227684606746481,131,45,22.77751073273908,3.1774383318653014
0.16800481766135192,0.16227522368035258,131,45,22.77751073273908,3.1774383318653014
0.16962715624941416,0.16227360130947005,131,45,22.77751073273908,3.1774383318653014
0.17124947861033088,0.1622719789548163,131,45,22.77751073273908,3.1774383318653014
0.17287178474484705,0.16227035661639044,131,45,22.77751073273908,3.1774383318653014
0.17449407465366276,0.16226873429419178,131,45,22.77751073273908,3.1774383318653014
0.17611634833743667,0.1622671119882195,131,45,22.77751073273908,3.1774383318653014
0.17773860579678935,0.1622654896984729,131,45,22.77751073273908,3.1774383318653014
0.17936084703230595,0.16226386742495136,131,45,22.77751073273908,3.1774383318653014
0.1809830720445392,0.16226224516765425,131,45,22.77751073273908,3.1774383318653014
0.18260528083401176,0.16226062292658094,131,45,22.77751073273908,3.1774383318653014
0.18422747340121845,0.16225900070173094,131,45,22.77751073273908,3.1774383318653014
0.18584964974662857,0.1622573784931037,131,45,22.77751073273908,3.1774383318653014
0.1874718098706878,0.16225575630069872,131,45,22.77751073273908,3.1774383318653014
0.18909395377382,0.16225413412451553,131,45,22.77751073273908,3.1774383318653014
0.1907160814564288,0.16225251196455368,131,45,22.77751073273908,3.1774383318653014
0.19233819291889934,0.16225088982081276,131,45,22.77751073273908,3.1774383318653014
0.19396028816159958,0.16224926769329237,131,45,22.77751073273908,3.1774383318653014
0.19558236718488167,0.16224764558199212,131,45,22.77751073273908,3.1774383318653014
0.19720442998908308,0.16224602348691164,131,45,22.77751073273908,3.1774383318653014
0.19882647657452773,0.16224440140805055,131,45,22.77751073273908,3.1774383318653014
0.20044850694152733,0.16224277934540857,131,45,22.77751073273908,3.1774383318653014
0.20207052109038182,0.16224115729898533,131,45,22.77751073273908,3.1774383318653014
0.20369251902138066,0.16223953526878054,131,45,22.77751073273908,3.1774383318653014
0.20531450073480353,0.1622379132547939,131,45,22.77751073273908,3.1774383318653014
0.20693646623092102,0.1622362912570251,131,45,22.77751073273908,3.1774383318653014
0.20855841550999535,0.16223466927547386,131,45,22.77751073273908,3.1774383318653014
0.210180348572281,0.16223304731013996,131,45,22.77751073273908,3.1774383318653014
0.21180226541802552,0.16223142536102308,131,45,22.77751073273908,3.1774383318653014
0.21342416604746972,0.162229803428123,131,45,22.77751073273908,3.1774383318653014
0.21504605046084838,0.16222818151143945,131,45,22.77751073273908,3.1774383318653014
0.21666791865839075,0.16222655961097218,131,45,22.77751073273908,3.1774383318653014
0.21828977064032082,0.162224937726721,131,45,22.77751073273908,3.1774383318653014
0.2199116064068579,0.16222331585868566,131,45,22.77751073273908,3.1774383318653014
0.22153342595821685,0.1622216940068659,131,45,22.77751073273908,3.1774383318653014
0.22315522929460857,0.16222007217126155,131,45,22.77751073273908,3.1774383318653014
0.22477701641624004,0.16221845035187238,131,45,22.77751073273908,3.1774383318653014
0.22639878732331492,0.16221682854869818,131,45,22.77751073273908,3.1774383318653014
0.22802054201603356,0.16221520676173873,131,45,22.77751073273908,3.1774383318653014
0.2296422804945935,0.16221358499099384,131,45,22.77751073273908,3.1774383318653014
0.23126400275918943,0.16221196323646328,131,45,22.77751073273908,3.1774383318653014
0.23288570881001355,0.16221034149814692,131,45,22.77751073273908,3.1774383318653014
0.23450739864725587,0.16220871977604448,131,45,22.77751073273908,3.1774383318653014
0.23612907227110402,0.16220709807015585,131,45,22.77751073273908,3.1774383318653014
0.23775072968174388,0.16220547638048077,131,45,22.77751073273908,3.1774383318653014
0.2393723708793594,0.1622038547070191,131,45,22.77751073273908,3.1774383318653014
0.2409939958641328,0.1622022330497706,131,45,22.77751073273908,3.1774383318653014
0.24261560463624487,0.16220061140873518,131,45,22.77751073273908,3.1774383318653014
0.24423719719587492,0.16219898978391256,131,45,22.77751073273908,3.1774383318653014
0.24585877354320076,0.16219736817530261,131,45,22.77751073273908,3.1774383318653014
0.24748033367839933,0.16219574658290514,131,45,22.77751073273908,3.1774383318653014
0.24910187760164618,0.16219412500671998,131,45,22.77751073273908,3.1774383318653014
0.2507234053131158,0.16219250344674693,131,45,22.77751073273908,3.1774383318653014
0.2523449168129819,0.16219088190298586,131,45,22.77751073273908,3.1774383318653014
0.25396641210141707,0.16218926037543654,131,45,22.77751073273908,3.1774383318653014
0.2555878911785933,0.16218763886409882,131,45,22.77751073273908,3.1774383318653014
0.25720935404468176,0.16218601736897253,131,45,22.77751073273908,3.1774383318653014
0.2588308006998527,0.1621843958900575,131,45,22.77751073273908,3.1774383318653014
0.26045223114427624,0.16218277442735357,131,45,22.77751073273908,3.1774383318653014
0.2620736453781213,0.16218115298086055,131,45,22.77751073273908,3.1774383318653014
0.26369504340155664,0.1621795315505783,131,45,22.77751073273908,3.1774383318653014
0.2653164252147504,0.1621779101365066,131,45,22.77751073273908,3.1774383318653014
0.2669377908178703,0.16217628873864529,131,45,22.77751073273908,3.1774383318653014
0.2685591402110834,0.16217466735699423,131,45,22.77751073273908,3.1774383318653014
0.2701804733945567,0.16217304599155324,131,45,22.77751073273908,3.1774383318653014
0.27180179036845664,0.16217142464232218,131,45,22.77751073273908,3.1774383318653014
0.27342309113294927,0.16216980330930084,131,45,22.77751073273908,3.1774383318653014
0.27504437568820056,0.16216818199248909,131,45,22.77751073273908,3.1774383318653014
0.2766656440343759,0.16216656069188673,131,45,22.77751073273908,3.1774383318653014
0.2782868961716405,0.1621649394074936,131,45,22.77751073273908,3.1774383318653014
0.2799081321001595,0.16216331813930956,131,45,22.77751073273908,3.1774383318653014
0.28152935182009764,0.16216169688733442,131,45,22.77751073273908,3.1774383318653014
0.2831505553316195,0.16216007565156804,131,45,22.77751073273908,3.1774383318653014
0.2847717426348893,0.1621584544320102,131,45,22.77751073273908,3.1774383318653014
0.2863929137300715,0.1621568332286608,131,45,22.77751073273908,3.1774383318653014
0.28801406861732987,0.16215521204151967,131,45,22.77751073273908,3.1774383318653014
0.28963520729682846,0.16215359087058662,131,45,22.77751073273908,3.1774383318653014
0.2912563297687309,0.16215196971586146,131,45,22.77751073273908,3.1774383318653014
0.2928774360332008,0.1621503485773441,131,45,22.77751073273908,3.1774383318653014
0.29449852609040167,0.1621487274550343,131,45,22.77751073273908,3.1774383318653014
0.2961195999404967,0.16214710634893195,131,45,22.77751073273908,3.1774383318653014
0.2977406575836494,0.16214548525903685,131,45,22.77751073273908,3.1774383318653014
0.2993616990200228,0.16214386418534887,131,45,22.77751073273908,3.1774383318653014
0.3009827242497799,0.16214224312786782,131,45,22.77751073273908,3.1774383318653014
0.3026037332730839,0.16214062208659355,131,45,22.77751073273908,3.1774383318653014
0.3042247260900976,0.1621390010615259,131,45,22.77751073273908,3.1774383318653014
0.3058457027009838,0.1621373800526647,131,45,22.77751073273908,3.1774383318653014
0.3074666631059053,0.1621357590600098,131,45,22.77751073273908,3.1774383318653014
0.30908760730502494,0.162134138083561,131,45,22.77751073273908,3.1774383318653014
0.3107085352985052,0.1621325171233182,131,45,22.77751073273908,3.1774383318653014
0.3123294470865088,0.16213089617928117,131,45,22.77751073273908,3.1774383318653014
0.3139503426691983,0.1621292752514498,131,45,22.77751073273908,3.1774383318653014
0.31557122204673616,0.16212765433982387,131,45,22.77751073273908,3.1774383318653014
0.31719208521928505,0.16212603344440327,131,45,22.77751073273908,3.1774383318653014
0.3188129321870072,0.16212441256518784,131,45,22.77751073273908,3.1774383318653014
0.3204337629500651,0.16212279170217736,131,45,22.77751073273908,3.1774383318653014
0.3220545775086211,0.16212117085537173,131,45,22.77751073273908,3.1774383318653014
0.3236753758628376,0.16211955002477077,131,45,22.77751073273908,3.1774383318653014
0.3252961580128769,0.1621179292103743,131,45,22.77751073273908,3.1774383318653014
0.3269169239589013,0.16211630841218216,131,45,22.77751073273908,3.1774383318653014
0.3285376737010731,0.1621146876301942,131,45,22.77751073273908,3.1774383318653014
0.3301584072395544,0.16211306686441027,131,45,22.77751073273908,3.1774383318653014
0.3317791245745077,0.16211144611483017,131,45,22.77751073273908,3.1774383318653014
0.3333998257060949,0.16210982538145377,131,45,22.77751073273908,3.1774383318653014
0.3350205106344784,0.16210820466428089,131,45,22.77751073273908,3.1774383318653014
0.3366411793598202,0.16210658396331137,131,45,22.77751073273908,3.1774383318653014
0.3382618318822826,0.16210496327854507,131,45,22.77751073273908,3.1774383318653014
0.33988246820202783,0.16210334260998177,131,45,22.77751073273908,3.1774383318653014
0.34150308831921783,0.1621017219576214,131,45,22.77751073273908,3.1774383318653014
0.3431236922340148,0.1621001013214637,131,45,22.77751073273908,3.1774383318653014
0.3447442799465808,0.1620984807015086,131,45,22.77751073273908,3.1774383318653014
0.3463648514570779,0.16209686009775584,131,45,22.77751073273908,3.1774383318653014
0.34798540676566836,0.16209523951020535,131,45,22.77751073273908,3.1774383318653014
0.34960594587251403,0.1620936189388569,131,45,22.77751073273908,3.1774383318653014
0.3512264687777772,0.16209199838371038,131,45,22.77751073273908,3.1774383318653014
0.3528469754816197,0.1620903778447656,131,45,22.77751073273908,3.1774383318653014
0.3544674659842037,0.16208875732202238,131,45,22.77751073273908,3.1774383318653014
0.3560879402856913,0.1620871368154806,131,45,22.77751073273908,3.1774383318653014
0.35770839838624435,0.16208551632514007,131,45,22.77751073273908,3.1774383318653014
0.35932884028602513,0.16208389585100064,131,45,22.77751073273908,3.1774383318653014
0.3609492659851954,0.16208227539306214,131,45,22.77751073273908,3.1774383318653014
0.36256967548391744,0.1620806549513244,131,45,22.77751073273908,3.1774383318653014
0.364190068782353,0.16207903452578726,131,45,22.77751073273908,3.1774383318653014
0.3658104458806643,0.1620774141164506,131,45,22.77751073273908,3.1774383318653014
0.36743080677901313,0.16207579372331418,131,45,22.77751073273908,3.1774383318653014
0.3690511514775618,0.16207417334637791,131,45,22.77751073273908,3.1774383318653014
0.370671479976472,0.1620725529856416,131,45,22.77751073273908,3.1774383318653014
0.37229179227590586,0.16207093264110511,131,45,22.77751073273908,3.1774383318653014
0.37391208837602535,0.16206931231276822,131,45,22.77751073273908,3.1774383318653014
0.37553236827699255,0.16206769200063084,131,45,22.77751073273908,3.1774383318653014
0.3771526319789692,0.16206607170469275,131,45,22.77751073273908,3.1774383318653014
0.3787728794821174,0.16206445142495382,131,45,22.77751073273908,3.1774383318653014
0.3803931107865992,0.16206283116141387,131,45,22.77751073273908,3.1774383318653014
0.3820133258925766,0.16206121091407275,131,45,22.77751073273908,3.1774383318653014
