Vout,Iout,Irradiance,Temperature,MaxVoltage,MaxPower
0.0008030222786319363,0.160606,131,38,22.867841899700963,3.1498370896278924
0.002409051987253846,0.160606,131,38,22.867841899700963,3.1498370896278924
0.00401504904569461,0.16060518091712137,131,38,22.867841899700963,3.1498370896278924
0.005621007621010177,0.16060357488741275,131,38,22.867841899700963,3.1498370896278924
0.0072269258068932375,0.1606019688904362,131,38,22.867841899700963,3.1498370896278924
0.008832805475943523,0.1606003629320215,131,38,22.867841899700963,3.1498370896278924
0.010438648356745704,0.16059875701399623,131,38,22.867841899700963,3.1498370896278924
0.012044456044914581,0.16059715113448778,131,38,22.867841899700963,3.1498370896278924
0.013650230013308201,0.16059554529176756,131,38,22.867841899700963,3.1498370896278924
0.015255971621472937,0.16059393948423997,131,38,22.867841899700963,3.1498370896278924
0.01686168212436187,0.16059233371043216,131,38,22.867841899700963,3.1498370896278924
0.018467362680382383,0.16059072796898458,131,38,22.867841899700963,3.1498370896278924
0.020073014358824505,0.16058912225864228,131,38,22.867841899700963,3.1498370896278924
0.021678638146717756,0.16058751657824683,131,38,22.867841899700963,3.1498370896278924
0.023284234955160413,0.16058591092672894,131,38,22.867841899700963,3.1498370896278924
0.024889805625161767,0.1605843053031016,131,38,22.867841899700963,3.1498370896278924
0.026495350933034862,0.16058269970645375,131,38,22.867841899700963,3.1498370896278924
0.028100871595374353,0.16058109413594432,131,38,22.867841899700963,3.1498370896278924
0.029706368273651328,0.160579488590797,131,38,22.867841899700963,3.1498370896278924
0.03131184157845458,0.16057788307029522,131,38,22.867841899700963,3.1498370896278924
0.0329172920734056,0.1605762775737775,131,38,22.867841899700963,3.1498370896278924
0.0345227202787723,0.16057467210063323,131,38,22.867841899700963,3.1498370896278924
0.03612812667480469,0.16057306665029883,131,38,22.867841899700963,3.1498370896278924
0.03773351170481397,0.16057146122225402,131,38,22.867841899700963,3.1498370896278924
0.03933887577801457,0.16056985581601854,131,38,22.867841899700963,3.1498370896278924
0.04094421927214772,0.16056825043114906,131,38,22.867841899700963,3.1498370896278924
0.04254954253590295,0.1605666450672364,131,38,22.867841899700963,3.1498370896278924
0.04415484589115343,0.16056503972390282,131,38,22.867841899700963,3.1498370896278924
0.04576012963501925,0.1605634344007996,131,38,22.867841899700963,3.1498370896278924
0.04736539404177195,0.16056182909760489,131,38,22.867841899700963,3.1498370896278924
0.048970639364592554,0.16056022381402155,131,38,22.867841899700963,3.1498370896278924
0.05057586583719424,0.16055861854977532,131,38,22.867841899700963,3.1498370896278924
0.05218107367532032,0.16055701330461303,131,38,22.867841899700963,3.1498370896278924
0.05378626307812678,0.16055540807830096,131,38,22.867841899700963,3.1498370896278924
0.05539143422945857,0.16055380287062335,131,38,22.867841899700963,3.1498370896278924
0.0569965872990277,0.16055219768138107,131,38,22.867841899700963,3.1498370896278924
0.05860172244350061,0.16055059251039025,131,38,22.867841899700963,3.1498370896278924
0.0602068398075019,0.16054898735748122,131,38,22.867841899700963,3.1498370896278924
0.06181193952454087,0.16054738222249726,131,38,22.867841899700963,3.1498370896278924
0.06341702171786674,0.16054577710529377,131,38,22.867841899700963,3.1498370896278924
0.06502208650125814,0.16054417200573723,131,38,22.867841899700963,3.1498370896278924
0.06662713397975166,0.16054256692370442,131,38,22.867841899700963,3.1498370896278924
0.0682321642503146,0.16054096185908154,131,38,22.867841899700963,3.1498370896278924
0.06983717740246578,0.16053935681176357,131,38,22.867841899700963,3.1498370896278924
0.07144217351884861,0.1605377517816535,131,38,22.867841899700963,3.1498370896278924
0.07304715267576019,0.16053614676866185,131,38,22.867841899700963,3.1498370896278924
0.07465211494363946,0.16053454177270599,131,38,22.867841899700963,3.1498370896278924
0.0762570603875181,0.16053293679370956,131,38,22.867841899700963,3.1498370896278924
0.07786198906743645,0.16053133183160218,131,38,22.867841899700963,3.1498370896278924
0.07946690103882763,0.1605297268863188,131,38,22.867841899700963,3.1498370896278924
0.08107179635287189,0.1605281219577994,131,38,22.867841899700963,3.1498370896278924
0.08267667505682405,0.16052651704598847,131,38,22.867841899700963,3.1498370896278924
0.08428153719431536,0.16052491215083492,131,38,22.867841899700963,3.1498370896278924
0.08588638280563236,0.16052330727229147,131,38,22.867841899700963,3.1498370896278924
0.0874912119279742,0.16052170241031447,131,38,22.867841899700963,3.1498370896278924
0.08909602459569026,0.16052009756486363,131,38,22.867841899700963,3.1498370896278924
0.09070082084049931,0.1605184927359018,131,38,22.867841899700963,3.1498370896278924
0.09230560069169198,0.16051688792339455,131,38,22.867841899700963,3.1498370896278924
0.09391036417631762,0.16051528312731023,131,38,22.867841899700963,3.1498370896278924
0.09551511131935665,0.1605136783476195,131,38,22.867841899700963,3.1498370896278924
0.0971198421438798,0.16051207358429537,131,38,22.867841899700963,3.1498370896278924
0.09872455667119508,0.16051046883731282,131,38,22.867841899700963,3.1498370896278924
0.10032925492098331,0.16050886410664877,131,38,22.867841899700963,3.1498370896278924
0.10193393691142343,0.16050725939228191,131,38,22.867841899700963,3.1498370896278924
0.10353860265930799,0.16050565469419262,131,38,22.867841899700963,3.1498370896278924
0.1051432521801498,0.16050405001236265,131,38,22.867841899700963,3.1498370896278924
0.10674788548828051,0.1605024453467752,131,38,22.867841899700963,3.1498370896278924
0.10835250259694129,0.16050084069741485,131,38,22.867841899700963,3.1498370896278924
0.10995710351836695,0.1604992360642672,131,38,22.867841899700963,3.1498370896278924
0.11156168826386323,0.160497631447319,131,38,22.867841899700963,3.1498370896278924
0.11316625684387838,0.16049602684655803,131,38,22.867841899700963,3.1498370896278924
0.11477080926806899,0.160494422261973,131,38,22.867841899700963,3.1498370896278924
0.11637534554536103,0.16049281769355345,131,38,22.867841899700963,3.1498370896278924
0.11797986568400612,0.1604912131412897,131,38,22.867841899700963,3.1498370896278924
0.11958436969163323,0.16048960860517286,131,38,22.867841899700963,3.1498370896278924
0.12118885757529668,0.16048800408519467,131,38,22.867841899700963,3.1498370896278924
0.12279332934152039,0.1604863995813475,131,38,22.867841899700963,3.1498370896278924
0.12439778499633868,0.1604847950936243,131,38,22.867841899700963,3.1498370896278924
0.12600222454533386,0.16048319062201852,131,38,22.867841899700963,3.1498370896278924
0.1276066479936711,0.16048158616652414,131,38,22.867841899700963,3.1498370896278924
0.12921105534613045,0.1604799817271356,131,38,22.867841899700963,3.1498370896278924
0.13081544660713668,0.1604783773038477,131,38,22.867841899700963,3.1498370896278924
0.13241982178078615,0.16047677289665568,131,38,22.867841899700963,3.1498370896278924
0.13402418087087267,0.16047516850555513,131,38,22.867841899700963,3.1498370896278924
0.13562852388091032,0.16047356413054192,131,38,22.867841899700963,3.1498370896278924
0.13723285081415518,0.16047195977161227,131,38,22.867841899700963,3.1498370896278924
0.13883716167362511,0.16047035542876267,131,38,22.867841899700963,3.1498370896278924
0.14044145646211817,0.16046875110198985,131,38,22.867841899700963,3.1498370896278924
0.1420457351822294,0.16046714679129084,131,38,22.867841899700963,3.1498370896278924
0.14364999783636656,0.16046554249666278,131,38,22.867841899700963,3.1498370896278924
0.1452542444267645,0.1604639382181031,131,38,22.867841899700963,3.1498370896278924
0.1468584749554984,0.16046233395560938,131,38,22.867841899700963,3.1498370896278924
0.14846268942449614,0.1604607297091794,131,38,22.867841899700963,3.1498370896278924
0.15006688783554958,0.1604591254788111,131,38,22.867841899700963,3.1498370896278924
0.15167107019032508,0.16045752126450252,131,38,22.867841899700963,3.1498370896278924
0.15327523649037314,0.1604559170662519,131,38,22.867841899700963,3.1498370896278924
0.1548793867371372,0.16045431288405754,131,38,22.867841899700963,3.1498370896278924
0.15648352093196208,0.16045270871791792,131,38,22.867841899700963,3.1498370896278924
0.1580876390761014,0.16045110456783157,131,38,22.867841899700963,3.1498370896278924
0.15969174117072477,0.16044950043379716,131,38,22.867841899700963,3.1498370896278924
0.16129582721692395,0.16044789631581344,131,38,22.867841899700963,3.1498370896278924
0.16289989721571915,0.16044629221387924,131,38,22.867841899700963,3.1498370896278924
0.1645039511680645,0.16044468812799345,131,38,22.867841899700963,3.1498370896278924
0.16610798907485283,0.16044308405815505,131,38,22.867841899700963,3.1498370896278924
0.16771201093692079,0.16044148000436312,131,38,22.867841899700963,3.1498370896278924
0.16931601675505298,0.16043987596661674,131,38,22.867841899700963,3.1498370896278924
0.17092000652998593,0.16043827194491508,131,38,22.867841899700963,3.1498370896278924
0.17252398026241175,0.16043666793925734,131,38,22.867841899700963,3.1498370896278924
0.1741279379529818,0.16043506394964283,131,38,22.867841899700963,3.1498370896278924
0.1757318796023095,0.16043345997607078,131,38,22.867841899700963,3.1498370896278924
0.17733580521097347,0.16043185601854063,131,38,22.867841899700963,3.1498370896278924
0.1789397147795202,0.1604302520770517,131,38,22.867841899700963,3.1498370896278924
0.18054360830846644,0.16042864815160343,131,38,22.867841899700963,3.1498370896278924
0.18214748579830142,0.16042704424219528,131,38,22.867841899700963,3.1498370896278924
0.18375134724948916,0.16042544034882672,131,38,22.867841899700963,3.1498370896278924
0.18535519266247028,0.16042383647149727,131,38,22.867841899700963,3.1498370896278924
0.18695902203766382,0.16042223261020647,131,38,22.867841899700963,3.1498370896278924
0.18856283537546897,0.1604206287649539,131,38,22.867841899700963,3.1498370896278924
0.1901666326762665,0.16041902493573906,131,38,22.867841899700963,3.1498370896278924
0.19177041394042016,0.16041742112256166,131,38,22.867841899700963,3.1498370896278924
0.19337417916827804,0.16041581732542123,131,38,22.867841899700963,3.1498370896278924
0.19497792836017394,0.16041421354431748,131,38,22.867841899700963,3.1498370896278924
0.19658166151642814,0.16041260977924998,131,38,22.867841899700963,3.1498370896278924
0.19818537863734872,0.16041100603021846,131,38,22.867841899700963,3.1498370896278924
0.19978907972323232,0.1604094022972226,131,38,22.867841899700963,3.1498370896278924
0.20139276477436505,0.16040779858026205,131,38,22.867841899700963,3.1498370896278924
0.20299643379102342,0.16040619487933655,131,38,22.867841899700963,3.1498370896278924
0.20460008677347502,0.16040459119444578,131,38,22.867841899700963,3.1498370896278924
0.2062037237219791,0.16040298752558949,131,38,22.867841899700963,3.1498370896278924
0.20780734463678738,0.1604013838727674,131,38,22.867841899700963,3.1498370896278924
0.20941094951814446,0.16039978023597926,131,38,22.867841899700963,3.1498370896278924
0.21101453836628845,0.16039817661522482,131,38,22.867841899700963,3.1498370896278924
0.21261811118145157,0.16039657301050383,131,38,22.867841899700963,3.1498370896278924
0.21422166796386036,0.16039496942181605,131,38,22.867841899700963,3.1498370896278924
0.21582520871373642,0.16039336584916125,131,38,22.867841899700963,3.1498370896278924
0.21742873343129648,0.1603917622925392,131,38,22.867841899700963,3.1498370896278924
0.21903224211675304,0.16039015875194967,131,38,22.867841899700963,3.1498370896278924
0.22063573477031456,0.16038855522739248,131,38,22.867841899700963,3.1498370896278924
0.2222392113921857,0.16038695171886738,131,38,22.867841899700963,3.1498370896278924
0.22384267198256783,0.16038534822637415,131,38,22.867841899700963,3.1498370896278924
0.225446116541659,0.16038374474991265,131,38,22.867841899700963,3.1498370896278924
0.22704954506965452,0.1603821412894826,131,38,22.867841899700963,3.1498370896278924
0.2286529575667469,0.16038053784508385,131,38,22.867841899700963,3.1498370896278924
0.23025635403312622,0.16037893441671622,131,38,22.867841899700963,3.1498370896278924
0.23185973446898028,0.16037733100437948,131,38,22.867841899700963,3.1498370896278924
0.23346309887449468,0.16037572760807342,131,38,22.867841899700963,3.1498370896278924
0.23506644724985312,0.16037412422779793,131,38,22.867841899700963,3.1498370896278924
0.2366697795952375,0.16037252086355275,131,38,22.867841899700963,3.1498370896278924
0.23827309591082801,0.16037091751533772,131,38,22.867841899700963,3.1498370896278924
0.23987639619680332,0.16036931418315267,131,38,22.867841899700963,3.1498370896278924
0.24147968045334073,0.16036771086699741,131,38,22.867841899700963,3.1498370896278924
0.24308294868061617,0.16036610756687178,131,38,22.867841899700963,3.1498370896278924
0.24468620087880444,0.16036450428277557,131,38,22.867841899700963,3.1498370896278924
0.24628943704807912,0.16036290101470863,131,38,22.867841899700963,3.1498370896278924
0.24789265718861284,0.16036129776267077,131,38,22.867841899700963,3.1498370896278924
0.2494958613005772,0.16035969452666182,131,38,22.867841899700963,3.1498370896278924
0.25109904938414296,0.1603580913066816,131,38,22.867841899700963,3.1498370896278924
0.2527022214394802,0.16035648810272998,131,38,22.867841899700963,3.1498370896278924
0.25430537746675796,0.16035488491480673,131,38,22.867841899700963,3.1498370896278924
0.2559085174661448,0.16035328174291172,131,38,22.867841899700963,3.1498370896278924
0.25751164143780864,0.16035167858704474,131,38,22.867841899700963,3.1498370896278924
0.25911474938191675,0.16035007544720567,131,38,22.867841899700963,3.1498370896278924
0.26071784129863596,0.16034847232339433,131,38,22.867841899700963,3.1498370896278924
0.26232091718813233,0.16034686921561053,131,38,22.867841899700963,3.1498370896278924
0.26392397705057175,0.16034526612385414,131,38,22.867841899700963,3.1498370896278924
0.2655270208861196,0.16034366304812495,131,38,22.867841899700963,3.1498370896278924
0.26713004869494084,0.16034205998842282,131,38,22.867841899700963,3.1498370896278924
0.26873306047719997,0.16034045694474758,131,38,22.867841899700963,3.1498370896278924
0.2703360562330613,0.16033885391709907,131,38,22.867841899700963,3.1498370896278924
0.27193903596268865,0.1603372509054771,131,38,22.867841899700963,3.1498370896278924
0.2735419996662458,0.16033564790988156,131,38,22.867841899700963,3.1498370896278924
0.2751449473438963,0.16033404493031223,131,38,22.867841899700963,3.1498370896278924
0.27674787899580294,0.16033244196676896,131,38,22.867841899700963,3.1498370896278924
0.2783507946221289,0.1603308390192516,131,38,22.867841899700963,3.1498370896278924
0.2799536942230368,0.16032923608776,131,38,22.867841899700963,3.1498370896278924
0.2815565777986891,0.16032763317229398,131,38,22.867841899700963,3.1498370896278924
0.28315944534924814,0.16032603027285336,131,38,22.867841899700963,3.1498370896278924
0.2847622968748762,0.160324427389438,131,38,22.867841899700963,3.1498370896278924
0.2863651323757353,0.1603228245220477,131,38,22.867841899700963,3.1498370896278924
0.2879679518519872,0.16032122167068238,131,38,22.867841899700963,3.1498370896278924
0.2895707553037937,0.16031961883534182,131,38,22.867841899700963,3.1498370896278924
0.29117354273131646,0.16031801601602585,131,38,22.867841899700963,3.1498370896278924
0.292776314134717,0.16031641321273432,131,38,22.867841899700963,3.1498370896278924
0.2943790695141566,0.16031481042546708,131,38,22.867841899700963,3.1498370896278924
0.2959818088697968,0.16031320765422397,131,38,22.867841899700963,3.1498370896278924
0.2975845322017986,0.1603116048990048,131,38,22.867841899700963,3.1498370896278924
0.29918723951032333,0.16031000215980942,131,38,22.867841899700963,3.1498370896278924
0.300789930795532,0.16030839943663772,131,38,22.867841899700963,3.1498370896278924
0.3023926060575856,0.16030679672948947,131,38,22.867841899700963,3.1498370896278924
0.30399526529664517,0.16030519403836452,131,38,22.867841899700963,3.1498370896278924
0.30559790851287144,0.16030359136326275,131,38,22.867841899700963,3.1498370896278924
0.3072005357064254,0.16030198870418394,131,38,22.867841899700963,3.1498370896278924
0.3088031468774676,0.16030038606112798,131,38,22.867841899700963,3.1498370896278924
0.31040574202615906,0.1602987834340947,131,38,22.867841899700963,3.1498370896278924
0.31200832115266025,0.16029718082308392,131,38,22.867841899700963,3.1498370896278924
0.3136108842571319,0.1602955782280955,131,38,22.867841899700963,3.1498370896278924
0.3152134313397346,0.16029397564912926,131,38,22.867841899700963,3.1498370896278924
0.316815962400629,0.16029237308618505,131,38,22.867841899700963,3.1498370896278924
0.3184184774399755,0.1602907705392627,131,38,22.867841899700963,3.1498370896278924
0.3200209764579347,0.16028916800836207,131,38,22.867841899700963,3.1498370896278924
0.3216234594546671,0.16028756549348297,131,38,22.867841899700963,3.1498370896278924
0.32322592643033315,0.16028596299462528,131,38,22.867841899700963,3.1498370896278924
0.3248283773850933,0.1602843605117888,131,38,22.867841899700963,3.1498370896278924
0.3264308123191079,0.16028275804497336,131,38,22.867841899700963,3.1498370896278924
0.32803323123253747,0.16028115559417885,131,38,22.867841899700963,3.1498370896278924
0.32963563412554225,0.1602795531594051,131,38,22.867841899700963,3.1498370896278924
0.3312380209982827,0.1602779507406519,131,38,22.867841899700963,3.1498370896278924
0.33284039185091907,0.16027634833791915,131,38,22.867841899700963,3.1498370896278924
0.33444274668361174,0.16027474595120664,131,38,22.867841899700963,3.1498370896278924
0.33604508549652107,0.16027314358051425,131,38,22.867841899700963,3.1498370896278924
0.3376474082898073,0.16027154122584178,131,38,22.867841899700963,3.1498370896278924
0.33924971506363066,0.16026993888718913,131,38,22.867841899700963,3.1498370896278924
0.3408520058181516,0.16026833656455608,131,38,22.867841899700963,3.1498370896278924
0.34245428055353017,0.16026673425794247,131,38,22.867841899700963,3.1498370896278924
0.34405653926992685,0.16026513196734818,131,38,22.867841899700963,3.1498370896278924
0.3456587819675017,0.16026352969277305,131,38,22.867841899700963,3.1498370896278924
0.347261008646415,0.16026192743421688,131,38,22.867841899700963,3.1498370896278924
0.34886321930682707,0.16026032519167951,131,38,22.867841899700963,3.1498370896278924
0.35046541394889796,0.16025872296516083,131,38,22.867841899700963,3.1498370896278924
0.352067592572788,0.16025712075466064,131,38,22.867841899700963,3.1498370896278924
0.3536697551786574,0.1602555185601788,131,38,22.867841899700963,3.1498370896278924
0.3552719017666664,0.16025391638171513,131,38,22.867841899700963,3.1498370896278924
0.35687403233697507,0.1602523142192695,131,38,22.867841899700963,3.1498370896278924
0.3584761468897437,0.1602507120728417,131,38,22.867841899700963,3.1498370896278924
0.3600782454251325,0.1602491099424316,131,38,22.867841899700963,3.1498370896278924
0.3616803279433016,0.16024750782803904,131,38,22.867841899700963,3.1498370896278924
0.36328239444441107,0.16024590572966388,131,38,22.867841899700963,3.1498370896278924
0.3648844449286213,0.1602443036473059,131,38,22.867841899700963,3.1498370896278924
0.36648647939609214,0.160242701580965,131,38,22.867841899700963,3.1498370896278924
0.368088497846984,0.160241099530641,131,38,22.867841899700963,3.1498370896278924
0.36969050028145695,0.16023949749633376,131,38,22.867841899700963,3.1498370896278924
0.37129248669967124,0.16023789547804307,131,38,22.867841899700963,3.1498370896278924
0.372894457101787,0.1602362934757688,131,38,22.867841899700963,3.1498370896278924
