Vout,Iout,Irradiance,Temperature,MaxVoltage,MaxPower
0.002974881395371199,0.594982,521,-4,19.789995086145485,11.383273423320041
0.008924589177740982,0.594982,521,-4,19.789995086145485,11.383273423320041
0.014874176004043872,0.5949789656204046,521,-4,19.789995086145485,11.383273423320041
0.02082362026551858,0.5949730159126223,521,-4,19.789995086145485,11.383273423320041
0.026772914900047025,0.5949670663260994,521,-4,19.789995086145485,11.383273423320041
0.03272206684487397,0.5949611168824329,521,-4,19.789995086145485,11.383273423320041
0.038671082503725085,0.5949551675883933,521,-4,19.789995086145485,11.383273423320041
0.04461996778772504,0.5949492184370434,521,-4,19.789995086145485,11.383273423320041
0.05056872815323301,0.5949432694219795,521,-4,19.789995086145485,11.383273423320041
0.056517368636833064,0.5949373205372904,521,-4,19.789995086145485,11.383273423320041
0.06246589388763232,0.5949313717775199,521,-4,19.789995086145485,11.383273423320041
0.06841430819707402,0.5949254231376311,521,-4,19.789995086145485,11.383273423320041
0.07436261552645679,0.5949194746129752,521,-4,19.789995086145485,11.383273423320041
0.08031081953233642,0.5949135261992606,521,-4,19.789995086145485,11.383273423320041
0.08625892358997332,0.5949075778925261,521,-4,19.789995086145485,11.383273423320041
0.09220693081497579,0.5949016296891151,521,-4,19.789995086145485,11.383273423320041
0.09815484408327801,0.5948956815856522,521,-4,19.789995086145485,11.383273423320041
0.10410266604958114,0.5948897335790221,521,-4,19.789995086145485,11.383273423320041
0.11005039916437502,0.5948837856663486,521,-4,19.789995086145485,11.383273423320041
0.11599804568965086,0.594877837844977,521,-4,19.789995086145485,11.383273423320041
0.12194560771340433,0.5948718901124571,521,-4,19.789995086145485,11.383273423320041
0.1278930871630232,0.5948659424665266,521,-4,19.789995086145485,11.383273423320041
0.13384048581764474,0.5948599949050976,521,-4,19.789995086145485,11.383273423320041
0.1397878053195623,0.5948540474262427,521,-4,19.789995086145485,11.383273423320041
0.1457350471847544,0.5948481000281829,521,-4,19.789995086145485,11.383273423320041
0.1516822128126035,0.5948421527092757,521,-4,19.789995086145485,11.383273423320041
0.157629303494867,0.5948362054680053,521,-4,19.789995086145485,11.383273423320041
0.16357632042395837,0.5948302583029721,521,-4,19.789995086145485,11.383273423320041
0.16952326470059048,0.5948243112128846,521,-4,19.789995086145485,11.383273423320041
0.17547013734083144,0.5948183641965502,521,-4,19.789995086145485,11.383273423320041
0.1814169392826172,0.5948124172528683,521,-4,19.789995086145485,11.383273423320041
0.1873636713917632,0.5948064703808228,521,-4,19.789995086145485,11.383273423320041
0.19331033446751325,0.5948005235794757,521,-4,19.789995086145485,11.383273423320041
0.19925692924766214,0.5947945768479612,521,-4,19.789995086145485,11.383273423320041
0.20520345641328291,0.5947886301854801,521,-4,19.789995086145485,11.383273423320041
0.21114991659309176,0.5947826835912947,521,-4,19.789995086145485,11.383273423320041
0.21709631036747612,0.5947767370647237,521,-4,19.789995086145485,11.383273423320041
0.22304263827221318,0.5947707906051386,521,-4,19.789995086145485,11.383273423320041
0.2289889008019025,0.5947648442119589,521,-4,19.789995086145485,11.383273423320041
0.2349350984131338,0.5947588978846488,521,-4,19.789995086145485,11.383273423320041
0.24088123152741212,0.5947529516227137,521,-4,19.789995086145485,11.383273423320041
0.24682730053385665,0.5947470054256971,521,-4,19.789995086145485,11.383273423320041
0.2527733057916931,0.5947410592931774,521,-4,19.789995086145485,11.383273423320041
0.2587192476325534,0.5947351132247656,521,-4,19.789995086145485,11.383273423320041
0.2646651263625989,0.5947291672201024,521,-4,19.789995086145485,11.383273423320041
0.2706109422644803,0.5947232212788561,521,-4,19.789995086145485,11.383273423320041
0.2765566955991463,0.5947172754007207,521,-4,19.789995086145485,11.383273423320041
0.2825023866075133,0.5947113295854134,521,-4,19.789995086145485,11.383273423320041
0.28844801551200744,0.5947053838326734,521,-4,19.789995086145485,11.383273423320041
0.2943935825179863,0.5946994381422596,521,-4,19.789995086145485,11.383273423320041
0.30033908781505303,0.5946934925139497,521,-4,19.789995086145485,11.383273423320041
0.30628453157826774,0.5946875469475382,521,-4,19.789995086145485,11.383273423320041
0.3122299139692672,0.5946816014428357,521,-4,19.789995086145485,11.383273423320041
0.3181752351372971,0.5946756559996671,521,-4,19.789995086145485,11.383273423320041
0.3241204952201658,0.5946697106178706,521,-4,19.789995086145485,11.383273423320041
0.3300656943451239,0.5946637652972971,521,-4,19.789995086145485,11.383273423320041
0.33601083262967724,0.5946578200378088,521,-4,19.789995086145485,11.383273423320041
0.341955910182336,0.5946518748392784,521,-4,19.789995086145485,11.383273423320041
0.34790092710330744,0.5946459297015884,521,-4,19.789995086145485,11.383273423320041
0.353845883485134,0.5946399846246302,521,-4,19.789995086145485,11.383273423320041
0.3597907794132839,0.5946340396083037,521,-4,19.789995086145485,11.383273423320041
0.3657356149666947,0.5946280946525164,521,-4,19.789995086145485,11.383273423320041
0.37168039021827626,0.5946221497571827,521,-4,19.789995086145485,11.383273423320041
0.37762510523537435,0.5946162049222239,521,-4,19.789995086145485,11.383273423320041
0.3835697600801986,0.5946102601475668,521,-4,19.789995086145485,11.383273423320041
0.38951435481021807,0.5946043154331442,521,-4,19.789995086145485,11.383273423320041
0.39545888947852564,0.5945983707788938,521,-4,19.789995086145485,11.383273423320041
0.401403364134175,0.5945924261847583,521,-4,19.789995086145485,11.383273423320041
0.407347778822491,0.5945864816506844,521,-4,19.789995086145485,11.383273423320041
0.4132921335853571,0.5945805371766232,521,-4,19.789995086145485,11.383273423320041
0.41923642846147985,0.5945745927625293,521,-4,19.789995086145485,11.383273423320041
0.42518066348663314,0.594568648408361,521,-4,19.789995086145485,11.383273423320041
0.43112483869388435,0.5945627041140793,521,-4,19.789995086145485,11.383273423320041
0.4370689541138022,0.5945567598796485,521,-4,19.789995086145485,11.383273423320041
0.4430130097746491,0.5945508157050358,521,-4,19.789995086145485,11.383273423320041
0.4489570057025587,0.5945448715902102,521,-4,19.789995086145485,11.383273423320041
0.4549009419216995,0.5945389275351438,521,-4,19.789995086145485,11.383273423320041
0.46084481845442604,0.5945329835398103,521,-4,19.789995086145485,11.383273423320041
0.46678863532141884,0.5945270396041855,521,-4,19.789995086145485,11.383273423320041
0.4727323925418128,0.5945210957282472,521,-4,19.789995086145485,11.383273423320041
0.4786760901333163,0.5945151519119747,521,-4,19.789995086145485,11.383273423320041
0.48461972811232074,0.5945092081553486,521,-4,19.789995086145485,11.383273423320041
0.49056330649400226,0.5945032644583516,521,-4,19.789995086145485,11.383273423320041
0.49650682529241486,0.5944973208209668,521,-4,19.789995086145485,11.383273423320041
0.5024502845205772,0.5944913772431796,521,-4,19.789995086145485,11.383273423320041
0.5083936841905513,0.5944854337249755,521,-4,19.789995086145485,11.383273423320041
0.5143370243135177,0.5944794902663417,521,-4,19.789995086145485,11.383273423320041
0.5202803048998418,0.5944735468672661,521,-4,19.789995086145485,11.383273423320041
0.5262235259591372,0.5944676035277374,521,-4,19.789995086145485,11.383273423320041
0.532166687500324,0.5944616602477455,521,-4,19.789995086145485,11.383273423320041
0.5381097895316812,0.5944557170272805,521,-4,19.789995086145485,11.383273423320041
0.5440528320608965,0.5944497738663337,521,-4,19.789995086145485,11.383273423320041
0.5499958150951121,0.5944438307648966,521,-4,19.789995086145485,11.383273423320041
0.5559387386409659,0.5944378877229617,521,-4,19.789995086145485,11.383273423320041
0.5618816027046314,0.5944319447405219,521,-4,19.789995086145485,11.383273423320041
0.567824407291852,0.5944260018175703,521,-4,19.789995086145485,11.383273423320041
0.5737671524079758,0.5944200589541009,521,-4,19.789995086145485,11.383273423320041
0.5797098380579847,0.594414116150108,521,-4,19.789995086145485,11.383273423320041
0.5856524642465226,0.5944081734055862,521,-4,19.789995086145485,11.383273423320041
0.5915950309779221,0.5944022307205304,521,-4,19.789995086145485,11.383273423320041
0.5975375382562286,0.5943962880949362,521,-4,19.789995086145485,11.383273423320041
0.6034799860852211,0.594390345528799,521,-4,19.789995086145485,11.383273423320041
0.6094223744684342,0.5943844030221149,521,-4,19.789995086145485,11.383273423320041
0.6153647034091757,0.5943784605748802,521,-4,19.789995086145485,11.383273423320041
0.621306972910545,0.5943725181870912,521,-4,19.789995086145485,11.383273423320041
0.6272491829754487,0.5943665758587448,521,-4,19.789995086145485,11.383273423320041
0.6331913336066153,0.5943606335898376,521,-4,19.789995086145485,11.383273423320041
0.639133424806609,0.594354691380367,521,-4,19.789995086145485,11.383273423320041
0.6450754565778425,0.59434874923033,521,-4,19.789995086145485,11.383273423320041
0.6510174289225885,0.5943428071397243,521,-4,19.789995086145485,11.383273423320041
0.6569593418429908,0.5943368651085472,521,-4,19.789995086145485,11.383273423320041
0.6629011953410736,0.5943309231367967,521,-4,19.789995086145485,11.383273423320041
0.668842989418751,0.5943249812244705,521,-4,19.789995086145485,11.383273423320041
0.674784724077836,0.5943190393715666,521,-4,19.789995086145485,11.383273423320041
0.6807263993200474,0.5943130975780831,521,-4,19.789995086145485,11.383273423320041
0.6866680151470174,0.5943071558440183,521,-4,19.789995086145485,11.383273423320041
0.6926095715602982,0.5943012141693702,521,-4,19.789995086145485,11.383273423320041
0.6985510685613691,0.5942952725541374,521,-4,19.789995086145485,11.383273423320041
0.7044925061516403,0.5942893309983183,521,-4,19.789995086145485,11.383273423320041
0.7104338843324596,0.5942833895019114,521,-4,19.789995086145485,11.383273423320041
0.7163752031051168,0.5942774480649152,521,-4,19.789995086145485,11.383273423320041
0.7223164624708479,0.5942715066873286,521,-4,19.789995086145485,11.383273423320041
0.7282576624308398,0.5942655653691501,521,-4,19.789995086145485,11.383273423320041
0.7341988029862334,0.5942596241103785,521,-4,19.789995086145485,11.383273423320041
0.740139884138128,0.5942536829110127,521,-4,19.789995086145485,11.383273423320041
0.7460809058875835,0.5942477417710513,521,-4,19.789995086145485,11.383273423320041
0.7520218682356243,0.5942418006904936,521,-4,19.789995086145485,11.383273423320041
0.7579627711832417,0.5942358596693382,521,-4,19.789995086145485,11.383273423320041
0.763903614731396,0.5942299187075843,521,-4,19.789995086145485,11.383273423320041
0.7698443988810196,0.5942239778052308,521,-4,19.789995086145485,11.383273423320041
0.7757851236330187,0.5942180369622767,521,-4,19.789995086145485,11.383273423320041
0.7817257889882758,0.5942120961787212,521,-4,19.789995086145485,11.383273423320041
0.7876663949476507,0.5942061554545633,521,-4,19.789995086145485,11.383273423320041
0.7936069415119832,0.5942002147898021,521,-4,19.789995086145485,11.383273423320041
0.7995474286820936,0.5941942741844368,521,-4,19.789995086145485,11.383273423320041
0.8054878564587851,0.5941883336384666,521,-4,19.789995086145485,11.383273423320041
0.811428224842845,0.5941823931518905,521,-4,19.789995086145485,11.383273423320041
0.8173685338350453,0.5941764527247079,521,-4,19.789995086145485,11.383273423320041
0.8233087834361442,0.5941705123569179,521,-4,19.789995086145485,11.383273423320041
0.8292489736468881,0.5941645720485197,521,-4,19.789995086145485,11.383273423320041
0.8351891044680105,0.5941586317995127,521,-4,19.789995086145485,11.383273423320041
0.8411291759002352,0.5941526916098959,521,-4,19.789995086145485,11.383273423320041
0.8470691879442747,0.5941467514796688,521,-4,19.789995086145485,11.383273423320041
0.8530091406008335,0.5941408114088306,521,-4,19.789995086145485,11.383273423320041
0.8589490338706077,0.5941348713973806,521,-4,19.789995086145485,11.383273423320041
0.8648888677542844,0.5941289314453181,521,-4,19.789995086145485,11.383273423320041
0.8708286422525441,0.5941229915526423,521,-4,19.789995086145485,11.383273423320041
0.8767683573660607,0.5941170517193526,521,-4,19.789995086145485,11.383273423320041
0.8827080130955024,0.5941111119454483,521,-4,19.789995086145485,11.383273423320041
0.8886476094415304,0.5941051722309287,521,-4,19.789995086145485,11.383273423320041
0.8945871464048017,0.5940992325757933,521,-4,19.789995086145485,11.383273423320041
0.900526623985968,0.5940932929800412,521,-4,19.789995086145485,11.383273423320041
0.9064660421856767,0.5940873534436719,521,-4,19.789995086145485,11.383273423320041
0.9124054010045712,0.5940814139666848,521,-4,19.789995086145485,11.383273423320041
0.918344700443291,0.5940754745490789,521,-4,19.789995086145485,11.383273423320041
0.9242839405024718,0.594069535190854,521,-4,19.789995086145485,11.383273423320041
0.9302231211827461,0.5940635958920093,521,-4,19.789995086145485,11.383273423320041
0.9361622424847436,0.5940576566525441,521,-4,19.789995086145485,11.383273423320041
0.9421013044090913,0.5940517174724577,521,-4,19.789995086145485,11.383273423320041
0.9480403069564132,0.5940457783517497,521,-4,19.789995086145485,11.383273423320041
0.9539792501273314,0.5940398392904191,521,-4,19.789995086145485,11.383273423320041
0.9599181339224659,0.5940339002884658,521,-4,19.789995086145485,11.383273423320041
0.9658569583424338,0.5940279613458888,521,-4,19.789995086145485,11.383273423320041
0.9717957233878516,0.5940220224626875,521,-4,19.789995086145485,11.383273423320041
0.9777344290593329,0.5940160836388615,521,-4,19.789995086145485,11.383273423320041
0.9836730753574907,0.59401014487441,521,-4,19.789995086145485,11.383273423320041
0.9896116622829358,0.5940042061693324,521,-4,19.789995086145485,11.383273423320041
0.9955501898362783,0.593998267523628,521,-4,19.789995086145485,11.383273423320041
1.0014886580181261,0.5939923289372965,521,-4,19.789995086145485,11.383273423320041
1.0074270668290872,0.593986390410337,521,-4,19.789995086145485,11.383273423320041
1.0133654162697672,0.593980451942749,521,-4,19.789995086145485,11.383273423320041
1.019303706340772,0.5939745135345319,521,-4,19.789995086145485,11.383273423320041
1.0252419370427055,0.593968575185685,521,-4,19.789995086145485,11.383273423320041
1.0311801083761716,0.5939626368962079,521,-4,19.789995086145485,11.383273423320041
1.0371182203417728,0.5939566986660998,521,-4,19.789995086145485,11.383273423320041
1.0430562729401114,0.5939507604953601,521,-4,19.789995086145485,11.383273423320041
1.0489942661717886,0.5939448223839884,521,-4,19.789995086145485,11.383273423320041
1.0549322000374053,0.5939388843319838,521,-4,19.789995086145485,11.383273423320041
1.0608700745375614,0.593932946339346,521,-4,19.789995086145485,11.383273423320041
1.0668078896728572,0.5939270084060742,521,-4,19.789995086145485,11.383273423320041
1.0727456454438917,0.5939210705321678,521,-4,19.789995086145485,11.383273423320041
1.0786833418512631,0.5939151327176263,521,-4,19.789995086145485,11.383273423320041
1.0846209788955707,0.5939091949624491,521,-4,19.789995086145485,11.383273423320041
1.0905585565774116,0.5939032572666355,521,-4,19.789995086145485,11.383273423320041
1.096496074897384,0.593897319630185,521,-4,19.789995086145485,11.383273423320041
1.1024335338560851,0.5938913820530969,521,-4,19.789995086145485,11.383273423320041
1.1083709334541119,0.5938854445353706,521,-4,19.789995086145485,11.383273423320041
1.1143082736920606,0.5938795070770058,521,-4,19.789995086145485,11.383273423320041
1.1202455545705285,0.5938735696780014,521,-4,19.789995086145485,11.383273423320041
1.126182776090111,0.5938676323383573,521,-4,19.789995086145485,11.383273423320041
1.1321199382514051,0.5938616950580725,521,-4,19.789995086145485,11.383273423320041
1.1380570410550057,0.5938557578371466,521,-4,19.789995086145485,11.383273423320041
1.1439940845015086,0.5938498206755791,521,-4,19.789995086145485,11.383273423320041
1.1499310685915096,0.5938438835733693,521,-4,19.789995086145485,11.383273423320041
1.1558679933256042,0.5938379465305165,521,-4,19.789995086145485,11.383273423320041
1.1618048587043868,0.5938320095470201,521,-4,19.789995086145485,11.383273423320041
1.1677416647284526,0.5938260726228798,521,-4,19.789995086145485,11.383273423320041
1.1736784113983967,0.5938201357580947,521,-4,19.789995086145485,11.383273423320041
1.1796150987148137,0.5938141989526643,521,-4,19.789995086145485,11.383273423320041
1.1855517266782984,0.593808262206588,521,-4,19.789995086145485,11.383273423320041
1.1914882952894452,0.5938023255198653,521,-4,19.789995086145485,11.383273423320041
1.1974248045488485,0.5937963888924955,521,-4,19.789995086145485,11.383273423320041
1.2033612544571028,0.593790452324478,521,-4,19.789995086145485,11.383273423320041
1.2092976450148027,0.5937845158158123,521,-4,19.789995086145485,11.383273423320041
1.2152339762225415,0.5937785793664977,521,-4,19.789995086145485,11.383273423320041
1.221170248080914,0.5937726429765336,521,-4,19.789995086145485,11.383273423320041
1.2271064605905142,0.5937667066459196,521,-4,19.789995086145485,11.383273423320041
1.2330426137519361,0.5937607703746548,521,-4,19.789995086145485,11.383273423320041
1.2389787075657737,0.5937548341627389,521,-4,19.789995086145485,11.383273423320041
1.2449147420326203,0.5937488980101711,521,-4,19.789995086145485,11.383273423320041
1.2508507171530707,0.5937429619169509,521,-4,19.789995086145485,11.383273423320041
1.2567866329277175,0.5937370258830776,521,-4,19.789995086145485,11.383273423320041
1.2627224893571558,0.5937310899085507,521,-4,19.789995086145485,11.383273423320041
1.2686582864419786,0.5937251539933697,521,-4,19.789995086145485,11.383273423320041
1.2745940241827798,0.5937192181375338,521,-4,19.789995086145485,11.383273423320041
1.2805297025801525,0.5937132823410426,521,-4,19.789995086145485,11.383273423320041
1.2864653216346909,0.5937073466038955,521,-4,19.789995086145485,11.383273423320041
1.2924008813469885,0.5937014109260916,521,-4,19.789995086145485,11.383273423320041
1.298336381717639,0.5936954753076307,521,-4,19.789995086145485,11.383273423320041
1.3042718227472356,0.5936895397485119,521,-4,19.789995086145485,11.383273423320041
1.3102072044363717,0.5936836042487348,521,-4,19.789995086145485,11.383273423320041
1.3161425267856415,0.5936776688082988,521,-4,19.789995086145485,11.383273423320041
1.322077789795637,0.5936717334272033,521,-4,19.789995086145485,11.383273423320041
1.3280129934669531,0.5936657981054475,521,-4,19.789995086145485,11.383273423320041
1.3339481378001827,0.5936598628430311,521,-4,19.789995086145485,11.383273423320041
1.3398832227959192,0.5936539276399533,521,-4,19.789995086145485,11.383273423320041
1.3458182484547563,0.5936479924962136,521,-4,19.789995086145485,11.383273423320041
1.3517532147772866,0.5936420574118113,521,-4,19.789995086145485,11.383273423320041
1.3576881217641041,0.593636122386746,521,-4,19.789995086145485,11.383273423320041
1.363622969415802,0.593630187421017,521,-4,19.789995086145485,11.383273423320041
1.3695577577329732,0.5936242525146237,521,-4,19.789995086145485,11.383273423320041
1.3754924867162117,0.5936183176675655,521,-4,19.789995086145485,11.383273423320041
1.3814271563661098,0.5936123828798417,521,-4,19.789995086145485,11.383273423320041
1.387361766683262,0.593606448151452,521,-4,19.789995086145485,11.383273423320041
1.3932963176682607,0.5936005134823956,521,-4,19.789995086145485,11.383273423320041
1.3992308093216992,0.593594578872672,521,-4,19.789995086145485,11.383273423320041
1.4051652416441711,0.5935886443222804,521,-4,19.789995086145485,11.383273423320041
