Vout,Iout,Irradiance,Temperature,MaxVoltage,MaxPower
0.0007663426313208527,0.15327,131,10,20.810144517416358,2.756563577728293
0.00229901372356199,0.15327,131,10,20.810144517416358,2.756563577728293
0.003831653656984252,0.15326921833036866,131,10,20.810144517416358,2.756563577728293
0.005364256865074964,0.15326768565927643,131,10,20.810144517416358,2.756563577728293
0.006896821528601214,0.15326615301942118,131,10,20.810144517416358,2.756563577728293
0.008429349434627994,0.15326462041636635,131,10,20.810144517416358,2.756563577728293
0.009961842232783421,0.15326308785185608,131,10,20.810144517416358,2.756563577728293
0.0114943014457994,0.15326155532410332,131,10,20.810144517416358,2.756563577728293
0.013026728479258237,0.15326002283145843,131,10,20.810144517416358,2.756563577728293
0.014559124630606312,0.15325849037239866,131,10,20.810144517416358,2.756563577728293
0.01609149109747422,0.15325695794551844,131,10,20.810144517416358,2.756563577728293
0.017623828985356763,0.15325542554952035,131,10,20.810144517416358,2.756563577728293
0.019156139314702017,0.15325389318320673,131,10,20.810144517416358,2.756563577728293
0.020688423027454952,0.15325236084547209,131,10,20.810144517416358,2.756563577728293
0.02222068099309763,0.15325082853529598,131,10,20.810144517416358,2.756563577728293
0.023752914014224528,0.15324929625173644,131,10,20.810144517416358,2.756563577728293
0.025285122831689065,0.15324776399392404,131,10,20.810144517416358,2.756563577728293
0.026817308129354,0.15324623176105615,131,10,20.810144517416358,2.756563577728293
0.028349470538476397,0.1532446995523919,131,10,20.810144517416358,2.756563577728293
0.0298816106417552,0.15324316736724747,131,10,20.810144517416358,2.756563577728293
0.03141372897706735,0.15324163520499157,131,10,20.810144517416358,2.756563577728293
0.032945826040916476,0.1532401030650415,131,10,20.810144517416358,2.756563577728293
0.034477902291616236,0.15323857094685941,131,10,20.810144517416358,2.756563577728293
0.03600995815222867,0.15323703884994877,131,10,20.810144517416358,2.756563577728293
0.037541994013276556,0.15323550677385128,131,10,20.810144517416358,2.756563577728293
0.039074010235247016,0.15323397471814387,131,10,20.810144517416358,2.756563577728293
0.0406060071509025,0.15323244268243605,131,10,20.810144517416358,2.756563577728293
0.04213798506741397,0.15323091066636726,131,10,20.810144517416358,2.756563577728293
0.04366994426832998,0.15322937866960482,131,10,20.810144517416358,2.756563577728293
0.04520188501539414,0.1532278466918415,131,10,20.810144517416358,2.756563577728293
0.046733807550222925,0.1532263147327938,131,10,20.810144517416358,2.756563577728293
0.04826571209585423,0.15322478279219992,131,10,20.810144517416358,2.756563577728293
0.04979759885817681,0.1532232508698183,131,10,20.810144517416358,2.756563577728293
0.05132946802724985,0.15322171896542586,131,10,20.810144517416358,2.756563577728293
0.052861319778520814,0.15322018707881674,131,10,20.810144517416358,2.756563577728293
0.054393154273949765,0.15321865520980085,131,10,20.810144517416358,2.756563577728293
0.055924971663047066,0.15321712335820276,131,10,20.810144517416358,2.756563577728293
0.05745677208383132,0.15321559152386052,131,10,20.810144517416358,2.756563577728293
0.05898855566371352,0.1532140597066246,131,10,20.810144517416358,2.756563577728293
0.060520322520313266,0.153212527906357,131,10,20.810144517416358,2.756563577728293
0.062052072762212064,0.1532109961229303,131,10,20.810144517416358,2.756563577728293
0.06358380648964877,0.1532094643562269,131,10,20.810144517416358,2.756563577728293
0.06511552379516154,0.15320793260613816,131,10,20.810144517416358,2.756563577728293
0.0666472247641802,0.1532064008725639,131,10,20.810144517416358,2.756563577728293
0.06817890947557327,0.15320486915541157,131,10,20.810144517416358,2.756563577728293
0.06971057800215281,0.15320333745459572,131,10,20.810144517416358,2.756563577728293
0.07124223041114039,0.1532018057700375,131,10,20.810144517416358,2.756563577728293
0.07277386676459718,0.1532002741016641,131,10,20.810144517416358,2.756563577728293
0.07430548711982106,0.15319874244940826,131,10,20.810144517416358,2.756563577728293
0.07583709152971312,0.15319721081320797,131,10,20.810144517416358,2.756563577728293
0.07736868004311588,0.15319567919300592,131,10,20.810144517416358,2.756563577728293
0.0789002527051257,0.1531941475887492,131,10,20.810144517416358,2.756563577728293
0.08043180955738088,0.15319261600038894,131,10,20.810144517416358,2.756563577728293
0.08196335063832777,0.1531910844278801,131,10,20.810144517416358,2.756563577728293
0.08349487598346642,0.153189552871181,131,10,20.810144517416358,2.756563577728293
0.08502638562557714,0.15318802133025322,131,10,20.810144517416358,2.756563577728293
0.08655787959493,0.15318648980506125,131,10,20.810144517416358,2.756563577728293
0.08808935791947768,0.15318495829557227,131,10,20.810144517416358,2.756563577728293
0.08962082062503395,0.1531834268017561,131,10,20.810144517416358,2.756563577728293
0.09115226773543822,0.15318189532358467,131,10,20.810144517416358,2.756563577728293
0.09268369927270746,0.1531803638610323,131,10,20.810144517416358,2.756563577728293
0.09421511525717637,0.153178832414075,131,10,20.810144517416358,2.756563577728293
0.09574651570762681,0.1531773009826909,131,10,20.810144517416358,2.756563577728293
0.09727790064140736,0.15317576956685958,131,10,20.810144517416358,2.756563577728293
0.09880927007454351,0.15317423816656225,131,10,20.810144517416358,2.756563577728293
0.10034062402183956,0.15317270678178163,131,10,20.810144517416358,2.756563577728293
0.10187196249697243,0.15317117541250164,131,10,20.810144517416358,2.756563577728293
0.10340328551257857,0.15316964405870748,131,10,20.810144517416358,2.756563577728293
0.10493459308033387,0.15316811272038547,131,10,20.810144517416358,2.756563577728293
0.10646588521102775,0.153166581397523,131,10,20.810144517416358,2.756563577728293
0.10799716191463109,0.1531650500901084,131,10,20.810144517416358,2.756563577728293
0.10952842320035949,0.1531635187981308,131,10,20.810144517416358,2.756563577728293
0.11105966907673118,0.15316198752158036,131,10,20.810144517416358,2.756563577728293
0.11259089955162085,0.15316045626044775,131,10,20.810144517416358,2.756563577728293
0.11412211463230905,0.1531589250147245,131,10,20.810144517416358,2.756563577728293
0.11565331432552783,0.15315739378440274,131,10,20.810144517416358,2.756563577728293
0.11718449863750315,0.15315586256947517,131,10,20.810144517416358,2.756563577728293
0.11871566757399367,0.1531543313699351,131,10,20.810144517416358,2.756563577728293
0.12024682114032675,0.15315280018577623,131,10,20.810144517416358,2.756563577728293
0.12177795934143164,0.15315126901699286,131,10,20.810144517416358,2.756563577728293
0.12330908218187007,0.15314973786357963,131,10,20.810144517416358,2.756563577728293
0.12484018966586456,0.15314820672553164,131,10,20.810144517416358,2.756563577728293
0.12637128179732451,0.15314667560284434,131,10,20.810144517416358,2.756563577728293
0.1279023585798704,0.15314514449551345,131,10,20.810144517416358,2.756563577728293
0.12943342001685573,0.1531436134035351,131,10,20.810144517416358,2.756563577728293
0.13096446611138793,0.15314208232690568,131,10,20.810144517416358,2.756563577728293
0.132495496866347,0.1531405512656218,131,10,20.810144517416358,2.756563577728293
0.13402651228440318,0.15313902021968037,131,10,20.810144517416358,2.756563577728293
0.13555751236803298,0.15313748918907852,131,10,20.810144517416358,2.756563577728293
0.13708849711953422,0.15313595817381356,131,10,20.810144517416358,2.756563577728293
0.13861946654103957,0.15313442717388304,131,10,20.810144517416358,2.756563577728293
0.14015042063452948,0.15313289618928463,131,10,20.810144517416358,2.756563577728293
0.14168135940184381,0.15313136522001622,131,10,20.810144517416358,2.756563577728293
0.1432122828446925,0.15312983426607585,131,10,20.810144517416358,2.756563577728293
0.1447431909646659,0.15312830332746163,131,10,20.810144517416358,2.756563577728293
0.14627408376324355,0.15312677240417186,131,10,20.810144517416358,2.756563577728293
0.14780496124180306,0.153125241496205,131,10,20.810144517416358,2.756563577728293
0.14933582340162777,0.1531237106035595,131,10,20.810144517416358,2.756563577728293
0.15086667024391412,0.15312217972623404,131,10,20.810144517416358,2.756563577728293
0.1523975017697781,0.1531206488642273,131,10,20.810144517416358,2.756563577728293
0.15392831798026183,0.1531191180175381,131,10,20.810144517416358,2.756563577728293
0.15545911887633884,0.15311758718616533,131,10,20.810144517416358,2.756563577728293
0.15698990445891955,0.15311605637010792,131,10,20.810144517416358,2.756563577728293
0.15852067472885628,0.15311452556936495,131,10,20.810144517416358,2.756563577728293
0.16005142968694724,0.15311299478393545,131,10,20.810144517416358,2.756563577728293
0.16158216933394123,0.1531114640138186,131,10,20.810144517416358,2.756563577728293
0.16311289367054116,0.15310993325901356,131,10,20.810144517416358,2.756563577728293
0.1646436026974076,0.15310840251951965,131,10,20.810144517416358,2.756563577728293
0.16617429641516201,0.15310687179533614,131,10,20.810144517416358,2.756563577728293
0.1677049748243899,0.15310534108646234,131,10,20.810144517416358,2.756563577728293
0.16923563792564345,0.15310381039289764,131,10,20.810144517416358,2.756563577728293
0.17076628571944422,0.1531022797146415,131,10,20.810144517416358,2.756563577728293
0.17229691820628518,0.1531007490516933,131,10,20.810144517416358,2.756563577728293
0.1738275353866334,0.15309921840405258,131,10,20.810144517416358,2.756563577728293
0.1753581372609316,0.1530976877717188,131,10,20.810144517416358,2.756563577728293
0.1768887238296004,0.15309615715469152,131,10,20.810144517416358,2.756563577728293
0.17841929509303966,0.1530946265529703,131,10,20.810144517416358,2.756563577728293
0.17994985105163025,0.15309309596655468,131,10,20.810144517416358,2.756563577728293
0.18148039170573552,0.1530915653954443,131,10,20.810144517416358,2.756563577728293
0.18301091705570263,0.15309003483963876,131,10,20.810144517416358,2.756563577728293
0.18454142710186397,0.1530885042991377,131,10,20.810144517416358,2.756563577728293
0.18607192184453786,0.15308697377394082,131,10,20.810144517416358,2.756563577728293
0.18760240128403008,0.1530854432640477,131,10,20.810144517416358,2.756563577728293
0.18913286542063454,0.15308391276945807,131,10,20.810144517416358,2.756563577728293
0.19066331425463437,0.15308238229017163,131,10,20.810144517416358,2.756563577728293
0.1921937477863027,0.15308085182618808,131,10,20.810144517416358,2.756563577728293
0.1937241660159033,0.15307932137750713,131,10,20.810144517416358,2.756563577728293
0.1952545689436915,0.15307779094412852,131,10,20.810144517416358,2.756563577728293
0.19678495656991485,0.15307626052605194,131,10,20.810144517416358,2.756563577728293
0.1983153288948135,0.15307473012327721,131,10,20.810144517416358,2.756563577728293
0.19984568591862079,0.15307319973580402,131,10,20.810144517416358,2.756563577728293
0.20137602764156406,0.15307166936363217,131,10,20.810144517416358,2.756563577728293
0.20290635406386487,0.1530701390067614,131,10,20.810144517416358,2.756563577728293
0.2044366651857395,0.15306860866519148,131,10,20.810144517416358,2.756563577728293
0.2059669610073993,0.15306707833892222,131,10,20.810144517416358,2.756563577728293
0.20749724152905127,0.15306554802795339,131,10,20.810144517416358,2.756563577728293
0.20902750675089807,0.15306401773228476,131,10,20.810144517416358,2.756563577728293
0.2105577566731386,0.15306248745191614,131,10,20.810144517416358,2.756563577728293
0.21208799129596834,0.1530609571868473,131,10,20.810144517416358,2.756563577728293
0.2136182106195793,0.1530594269370781,131,10,20.810144517416358,2.756563577728293
0.2151484146441606,0.1530578967026083,131,10,20.810144517416358,2.756563577728293
0.21667860336989858,0.1530563664834377,131,10,20.810144517416358,2.756563577728293
0.21820877679697698,0.15305483627956615,131,10,20.810144517416358,2.756563577728293
0.21973893492557714,0.15305330609099344,131,10,20.810144517416358,2.756563577728293
0.2212690777558783,0.15305177591771937,131,10,20.810144517416358,2.756563577728293
0.22279920528805763,0.1530502457597438,131,10,20.810144517416358,2.756563577728293
0.22432931752229035,0.1530487156170665,131,10,20.810144517416358,2.756563577728293
0.22585941445875013,0.15304718548968735,131,10,20.810144517416358,2.756563577728293
0.22738949609760897,0.15304565537760614,131,10,20.810144517416358,2.756563577728293
0.2289195624390373,0.1530441252808227,131,10,20.810144517416358,2.756563577728293
0.23044961348320434,0.15304259519933686,131,10,20.810144517416358,2.756563577728293
0.23197964923027797,0.1530410651331484,131,10,20.810144517416358,2.756563577728293
0.233509669680425,0.15303953508225726,131,10,20.810144517416358,2.756563577728293
0.2350396748338111,0.1530380050466632,131,10,20.810144517416358,2.756563577728293
0.236569664690601,0.15303647502636605,131,10,20.810144517416358,2.756563577728293
0.23809963925095853,0.15303494502136566,131,10,20.810144517416358,2.756563577728293
0.23962959851504656,0.15303341503166187,131,10,20.810144517416358,2.756563577728293
0.2411595424830274,0.15303188505725454,131,10,20.810144517416358,2.756563577728293
0.2426894711550624,0.15303035509814344,131,10,20.810144517416358,2.756563577728293
0.24421938453131256,0.15302882515432845,131,10,20.810144517416358,2.756563577728293
0.24574928261193793,0.1530272952258094,131,10,20.810144517416358,2.756563577728293
0.2472791653970982,0.15302576531258616,131,10,20.810144517416358,2.756563577728293
0.24880903288695252,0.15302423541465854,131,10,20.810144517416358,2.756563577728293
0.2503388850816595,0.15302270553202635,131,10,20.810144517416358,2.756563577728293
0.25186872198137744,0.1530211756646895,131,10,20.810144517416358,2.756563577728293
0.253398543586264,0.15301964581264776,131,10,20.810144517416358,2.756563577728293
0.2549283498964767,0.15301811597590104,131,10,20.810144517416358,2.756563577728293
0.2564581409121727,0.15301658615444916,131,10,20.810144517416358,2.756563577728293
0.2579879166335085,0.1530150563482919,131,10,20.810144517416358,2.756563577728293
0.2595176770606408,0.1530135265574292,131,10,20.810144517416358,2.756563577728293
0.2610474221937255,0.15301199678186084,131,10,20.810144517416358,2.756563577728293
0.26257715203291876,0.1530104670215867,131,10,20.810144517416358,2.756563577728293
0.2641068665783762,0.15300893727660658,131,10,20.810144517416358,2.756563577728293
0.26563656583025325,0.15300740754692038,131,10,20.810144517416358,2.756563577728293
0.26716624978870535,0.1530058778325279,131,10,20.810144517416358,2.756563577728293
0.26869591845388746,0.15300434813342897,131,10,20.810144517416358,2.756563577728293
0.27022557182595447,0.1530028184496235,131,10,20.810144517416358,2.756563577728293
0.2717552099050612,0.1530012887811113,131,10,20.810144517416358,2.756563577728293
0.27328483269136217,0.15299975912789218,131,10,20.810144517416358,2.756563577728293
0.274814440185012,0.15299822948996605,131,10,20.810144517416358,2.756563577728293
0.27634403238616506,0.15299669986733272,131,10,20.810144517416358,2.756563577728293
0.2778736092949754,0.15299517025999204,131,10,20.810144517416358,2.756563577728293
0.27940317091159755,0.15299364066794383,131,10,20.810144517416358,2.756563577728293
0.2809327172361851,0.152992111091188,131,10,20.810144517416358,2.756563577728293
0.28246224826889227,0.15299058152972433,131,10,20.810144517416358,2.756563577728293
0.2839917640098728,0.1529890519835527,131,10,20.810144517416358,2.756563577728293
0.2855212644592806,0.15298752245267294,131,10,20.810144517416358,2.756563577728293
0.2870507496172693,0.15298599293708492,131,10,20.810144517416358,2.756563577728293
0.28858021948399254,0.15298446343678845,131,10,20.810144517416358,2.756563577728293
0.29010967405960403,0.15298293395178342,131,10,20.810144517416358,2.756563577728293
0.2916391133442572,0.15298140448206965,131,10,20.810144517416358,2.756563577728293
0.2931685373381055,0.15297987502764698,131,10,20.810144517416358,2.756563577728293
0.29469794604130245,0.15297834558851528,131,10,20.810144517416358,2.756563577728293
0.2962273394540015,0.15297681616467437,131,10,20.810144517416358,2.756563577728293
0.2977567175763558,0.15297528675612412,131,10,20.810144517416358,2.756563577728293
0.2992860804085188,0.15297375736286437,131,10,20.810144517416358,2.756563577728293
0.30081542795064364,0.15297222798489496,131,10,20.810144517416358,2.756563577728293
0.3023447602028838,0.15297069862221574,131,10,20.810144517416358,2.756563577728293
0.30387407716539233,0.15296916927482654,131,10,20.810144517416358,2.756563577728293
0.30540337883832247,0.15296763994272725,131,10,20.810144517416358,2.756563577728293
0.30693266522182727,0.15296611062591767,131,10,20.810144517416358,2.756563577728293
0.30846193631606006,0.15296458132439766,131,10,20.810144517416358,2.756563577728293
0.3099911921211737,0.1529630520381671,131,10,20.810144517416358,2.756563577728293
0.3115204326373214,0.1529615227672258,131,10,20.810144517416358,2.756563577728293
0.3130496578646563,0.1529599935115736,131,10,20.810144517416358,2.756563577728293
0.31457886780333133,0.1529584642712104,131,10,20.810144517416358,2.756563577728293
0.31610806245349954,0.15295693504613597,131,10,20.810144517416358,2.756563577728293
0.31763724181531405,0.15295540583635023,131,10,20.810144517416358,2.756563577728293
0.31916640588892775,0.15295387664185298,131,10,20.810144517416358,2.756563577728293
0.32069555467449373,0.15295234746264408,131,10,20.810144517416358,2.756563577728293
0.3222246881721649,0.1529508182987234,131,10,20.810144517416358,2.756563577728293
0.3237538063820943,0.15294928915009076,131,10,20.810144517416358,2.756563577728293
0.32528290930443476,0.15294776001674598,131,10,20.810144517416358,2.756563577728293
0.3268119969393393,0.15294623089868897,131,10,20.810144517416358,2.756563577728293
0.3283410692869609,0.15294470179591954,131,10,20.810144517416358,2.756563577728293
0.32987012634745233,0.15294317270843755,131,10,20.810144517416358,2.756563577728293
0.33139916812096665,0.15294164363624285,131,10,20.810144517416358,2.756563577728293
0.33292819460765677,0.15294011457933526,131,10,20.810144517416358,2.756563577728293
0.33445720580767546,0.15293858553771467,131,10,20.810144517416358,2.756563577728293
0.33598620172117577,0.15293705651138087,131,10,20.810144517416358,2.756563577728293
0.3375151823483105,0.15293552750033376,131,10,20.810144517416358,2.756563577728293
0.33904414768923263,0.15293399850457318,131,10,20.810144517416358,2.756563577728293
0.34057309774409494,0.15293246952409892,131,10,20.810144517416358,2.756563577728293
0.34210203251305027,0.1529309405589109,131,10,20.810144517416358,2.756563577728293
0.34363095199625165,0.15292941160900894,131,10,20.810144517416358,2.756563577728293
0.34515985619385176,0.1529278826743929,131,10,20.810144517416358,2.756563577728293
0.3466887451060036,0.15292635375506258,131,10,20.810144517416358,2.756563577728293
0.3482176187328599,0.15292482485101788,131,10,20.810144517416358,2.756563577728293
0.34974647707457357,0.15292329596225862,131,10,20.810144517416358,2.756563577728293
0.3512753201312975,0.15292176708878463,131,10,20.810144517416358,2.756563577728293
0.3528041479031844,0.1529202382305958,131,10,20.810144517416358,2.756563577728293
0.3543329603903873,0.15291870938769198,131,10,20.810144517416358,2.756563577728293
0.3558617575930588,0.15291718056007297,131,10,20.810144517416358,2.756563577728293
0.35739053951135197,0.15291565174773866,131,10,20.810144517416358,2.756563577728293
0.3589193061454194,0.15291412295068887,131,10,20.810144517416358,2.756563577728293
0.36044805749541414,0.15291259416892347,131,10,20.810144517416358,2.756563577728293
