Vout,Iout,Irradiance,Temperature,MaxVoltage,MaxPower
0.005265529369909905,1.053116,911,3,20.30641793044642,20.973080279670025
0.015796490745108038,1.053116,911,3,20.30641793044642,20.973080279670025
0.02632723802850282,1.05311062915903,911,3,20.30641793044642,20.973080279670025
0.036857732972664495,1.0531000981976548,911,3,20.30641793044642,20.973080279670025
0.047387963077669445,1.0530895674509084,911,3,20.30641793044642,20.973080279670025
0.05791794062241595,1.0530790369570175,911,3,20.30641793044642,20.973080279670025
0.06844767694147545,1.0530685067279655,911,3,20.30641793044642,20.973080279670025
0.07897718249751731,1.0530579767514738,911,3,20.30641793044642,20.973080279670025
0.08950646694827767,1.053047447016208,911,3,20.30641793044642,20.973080279670025
0.10003553920849217,1.0530369175117047,911,3,20.30641793044642,20.973080279670025
0.11056440750706373,1.0530263882283069,911,3,20.30641793044642,20.973080279670025
0.12109307943983146,1.0530158591570997,911,3,20.30641793044642,20.973080279670025
0.13162156201827965,1.053005330289854,911,3,20.30641793044642,20.973080279670025
0.1421498617144989,1.0529948016189743,911,3,20.30641793044642,20.973080279670025
0.15267798450268805,1.0529842731374486,911,3,20.30641793044642,20.973080279670025
0.1632059358974625,1.0529737448388052,911,3,20.30641793044642,20.973080279670025
0.1737337209892155,1.05296321671707,911,3,20.30641793044642,20.973080279670025
0.18426134447675843,1.052952688766728,911,3,20.30641793044642,20.973080279670025
0.19478881069744963,1.052942160982689,911,3,20.30641793044642,20.973080279670025
0.20531612365500532,1.0529316333602543,911,3,20.30641793044642,20.973080279670025
0.2158432870451703,1.0529211058950865,911,3,20.30641793044642,20.973080279670025
0.2263703042794141,1.0529105785831816,911,3,20.30641793044642,20.973080279670025
0.2368971785068031,1.0529000514208442,911,3,20.30641793044642,20.973080279670025
0.24742391263419092,1.0528895244046628,911,3,20.30641793044642,20.973080279670025
0.25795050934485386,1.052878997531488,911,3,20.30641793044642,20.973080279670025
0.26847697111569385,1.0528684707984133,911,3,20.30641793044642,20.973080279670025
0.2790033002331169,1.0528579442027552,911,3,20.30641793044642,20.973080279670025
0.2895294988076906,1.0528474177420373,911,3,20.30641793044642,20.973080279670025
0.30005556878767264,1.0528368914139723,911,3,20.30641793044642,20.973080279670025
0.3105815119715,1.0528263652164505,911,3,20.30641793044642,20.973080279670025
0.3211073300193161,1.052815839147523,911,3,20.30641793044642,20.973080279670025
0.33163302446361076,1.0528053132053918,911,3,20.30641793044642,20.973080279670025
0.34215859671904314,1.0527947873883967,911,3,20.30641793044642,20.973080279670025
0.3526840480915069,1.052784261695005,911,3,20.30641793044642,20.973080279670025
0.36320937978649925,1.052773736123802,911,3,20.30641793044642,20.973080279670025
0.3737345929168454,1.0527632106734823,911,3,20.30641793044642,20.973080279670025
0.38425968850982906,1.0527526853428397,911,3,20.30641793044642,20.973080279670025
0.39478466751377395,1.052742160130762,911,3,20.30641793044642,20.973080279670025
0.4053095308041192,1.0527316350362215,911,3,20.30641793044642,20.973080279670025
0.41583427918902754,1.05272111005827,911,3,20.30641793044642,20.973080279670025
0.4263589134145609,1.0527105851960323,911,3,20.30641793044642,20.973080279670025
0.43688343416945913,1.0527000604487,911,3,20.30641793044642,20.973080279670025
0.4474078420895503,1.0526895358155268,911,3,20.30641793044642,20.973080279670025
0.4579321377618217,1.0526790112958244,911,3,20.30641793044642,20.973080279670025
0.468456321728178,1.0526684868889569,911,3,20.30641793044642,20.973080279670025
0.4789803944889097,1.052657962594337,911,3,20.30641793044642,20.973080279670025
0.4895043565058952,1.052647438411423,911,3,20.30641793044642,20.973080279670025
0.5000282082055558,1.0526369143397147,911,3,20.30641793044642,20.973080279670025
0.5105519499815848,1.0526263903787503,911,3,20.30641793044642,20.973080279670025
0.5210755821974644,1.052615866528103,911,3,20.30641793044642,20.973080279670025
0.5315991051887914,1.0526053427873794,911,3,20.30641793044642,20.973080279670025
0.5421225192654218,1.0525948191562158,911,3,20.30641793044642,20.973080279670025
0.5526458247134516,1.0525842956342768,911,3,20.30641793044642,20.973080279670025
0.5631690217970458,1.0525737722212527,911,3,20.30641793044642,20.973080279670025
0.5736921107601242,1.0525632489168568,911,3,20.30641793044642,20.973080279670025
0.5842150918279202,1.0525527257208256,911,3,20.30641793044642,20.973080279670025
0.5947379652084186,1.052542202632915,911,3,20.30641793044642,20.973080279670025
0.6052607310936822,1.0525316796528994,911,3,20.30641793044642,20.973080279670025
0.615783389661077,1.0525211567805712,911,3,20.30641793044642,20.973080279670025
0.6263059410744033,1.0525106340157382,911,3,20.30641793044642,20.973080279670025
0.6368283854849394,1.052500111358223,911,3,20.30641793044642,20.973080279670025
0.6473507230324044,1.052489588807862,911,3,20.30641793044642,20.973080279670025
0.6578729538458484,1.0524790663645038,911,3,20.30641793044642,20.973080279670025
0.6683950780444734,1.0524685440280086,911,3,20.30641793044642,20.973080279670025
0.67891709573839,1.0524580217982475,911,3,20.30641793044642,20.973080279670025
0.6894390070293186,1.052447499675101,911,3,20.30641793044642,20.973080279670025
0.6999608120112328,1.0524369776584594,911,3,20.30641793044642,20.973080279670025
0.710482510770958,1.0524264557482206,911,3,20.30641793044642,20.973080279670025
0.7210041033887189,1.052415933944291,911,3,20.30641793044642,20.973080279670025
0.731525589938649,1.0524054122465833,911,3,20.30641793044642,20.973080279670025
0.7420469704892587,1.0523948906550178,911,3,20.30641793044642,20.973080279670025
0.7525682451038677,1.05238436916952,911,3,20.30641793044642,20.973080279670025
0.7630894138410055,1.0523738477900215,911,3,20.30641793044642,20.973080279670025
0.7736104767547779,1.0523633265164591,911,3,20.30641793044642,20.973080279670025
0.7841314338952099,1.052352805348774,911,3,20.30641793044642,20.973080279670025
0.7946522853085578,1.0523422842869126,911,3,20.30641793044642,20.973080279670025
0.8051730310375995,1.0523317633308242,911,3,20.30641793044642,20.973080279670025
0.8156936711219027,1.0523212424804629,911,3,20.30641793044642,20.973080279670025
0.8262142055980717,1.052310721735786,911,3,20.30641793044642,20.973080279670025
0.8367346344999753,1.0523002010967537,911,3,20.30641793044642,20.973080279670025
0.8472549578589571,1.0522896805633297,911,3,20.30641793044642,20.973080279670025
0.8577751757040302,1.05227916013548,911,3,20.30641793044642,20.973080279670025
0.8682952880620559,1.0522686398131729,911,3,20.30641793044642,20.973080279670025
0.87881529495791,1.0522581195963798,911,3,20.30641793044642,20.973080279670025
0.8893351964146352,1.052247599485074,911,3,20.30641793044642,20.973080279670025
0.8998549924535821,1.0522370794792302,911,3,20.30641793044642,20.973080279670025
0.9103746830945391,1.0522265595788254,911,3,20.30641793044642,20.973080279670025
0.9208942683558532,1.0522160397838385,911,3,20.30641793044642,20.973080279670025
0.9314137482545412,1.0522055200942495,911,3,20.30641793044642,20.973080279670025
0.9419331228063906,1.05219500051004,911,3,20.30641793044642,20.973080279670025
0.9524523920260555,1.0521844810311933,911,3,20.30641793044642,20.973080279670025
0.9629715559271433,1.0521739616576935,911,3,20.30641793044642,20.973080279670025
0.9734906145222956,1.0521634423895259,911,3,20.30641793044642,20.973080279670025
0.9840095678232615,1.0521529232266766,911,3,20.30641793044642,20.973080279670025
0.9945284158409681,1.0521424041691334,911,3,20.30641793044642,20.973080279670025
1.0050471585855816,1.0521318852168844,911,3,20.30641793044642,20.973080279670025
1.0155657960665672,1.0521213663699185,911,3,20.30641793044642,20.973080279670025
1.0260843282927428,1.052110847628226,911,3,20.30641793044642,20.973080279670025
1.0366027552723294,1.0521003289917967,911,3,20.30641793044642,20.973080279670025
1.0471210770129953,1.0520898104606224,911,3,20.30641793044642,20.973080279670025
1.0576392935218994,1.0520792920346946,911,3,20.30641793044642,20.973080279670025
1.068157404805732,1.052068773714006,911,3,20.30641793044642,20.973080279670025
1.078675410870749,1.052058255498549,911,3,20.30641793044642,20.973080279670025
1.089193311722805,1.0520477373883168,911,3,20.30641793044642,20.973080279670025
1.099711107367386,1.0520372193833036,911,3,20.30641793044642,20.973080279670025
1.1102287978096363,1.0520267014835034,911,3,20.30641793044642,20.973080279670025
1.120746383054386,1.0520161836889106,911,3,20.30641793044642,20.973080279670025
1.1312638631061733,1.05200566599952,911,3,20.30641793044642,20.973080279670025
1.1417812379692687,1.0519951484153272,911,3,20.30641793044642,20.973080279670025
1.1522985076476957,1.0519846309363272,911,3,20.30641793044642,20.973080279670025
1.1628156721452474,1.0519741135625158,911,3,20.30641793044642,20.973080279670025
1.1733327314655075,1.0519635962938891,911,3,20.30641793044642,20.973080279670025
1.1838496856118637,1.0519530791304434,911,3,20.30641793044642,20.973080279670025
1.1943665345875252,1.0519425620721747,911,3,20.30641793044642,20.973080279670025
1.2048832783955337,1.0519320451190801,911,3,20.30641793044642,20.973080279670025
1.215399917038779,1.0519215282711563,911,3,20.30641793044642,20.973080279670025
1.2259164505200086,1.0519110115283998,911,3,20.30641793044642,20.973080279670025
1.2364328788418395,1.0519004948908084,911,3,20.30641793044642,20.973080279670025
1.2469492020067692,1.0518899783583788,911,3,20.30641793044642,20.973080279670025
1.257465420017182,1.0518794619311087,911,3,20.30641793044642,20.973080279670025
1.2679815328753619,1.0518689456089954,911,3,20.30641793044642,20.973080279670025
1.2784975405834962,1.0518584293920366,911,3,20.30641793044642,20.973080279670025
1.2890134431436857,1.05184791328023,911,3,20.30641793044642,20.973080279670025
1.2995292405579502,1.0518373972735735,911,3,20.30641793044642,20.973080279670025
1.3100449328282353,1.051826881372065,911,3,20.30641793044642,20.973080279670025
1.3205605199564168,1.0518163655757022,911,3,20.30641793044642,20.973080279670025
1.331076001944308,1.0518058498844836,911,3,20.30641793044642,20.973080279670025
1.341591378793663,1.051795334298407,911,3,20.30641793044642,20.973080279670025
1.352106650506182,1.0517848188174705,911,3,20.30641793044642,20.973080279670025
1.3626218170835156,1.0517743034416729,911,3,20.30641793044642,20.973080279670025
1.3731368785272677,1.0517637881710118,911,3,20.30641793044642,20.973080279670025
1.383651834839,1.0517532730054862,911,3,20.30641793044642,20.973080279670025
1.394166686020234,1.0517427579450938,911,3,20.30641793044642,20.973080279670025
1.4046814320724563,1.0517322429898337,911,3,20.30641793044642,20.973080279670025
1.4151960729971198,1.051721728139704,911,3,20.30641793044642,20.973080279670025
1.4257106087956453,1.051711213394703,911,3,20.30641793044642,20.973080279670025
1.4362250394694263,1.05170069875483,911,3,20.30641793044642,20.973080279670025
1.4467393650198297,1.051690184220083,911,3,20.30641793044642,20.973080279670025
1.457253585448197,1.0516796697904607,911,3,20.30641793044642,20.973080279670025
1.4677677007558492,1.0516691554659616,911,3,20.30641793044642,20.973080279670025
1.4782817109440858,1.0516586412465847,911,3,20.30641793044642,20.973080279670025
1.4887956160141862,1.0516481271323286,911,3,20.30641793044642,20.973080279670025
1.4993094159674132,1.0516376131231917,911,3,20.30641793044642,20.973080279670025
1.5098231108050133,1.051627099219173,911,3,20.30641793044642,20.973080279670025
1.520336700528217,1.0516165854202713,911,3,20.30641793044642,20.973080279670025
1.530850185138242,1.051606071726485,911,3,20.30641793044642,20.973080279670025
1.5413635646362926,1.0515955581378131,911,3,20.30641793044642,20.973080279670025
1.551876839023562,1.0515850446542545,911,3,20.30641793044642,20.973080279670025
1.5623900083012312,1.0515745312758078,911,3,20.30641793044642,20.973080279670025
1.5729030724704727,1.051564018002472,911,3,20.30641793044642,20.973080279670025
1.5834160315324481,1.0515535048342455,911,3,20.30641793044642,20.973080279670025
1.5939288854883118,1.0515429917711276,911,3,20.30641793044642,20.973080279670025
1.604441634339209,1.051532478813117,911,3,20.30641793044642,20.973080279670025
1.6149542780862784,1.0515219659602124,911,3,20.30641793044642,20.973080279670025
1.625466816730652,1.0515114532124128,911,3,20.30641793044642,20.973080279670025
1.6359792502734556,1.051500940569717,911,3,20.30641793044642,20.973080279670025
1.6464915787158076,1.051490428032124,911,3,20.30641793044642,20.973080279670025
1.657003802058824,1.0514799155996324,911,3,20.30641793044642,20.973080279670025
1.6675159203036132,1.0514694032722414,911,3,20.30641793044642,20.973080279670025
1.6780279334512807,1.0514588910499496,911,3,20.30641793044642,20.973080279670025
1.6885398415029274,1.051448378932756,911,3,20.30641793044642,20.973080279670025
1.6990516444596497,1.0514378669206597,911,3,20.30641793044642,20.973080279670025
1.7095633423225418,1.051427355013659,911,3,20.30641793044642,20.973080279670025
1.7200749350926925,1.0514168432117537,911,3,20.30641793044642,20.973080279670025
1.73058642277119,1.051406331514942,911,3,20.30641793044642,20.973080279670025
1.7410978053591182,1.051395819923223,911,3,20.30641793044642,20.973080279670025
1.7516090828575586,1.0513853084365956,911,3,20.30641793044642,20.973080279670025
1.762120255267591,1.0513747970550589,911,3,20.30641793044642,20.973080279670025
1.7726313225902914,1.0513642857786116,911,3,20.30641793044642,20.973080279670025
1.7831422848267355,1.0513537746072525,911,3,20.30641793044642,20.973080279670025
1.7936531419779962,1.0513432635409812,911,3,20.30641793044642,20.973080279670025
1.8041638940451448,1.0513327525797957,911,3,20.30641793044642,20.973080279670025
1.8146745410292509,1.0513222417236956,911,3,20.30641793044642,20.973080279670025
1.8251850829313832,1.0513117309726796,911,3,20.30641793044642,20.973080279670025
1.8356955197526084,1.0513012203267464,911,3,20.30641793044642,20.973080279670025
1.846205851493992,1.0512907097858954,911,3,20.30641793044642,20.973080279670025
1.8567160781565986,1.0512801993501253,911,3,20.30641793044642,20.973080279670025
1.8672261997414918,1.051269689019435,911,3,20.30641793044642,20.973080279670025
1.8777362162497337,1.0512591787938235,911,3,20.30641793044642,20.973080279670025
1.8882461276823856,1.0512486686732896,911,3,20.30641793044642,20.973080279670025
1.8987559340405085,1.0512381586578323,911,3,20.30641793044642,20.973080279670025
1.909265635325162,1.0512276487474508,911,3,20.30641793044642,20.973080279670025
1.9197752315374053,1.0512171389421436,911,3,20.30641793044642,20.973080279670025
1.930284722678296,1.05120662924191,911,3,20.30641793044642,20.973080279670025
1.9407941087488931,1.0511961196467488,911,3,20.30641793044642,20.973080279670025
1.9513033897502534,1.0511856101566588,911,3,20.30641793044642,20.973080279670025
1.9618125656834338,1.051175100771639,911,3,20.30641793044642,20.973080279670025
1.9723216365494898,1.0511645914916887,911,3,20.30641793044642,20.973080279670025
1.9828306023494775,1.0511540823168064,911,3,20.30641793044642,20.973080279670025
1.9933394630844528,1.0511435732469914,911,3,20.30641793044642,20.973080279670025
2.00384821875547,1.0511330642822423,911,3,20.30641793044642,20.973080279670025
2.014356869363583,1.051122555422558,911,3,20.30641793044642,20.973080279670025
2.024865414909848,1.051112046667938,911,3,20.30641793044642,20.973080279670025
2.035373855395317,1.0511015380183808,911,3,20.30641793044642,20.973080279670025
2.045882190821045,1.0510910294738853,911,3,20.30641793044642,20.973080279670025
2.056390421188084,1.051080521034451,911,3,20.30641793044642,20.973080279670025
2.0668985464974883,1.051070012700076,911,3,20.30641793044642,20.973080279670025
2.0774065667503114,1.0510595044707598,911,3,20.30641793044642,20.973080279670025
2.0879144819476037,1.0510489963465013,911,3,20.30641793044642,20.973080279670025
2.09842229209042,1.0510384883272992,911,3,20.30641793044642,20.973080279670025
2.1089299971798114,1.0510279804131526,911,3,20.30641793044642,20.973080279670025
2.1194375972168307,1.0510174726040606,911,3,20.30641793044642,20.973080279670025
2.1299450922025303,1.051006964900022,911,3,20.30641793044642,20.973080279670025
2.1404524821379605,1.0509964573010357,911,3,20.30641793044642,20.973080279670025
2.1509597670241747,1.050985949807101,911,3,20.30641793044642,20.973080279670025
2.161466946862223,1.0509754424182163,911,3,20.30641793044642,20.973080279670025
2.171974021653158,1.0509649351343808,911,3,20.30641793044642,20.973080279670025
2.1824809913980308,1.0509544279555936,911,3,20.30641793044642,20.973080279670025
2.1929878560978926,1.0509439208818532,911,3,20.30641793044642,20.973080279670025
2.2034946157537942,1.0509334139131592,911,3,20.30641793044642,20.973080279670025
2.2140012703667877,1.0509229070495099,911,3,20.30641793044642,20.973080279670025
2.2245078199379233,1.0509124002909047,911,3,20.30641793044642,20.973080279670025
2.2350142644682522,1.0509018936373424,911,3,20.30641793044642,20.973080279670025
2.2455206039588247,1.050891387088822,911,3,20.30641793044642,20.973080279670025
2.256026838410693,1.0508808806453422,911,3,20.30641793044642,20.973080279670025
2.266532967824907,1.0508703743069023,911,3,20.30641793044642,20.973080279670025
2.277038992202517,1.0508598680735013,911,3,20.30641793044642,20.973080279670025
2.2875449115445745,1.0508493619451376,911,3,20.30641793044642,20.973080279670025
2.29805072585213,1.0508388559218107,911,3,20.30641793044642,20.973080279670025
2.3085564351262327,1.0508283500035192,911,3,20.30641793044642,20.973080279670025
2.3190620393679344,1.0508178441902623,911,3,20.30641793044642,20.973080279670025
2.3295675385782855,1.0508073384820387,911,3,20.30641793044642,20.973080279670025
2.340072932758336,1.0507968328788475,911,3,20.30641793044642,20.973080279670025
2.350578221909137,1.050786327380688,911,3,20.30641793044642,20.973080279670025
2.3610834060317383,1.0507758219875583,911,3,20.30641793044642,20.973080279670025
2.3715884851271896,1.0507653166994582,911,3,20.30641793044642,20.973080279670025
2.382093459196542,1.050754811516386,911,3,20.30641793044642,20.973080279670025
2.392598328240845,1.050744306438341,911,3,20.30641793044642,20.973080279670025
2.4031030922611505,1.0507338014653222,911,3,20.30641793044642,20.973080279670025
2.413607751258507,1.0507232965973285,911,3,20.30641793044642,20.973080279670025
2.4241123052339657,1.0507127918343586,911,3,20.30641793044642,20.973080279670025
2.4346167541885757,1.0507022871764118,911,3,20.30641793044642,20.973080279670025
2.445121098123388,1.0506917826234867,911,3,20.30641793044642,20.973080279670025
2.4556253370394523,1.0506812781755825,911,3,20.30641793044642,20.973080279670025
2.4661294709378185,1.0506707738326984,911,3,20.30641793044642,20.973080279670025
2.4766334998195374,1.0506602695948326,911,3,20.30641793044642,20.973080279670025
2.4871374236856583,1.0506497654619846,911,3,20.30641793044642,20.973080279670025
2.4976412425372314,1.0506392614341535,911,3,20.30641793044642,20.973080279670025
2.508144956375307,1.0506287575113378,911,3,20.30641793044642,20.973080279670025
2.5186485652009347,1.0506182536935367,911,3,20.30641793044642,20.973080279670025
2.5291520690151645,1.050607749980749,911,3,20.30641793044642,20.973080279670025
2.539655467819047,1.0505972463729736,911,3,20.30641793044642,20.973080279670025
2.550158761613631,1.0505867428702098,911,3,20.30641793044642,20.973080279670025
2.5606619503999672,1.0505762394724563,911,3,20.30641793044642,20.973080279670025
