Vout,Iout,Irradiance,Temperature,MaxVoltage,MaxPower
0.005944052845645715,1.1888219999999998,1041,-4,19.79505247928058,23.14141017881562
0.017832048625774203,1.1888219999999998,1041,-4,19.79505247928058,23.14141017881562
0.02971980272593027,1.1888159370649543,1041,-4,19.79505247928058,23.14141017881562
0.04160727197006687,1.188804049069174,1041,-4,19.79505247928058,23.14141017881562
0.05349444224750278,1.1887921613156802,1041,-4,19.79505247928058,23.14141017881562
0.06538132741941227,1.1887802738476247,1041,-4,19.79505247928058,23.14141017881562
0.07726794028095547,1.1887683866785361,1041,-4,19.79505247928058,23.14141017881562
0.08915429264303601,1.188756499794553,1041,-4,19.79505247928058,23.14141017881562
0.10104039540789932,1.1887446131828803,1041,-4,19.79505247928058,23.14141017881562
0.11292625863904644,1.1887327268317067,1041,-4,19.79505247928058,23.14141017881562
0.12481189162576818,1.1887208407301306,1041,-4,19.79505247928058,23.14141017881562
0.13669730294271407,1.188708954868088,1041,-4,19.79505247928058,23.14141017881562
0.1485825005048781,1.18869706923629,1041,-4,19.79505247928058,23.14141017881562
0.16046749161835352,1.1886851838261616,1041,-4,19.79505247928058,23.14141017881562
0.17235228302718272,1.188673298629788,1041,-4,19.79505247928058,23.14141017881562
0.1842368809566022,1.188661413639863,1041,-4,19.79505247928058,23.14141017881562
0.19612129115296043,1.1886495288496428,1041,-4,19.79505247928058,23.14141017881562
0.2080055189205641,1.1886376442529019,1041,-4,19.79505247928058,23.14141017881562
0.21988956915568975,1.188625759843894,1041,-4,19.79505247928058,23.14141017881562
0.23177344637797792,1.1886138756173148,1041,-4,19.79505247928058,23.14141017881562
0.24365715475941238,1.1886019915682682,1041,-4,19.79505247928058,23.14141017881562
0.25554069815106933,1.1885901076922343,1041,-4,19.79505247928058,23.14141017881562
0.2674240801078083,1.1885782239850413,1041,-4,19.79505247928058,23.14141017881562
0.279307303911064,1.188566340442838,1041,-4,19.79505247928058,23.14141017881562
0.2911903725898835,1.1885544570620696,1041,-4,19.79505247928058,23.14141017881562
0.30307328894034585,1.1885425738394546,1041,-4,19.79505247928058,23.14141017881562
0.3149560555434866,1.1885306907719642,1041,-4,19.79505247928058,23.14141017881562
0.3268386747818438,1.188518807856802,1041,-4,19.79505247928058,23.14141017881562
0.3387211488547306,1.1885069250913873,1041,-4,19.79505247928058,23.14141017881562
0.350603479792333,1.1884950424733371,1041,-4,19.79505247928058,23.14141017881562
0.3624856694687225,1.1884831600004526,1041,-4,19.79505247928058,23.14141017881562
0.3743677196138682,1.1884712776707032,1041,-4,19.79505247928058,23.14141017881562
0.38624963182472405,1.1884593954822151,1041,-4,19.79505247928058,23.14141017881562
0.39813140757546295,1.1884475134332582,1041,-4,19.79505247928058,23.14141017881562
0.410013048226924,1.1884356315222355,1041,-4,19.79505247928058,23.14141017881562
0.42189455503533296,1.188423749747673,1041,-4,19.79505247928058,23.14141017881562
0.43377592916035046,1.1884118681082096,1041,-4,19.79505247928058,23.14141017881562
0.44565717167250274,1.1883999866025896,1041,-4,19.79505247928058,23.14141017881562
0.4575382835600393,1.1883881052296528,1041,-4,19.79505247928058,23.14141017881562
0.46941926573526344,1.1883762239883287,1041,-4,19.79505247928058,23.14141017881562
0.48130011904037606,1.1883643428776292,1041,-4,19.79505247928058,23.14141017881562
0.4931808442528689,1.1883524618966421,1041,-4,19.79505247928058,23.14141017881562
0.5050614420905037,1.1883405810445251,1041,-4,19.79505247928058,23.14141017881562
0.5169419132159079,1.1883287003205008,1041,-4,19.79505247928058,23.14141017881562
0.5288222582408164,1.1883168197238512,1041,-4,19.79505247928058,23.14141017881562
0.5407024777299884,1.1883049392539138,1041,-4,19.79505247928058,23.14141017881562
0.5525825722048198,1.188293058910077,1041,-4,19.79505247928058,23.14141017881562
0.5644625421466819,1.188281178691776,1041,-4,19.79505247928058,23.14141017881562
0.5763423879999994,1.188269298598489,1041,-4,19.79505247928058,23.14141017881562
0.5882221101750935,1.1882574186297352,1041,-4,19.79505247928058,23.14141017881562
0.6001017090508064,1.1882455387850699,1041,-4,19.79505247928058,23.14141017881562
0.6119811849769227,1.188233659064083,1041,-4,19.79505247928058,23.14141017881562
0.6238605382764052,1.1882217794663952,1041,-4,19.79505247928058,23.14141017881562
0.6357397692474593,1.188209899991657,1041,-4,19.79505247928058,23.14141017881562
0.6476188781654367,1.1881980206395455,1041,-4,19.79505247928058,23.14141017881562
0.659497865284595,1.1881861414097623,1041,-4,19.79505247928058,23.14141017881562
0.6713767308397199,1.1881742623020324,1041,-4,19.79505247928058,23.14141017881562
0.6832554750476236,1.188162383316101,1041,-4,19.79505247928058,23.14141017881562
0.695134098108528,1.188150504451734,1041,-4,19.79505247928058,23.14141017881562
0.7070126002073411,1.1881386257087139,1041,-4,19.79505247928058,23.14141017881562
0.7188909815148344,1.1881267470868409,1041,-4,19.79505247928058,23.14141017881562
0.7307692421887321,1.18811486858593,1041,-4,19.79505247928058,23.14141017881562
0.7426473823747137,1.1881029902058102,1041,-4,19.79505247928058,23.14141017881562
0.7545254022073414,1.1880911119463242,1041,-4,19.79505247928058,23.14141017881562
0.7664033018109155,1.188079233807326,1041,-4,19.79505247928058,23.14141017881562
0.7782810813002635,1.1880673557886814,1041,-4,19.79505247928058,23.14141017881562
0.7901587407814693,1.1880554778902654,1041,-4,19.79505247928058,23.14141017881562
0.8020362803525458,1.188043600111964,1041,-4,19.79505247928058,23.14141017881562
0.8139137001040565,1.1880317224536705,1041,-4,19.79505247928058,23.14141017881562
0.8257910001196872,1.1880198449152872,1041,-4,19.79505247928058,23.14141017881562
0.8376681804767768,1.1880079674967234,1041,-4,19.79505247928058,23.14141017881562
0.8495452412468047,1.1879960901978956,1041,-4,19.79505247928058,23.14141017881562
0.8614221824958425,1.1879842130187264,1041,-4,19.79505247928058,23.14141017881562
0.8732990042849681,1.187972335959144,1041,-4,19.79505247928058,23.14141017881562
0.8851757066706526,1.1879604590190826,1041,-4,19.79505247928058,23.14141017881562
0.8970522897051129,1.1879485821984812,1041,-4,19.79505247928058,23.14141017881562
0.9089287534366398,1.1879367054972834,1041,-4,19.79505247928058,23.14141017881562
0.9208050979098996,1.1879248289154365,1041,-4,19.79505247928058,23.14141017881562
0.9326813231662137,1.1879129524528926,1041,-4,19.79505247928058,23.14141017881562
0.9445574292438145,1.187901076109607,1041,-4,19.79505247928058,23.14141017881562
0.9564334161780852,1.1878891998855383,1041,-4,19.79505247928058,23.14141017881562
0.9683092840017773,1.1878773237806484,1041,-4,19.79505247928058,23.14141017881562
0.9801850327452137,1.1878654477949018,1041,-4,19.79505247928058,23.14141017881562
0.9920606624364757,1.1878535719282657,1041,-4,19.79505247928058,23.14141017881562
1.003936173101575,1.18784169618071,1041,-4,19.79505247928058,23.14141017881562
1.015811564764614,1.1878298205522062,1041,-4,19.79505247928058,23.14141017881562
1.0276868374479307,1.1878179450427286,1041,-4,19.79505247928058,23.14141017881562
1.0395619911722365,1.1878060696522532,1041,-4,19.79505247928058,23.14141017881562
1.051437025956741,1.1877941943807573,1041,-4,19.79505247928058,23.14141017881562
1.0633119418192654,1.1877823192282206,1041,-4,19.79505247928058,23.14141017881562
1.0751867387763534,1.1877704441946237,1041,-4,19.79505247928058,23.14141017881562
1.0870614168433652,1.1877585692799486,1041,-4,19.79505247928058,23.14141017881562
1.098935976034571,1.187746694484179,1041,-4,19.79505247928058,23.14141017881562
1.1108104163632346,1.1877348198072994,1041,-4,19.79505247928058,23.14141017881562
1.1226847378416909,1.187722945249296,1041,-4,19.79505247928058,23.14141017881562
1.1345589404814163,1.1877110708101546,1041,-4,19.79505247928058,23.14141017881562
1.1464330242930951,1.1876991964898636,1041,-4,19.79505247928058,23.14141017881562
1.1583069892866826,1.1876873222884112,1041,-4,19.79505247928058,23.14141017881562
1.170180835471458,1.1876754482057872,1041,-4,19.79505247928058,23.14141017881562
1.1820545628560781,1.187663574241981,1041,-4,19.79505247928058,23.14141017881562
1.1939281714486247,1.1876517003969835,1041,-4,19.79505247928058,23.14141017881562
1.2058016612566504,1.1876398266707864,1041,-4,19.79505247928058,23.14141017881562
1.217675032287216,1.187627953063381,1041,-4,19.79505247928058,23.14141017881562
1.2295482845469317,1.1876160795747606,1041,-4,19.79505247928058,23.14141017881562
1.2414214180419907,1.1876042062049172,1041,-4,19.79505247928058,23.14141017881562
1.253294432778199,1.187592332953845,1041,-4,19.79505247928058,23.14141017881562
1.26516732876101,1.1875804598215371,1041,-4,19.79505247928058,23.14141017881562
1.2770401059955465,1.1875685868079884,1041,-4,19.79505247928058,23.14141017881562
1.2889127644866292,1.1875567139131928,1041,-4,19.79505247928058,23.14141017881562
1.3007853042387993,1.1875448411371456,1041,-4,19.79505247928058,23.14141017881562
1.3126577252563403,1.187532968479842,1041,-4,19.79505247928058,23.14141017881562
1.3245300275432967,1.187521095941277,1041,-4,19.79505247928058,23.14141017881562
1.336402211103493,1.1875092235214466,1041,-4,19.79505247928058,23.14141017881562
1.3482742759405515,1.1874973512203468,1041,-4,19.79505247928058,23.14141017881562
1.3601462220579066,1.187485479037974,1041,-4,19.79505247928058,23.14141017881562
1.3720180494588197,1.1874736069743241,1041,-4,19.79505247928058,23.14141017881562
1.383889758146393,1.1874617350293941,1041,-4,19.79505247928058,23.14141017881562
1.39576134812358,1.1874498632031802,1041,-4,19.79505247928058,23.14141017881562
1.4076328193932004,1.1874379914956799,1041,-4,19.79505247928058,23.14141017881562
1.4195041719579469,1.1874261199068898,1041,-4,19.79505247928058,23.14141017881562
1.431375405820396,1.1874142484368075,1041,-4,19.79505247928058,23.14141017881562
1.443246520983018,1.1874023770854298,1041,-4,19.79505247928058,23.14141017881562
1.4551175174481839,1.1873905058527545,1041,-4,19.79505247928058,23.14141017881562
1.4669883952181737,1.1873786347387791,1041,-4,19.79505247928058,23.14141017881562
1.478859154295184,1.187366763743501,1041,-4,19.79505247928058,23.14141017881562
1.4907297946813323,1.1873548928669182,1041,-4,19.79505247928058,23.14141017881562
1.5026003163786652,1.1873430221090282,1041,-4,19.79505247928058,23.14141017881562
1.5144707193891636,1.1873311514698293,1041,-4,19.79505247928058,23.14141017881562
1.5263410037147462,1.187319280949319,1041,-4,19.79505247928058,23.14141017881562
1.5382111693572766,1.1873074105474954,1041,-4,19.79505247928058,23.14141017881562
1.5500812163185647,1.187295540264357,1041,-4,19.79505247928058,23.14141017881562
1.5619511446003738,1.1872836700999014,1041,-4,19.79505247928058,23.14141017881562
1.5738209542044221,1.1872718000541271,1041,-4,19.79505247928058,23.14141017881562
1.5856906451323873,1.1872599301270323,1041,-4,19.79505247928058,23.14141017881562
1.5975602173859096,1.1872480603186153,1041,-4,19.79505247928058,23.14141017881562
1.6094296709665927,1.1872361906288744,1041,-4,19.79505247928058,23.14141017881562
1.6212990058760097,1.187224321057808,1041,-4,19.79505247928058,23.14141017881562
1.6331682221157038,1.187212451605414,1041,-4,19.79505247928058,23.14141017881562
1.6450373196871897,1.1872005822716918,1041,-4,19.79505247928058,23.14141017881562
1.6569062985919583,1.187188713056639,1041,-4,19.79505247928058,23.14141017881562
1.6687751588314752,1.1871768439602544,1041,-4,19.79505247928058,23.14141017881562
1.6806439004071865,1.1871649749825366,1041,-4,19.79505247928058,23.14141017881562
1.6925125233205174,1.187153106123484,1041,-4,19.79505247928058,23.14141017881562
1.7043810275728746,1.1871412373830952,1041,-4,19.79505247928058,23.14141017881562
1.7162494131656472,1.1871293687613687,1041,-4,19.79505247928058,23.14141017881562
1.72811768010021,1.1871175002583032,1041,-4,19.79505247928058,23.14141017881562
1.739985828377923,1.1871056318738973,1041,-4,19.79505247928058,23.14141017881562
1.751853858000132,1.1870937636081496,1041,-4,19.79505247928058,23.14141017881562
1.7637217689681708,1.1870818954610587,1041,-4,19.79505247928058,23.14141017881562
1.7755895612833632,1.1870700274326234,1041,-4,19.79505247928058,23.14141017881562
1.7874572349470201,1.1870581595228422,1041,-4,19.79505247928058,23.14141017881562
1.7993247899604445,1.1870462917317137,1041,-4,19.79505247928058,23.14141017881562
1.81119222632493,1.1870344240592368,1041,-4,19.79505247928058,23.14141017881562
1.8230595440417616,1.1870225565054102,1041,-4,19.79505247928058,23.14141017881562
1.8349267431122172,1.1870106890702325,1041,-4,19.79505247928058,23.14141017881562
1.8467938235375667,1.1869988217537024,1041,-4,19.79505247928058,23.14141017881562
1.8586607853190744,1.1869869545558187,1041,-4,19.79505247928058,23.14141017881562
1.8705276284579981,1.18697508747658,1041,-4,19.79505247928058,23.14141017881562
1.882394352955591,1.1869632205159852,1041,-4,19.79505247928058,23.14141017881562
1.8942609588131005,1.186951353674033,1041,-4,19.79505247928058,23.14141017881562
1.906127446031768,1.1869394869507222,1041,-4,19.79505247928058,23.14141017881562
1.917993814612833,1.1869276203460513,1041,-4,19.79505247928058,23.14141017881562
1.9298600645575295,1.1869157538600195,1041,-4,19.79505247928058,23.14141017881562
1.9417261958670875,1.186903887492625,1041,-4,19.79505247928058,23.14141017881562
1.9535922085427346,1.186892021243867,1041,-4,19.79505247928058,23.14141017881562
1.9654581025856945,1.186880155113744,1041,-4,19.79505247928058,23.14141017881562
1.9773238779971887,1.186868289102255,1041,-4,19.79505247928058,23.14141017881562
1.9891895347784347,1.1868564232093985,1041,-4,19.79505247928058,23.14141017881562
2.001055072930649,1.1868445574351738,1041,-4,19.79505247928058,23.14141017881562
2.012920492455045,1.186832691779579,1041,-4,19.79505247928058,23.14141017881562
2.024785793352834,1.1868208262426134,1041,-4,19.79505247928058,23.14141017881562
2.0366509756252253,1.1868089608242756,1041,-4,19.79505247928058,23.14141017881562
2.048516039273427,1.1867970955245644,1041,-4,19.79505247928058,23.14141017881562
2.0603809842986442,1.1867852303434785,1041,-4,19.79505247928058,23.14141017881562
2.0722458107020816,1.1867733652810168,1041,-4,19.79505247928058,23.14141017881562
2.084110518484942,1.186761500337178,1041,-4,19.79505247928058,23.14141017881562
2.095975107648427,1.186749635511961,1041,-4,19.79505247928058,23.14141017881562
2.107839578193738,1.1867377708053648,1041,-4,19.79505247928058,23.14141017881562
2.119703930122074,1.1867259062173878,1041,-4,19.79505247928058,23.14141017881562
2.1315681634346317,1.186714041748029,1041,-4,19.79505247928058,23.14141017881562
2.14343227813261,1.1867021773972872,1041,-4,19.79505247928058,23.14141017881562
2.155296274217205,1.186690313165161,1041,-4,19.79505247928058,23.14141017881562
2.1671601516896115,1.1866784490516495,1041,-4,19.79505247928058,23.14141017881562
2.179023910551025,1.1866665850567513,1041,-4,19.79505247928058,23.14141017881562
2.1908875508026404,1.1866547211804652,1041,-4,19.79505247928058,23.14141017881562
2.202751072445649,1.1866428574227903,1041,-4,19.79505247928058,23.14141017881562
2.2146144754812456,1.1866309937837252,1041,-4,19.79505247928058,23.14141017881562
2.2264777599106207,1.1866191302632685,1041,-4,19.79505247928058,23.14141017881562
2.2383409257349682,1.1866072668614192,1041,-4,19.79505247928058,23.14141017881562
2.250203972955478,1.1865954035781763,1041,-4,19.79505247928058,23.14141017881562
2.2620669015733417,1.186583540413538,1041,-4,19.79505247928058,23.14141017881562
2.273929711589749,1.186571677367504,1041,-4,19.79505247928058,23.14141017881562
2.2857924030058907,1.1865598144400724,1041,-4,19.79505247928058,23.14141017881562
2.297654975822956,1.1865479516312423,1041,-4,19.79505247928058,23.14141017881562
2.3095174300421344,1.1865360889410126,1041,-4,19.79505247928058,23.14141017881562
2.321379765664615,1.1865242263693816,1041,-4,19.79505247928058,23.14141017881562
2.3332419826915882,1.1865123639163488,1041,-4,19.79505247928058,23.14141017881562
2.3451040811242403,1.1865005015819126,1041,-4,19.79505247928058,23.14141017881562
2.356966060963761,1.1864886393660719,1041,-4,19.79505247928058,23.14141017881562
2.368827922211338,1.1864767772688254,1041,-4,19.79505247928058,23.14141017881562
2.3806896648681595,1.186464915290172,1041,-4,19.79505247928058,23.14141017881562
2.392551288935413,1.1864530534301108,1041,-4,19.79505247928058,23.14141017881562
2.4044127944142852,1.1864411916886402,1041,-4,19.79505247928058,23.14141017881562
2.4162741813059654,1.1864293300657591,1041,-4,19.79505247928058,23.14141017881562
2.42813544961164,1.1864174685614663,1041,-4,19.79505247928058,23.14141017881562
2.439996599332495,1.186405607175761,1041,-4,19.79505247928058,23.14141017881562
2.4518576304697195,1.1863937459086413,1041,-4,19.79505247928058,23.14141017881562
2.4637185430244988,1.1863818847601066,1041,-4,19.79505247928058,23.14141017881562
2.475579336998021,1.1863700237301555,1041,-4,19.79505247928058,23.14141017881562
2.4874400123914704,1.186358162818787,1041,-4,19.79505247928058,23.14141017881562
2.499300569206036,1.1863463020259994,1041,-4,19.79505247928058,23.14141017881562
2.511161007442903,1.186334441351792,1041,-4,19.79505247928058,23.14141017881562
2.523021327103258,1.1863225807961635,1041,-4,19.79505247928058,23.14141017881562
2.5348815281882886,1.1863107203591128,1041,-4,19.79505247928058,23.14141017881562
2.5467416106991787,1.1862988600406386,1041,-4,19.79505247928058,23.14141017881562
2.5586015746371156,1.1862869998407395,1041,-4,19.79505247928058,23.14141017881562
2.5704614200032854,1.1862751397594147,1041,-4,19.79505247928058,23.14141017881562
2.5823211467988743,1.1862632797966628,1041,-4,19.79505247928058,23.14141017881562
2.594180755025068,1.1862514199524825,1041,-4,19.79505247928058,23.14141017881562
2.6060402446830526,1.186239560226873,1041,-4,19.79505247928058,23.14141017881562
2.6178996157740135,1.1862277006198327,1041,-4,19.79505247928058,23.14141017881562
2.6297588682991373,1.1862158411313608,1041,-4,19.79505247928058,23.14141017881562
2.6416180022596083,1.1862039817614558,1041,-4,19.79505247928058,23.14141017881562
2.653477017656614,1.1861921225101166,1041,-4,19.79505247928058,23.14141017881562
2.665335914491339,1.186180263377342,1041,-4,19.79505247928058,23.14141017881562
2.67719469276497,1.1861684043631309,1041,-4,19.79505247928058,23.14141017881562
2.6890533524786915,1.186156545467482,1041,-4,19.79505247928058,23.14141017881562
2.70091189363369,1.1861446866903944,1041,-4,19.79505247928058,23.14141017881562
2.71277031623115,1.1861328280318666,1041,-4,19.79505247928058,23.14141017881562
2.7246286202722576,1.1861209694918975,1041,-4,19.79505247928058,23.14141017881562
2.736486805758199,1.1861091110704858,1041,-4,19.79505247928058,23.14141017881562
2.7483448726901587,1.1860972527676306,1041,-4,19.79505247928058,23.14141017881562
2.7602028210693215,1.1860853945833305,1041,-4,19.79505247928058,23.14141017881562
2.772060650896875,1.1860735365175843,1041,-4,19.79505247928058,23.14141017881562
2.783918362174003,1.186061678570391,1041,-4,19.79505247928058,23.14141017881562
2.7957759549018912,1.1860498207417494,1041,-4,19.79505247928058,23.14141017881562
2.8076334290817253,1.186037963031658,1041,-4,19.79505247928058,23.14141017881562
2.8194907847146897,1.1860261054401158,1041,-4,19.79505247928058,23.14141017881562
2.83134802180197,1.1860142479671218,1041,-4,19.79505247928058,23.14141017881562
2.8432051403447525,1.1860023906126747,1041,-4,19.79505247928058,23.14141017881562
2.855062140344221,1.185990533376773,1041,-4,19.79505247928058,23.14141017881562
