Vout,Iout,Irradiance,Temperature,MaxVoltage,MaxPower
0.0023859270583936696,0.47719,401,20,21.551223516493202,9.819768481020999
0.007157737057131507,0.47719,401,20,21.551223516493202,9.819768481020999
0.011929450046168954,0.4771875663539416,401,20,21.551223516493202,9.819768481020999
0.016701048694755156,0.47718279454394286,401,20,21.551223516493202,9.819768481020999
0.02147252733890007,0.4771780228311972,401,20,21.551223516493202,9.819768481020999
0.02624389154244231,0.4771732512330258,401,20,21.551223516493202,9.819768481020999
0.031015146441325248,0.4771684797548588,401,20,21.551223516493202,9.819768481020999
0.035786296776414275,0.4771637083911324,401,20,21.551223516493202,9.819768481020999
0.04055734692384184,0.4771589371367107,401,20,21.551223516493202,9.819768481020999
0.04532830092307057,0.47715416598685273,401,20,21.551223516493202,9.819768481020999
0.05009916250279717,0.47714939493718245,401,20,21.551223516493202,9.819768481020999
0.05486993510486328,0.4771446239836603,401,20,21.551223516493202,9.819768481020999
0.059640621906326456,0.4771398531225577,401,20,21.551223516493202,9.819768481020999
0.06441122583983319,0.4771350823504327,401,20,21.551223516493202,9.819768481020999
0.06918174961242421,0.47713031166410835,401,20,21.551223516493202,9.819768481020999
0.07395219572289295,0.4771255410606519,401,20,21.551223516493202,9.819768481020999
0.07872256647780847,0.4771207705373564,401,20,21.551223516493202,9.819768481020999
0.08349286400630543,0.477116000091723,401,20,21.551223516493202,9.819768481020999
0.08826309027373624,0.47711122972144515,401,20,21.551223516493202,9.819768481020999
0.09303324709427258,0.47710645942439367,401,20,21.551223516493202,9.819768481020999
0.09780333614253776,0.4771016891986033,401,20,21.551223516493202,9.819768481020999
0.10257335896434351,0.4770969190422598,401,20,21.551223516493202,9.819768481020999
0.1073433169866011,0.47709214895368857,401,20,21.551223516493202,9.819768481020999
0.11211321152646961,0.47708737893134373,401,20,21.551223516493202,9.819768481020999
0.11688304379980059,0.4770826089737985,401,20,21.551223516493202,9.819768481020999
0.12165281492893275,0.47707783907973567,401,20,21.551223516493202,9.819768481020999
0.1264225259498869,0.4770730692479393,401,20,21.551223516493202,9.819768481020999
0.13119217781900747,0.4770682994772872,401,20,21.551223516493202,9.819768481020999
0.13596177141909296,0.4770635297667432,401,20,21.551223516493202,9.819768481020999
0.1407313075650547,0.47705876011535103,401,20,21.551223516493202,9.819768481020999
0.14550078700913996,0.4770539905222279,401,20,21.551223516493202,9.819768481020999
0.15027021044575378,0.47704922098655894,401,20,21.551223516493202,9.819768481020999
0.15503957851590916,0.47704445150759184,401,20,21.551223516493202,9.819768481020999
0.15980889181133529,0.47703968208463216,401,20,21.551223516493202,9.819768481020999
0.1645781508782694,0.47703491271703896,401,20,21.551223516493202,9.819768481020999
0.16934735622095706,0.47703014340422045,401,20,21.551223516493202,9.819768481020999
0.1741165083048831,0.47702537414563045,401,20,21.551223516493202,9.819768481020999
0.17888560755975386,0.4770206049407647,401,20,21.551223516493202,9.819768481020999
0.1836546543822501,0.4770158357891577,401,20,21.551223516493202,9.819768481020999
0.18842364913856788,0.47701106669037974,401,20,21.551223516493202,9.819768481020999
0.1931925921667645,0.4770062976440342,401,20,21.551223516493202,9.819768481020999
0.19796148377892295,0.47700152864975476,401,20,21.551223516493202,9.819768481020999
0.20273032426315105,0.47699675970720345,401,20,21.551223516493202,9.819768481020999
0.20749911388542552,0.4769919908160682,401,20,21.551223516493202,9.819768481020999
0.21226785289129535,0.47698722197606086,401,20,21.551223516493202,9.819768481020999
0.21703654150745305,0.4769824531869155,401,20,21.551223516493202,9.819768481020999
0.22180517994318596,0.4769776844483865,401,20,21.551223516493202,9.819768481020999
0.22657376839171497,0.47697291576024725,401,20,21.551223516493202,9.819768481020999
0.23134230703143102,0.47696814712228836,401,20,21.551223516493202,9.819768481020999
0.2361107960270361,0.4769633785343167,401,20,21.551223516493202,9.819768481020999
0.24087923553059626,0.47695860999615386,401,20,21.551223516493202,9.819768481020999
0.24564762568251422,0.4769538415076351,401,20,21.551223516493202,9.819768481020999
0.2504159666124264,0.4769490730686084,401,20,21.551223516493202,9.819768481020999
0.25518425844003156,0.47694430467893334,401,20,21.551223516493202,9.819768481020999
0.2599525012758553,0.4769395363384803,401,20,21.551223516493202,9.819768481020999
0.2647206952219558,0.4769347680471295,401,20,21.551223516493202,9.819768481020999
0.2694888403725756,0.4769299998047705,401,20,21.551223516493202,9.819768481020999
0.27425693681474234,0.47692523161130124,401,20,21.551223516493202,9.819768481020999
0.2790249846288247,0.4769204634666274,401,20,21.551223516493202,9.819768481020999
0.28379298388904406,0.4769156953706621,401,20,21.551223516493202,9.819768481020999
0.2885609346639479,0.47691092732332485,401,20,21.551223516493202,9.819768481020999
0.2933288370168462,0.47690615932454145,401,20,21.551223516493202,9.819768481020999
0.2980966910062143,0.4769013913742433,401,20,21.551223516493202,9.819768481020999
0.3028644966860651,0.4768966234723672,401,20,21.551223516493202,9.819768481020999
0.30763225410629247,0.47689185561885467,401,20,21.551223516493202,9.819768481020999
0.3123999633129878,0.4768870878136516,401,20,21.551223516493202,9.819768481020999
0.3171676243487329,0.47688232005670816,401,20,21.551223516493202,9.819768481020999
0.32193523725287,0.47687755234797824,401,20,21.551223516493202,9.819768481020999
0.32670280206175084,0.4768727846874193,401,20,21.551223516493202,9.819768481020999
0.3314703188089669,0.4768680170749919,401,20,21.551223516493202,9.819768481020999
0.33623778752556155,0.4768632495106598,401,20,21.551223516493202,9.819768481020999
0.34100520824022673,0.47685848199438935,401,20,21.551223516493202,9.819768481020999
0.34577258097948316,0.4768537145261495,401,20,21.551223516493202,9.819768481020999
0.35053990576784755,0.4768489471059116,401,20,21.551223516493202,9.819768481020999
0.3553071826279871,0.47684417973364907,401,20,21.551223516493202,9.819768481020999
0.36007441158086156,0.47683941240933747,401,20,21.551223516493202,9.819768481020999
0.3648415926458548,0.47683464513295404,401,20,21.551223516493202,9.819768481020999
0.36960872584089577,0.4768298779044779,401,20,21.551223516493202,9.819768481020999
0.3743758111825704,0.4768251107238896,401,20,21.551223516493202,9.819768481020999
0.37914284868622566,0.4768203435911713,401,20,21.551223516493202,9.819768481020999
0.383909838366064,0.47681557650630635,401,20,21.551223516493202,9.819768481020999
0.38867678023523167,0.4768108094692794,401,20,21.551223516493202,9.819768481020999
0.39344367430590027,0.4768060424800763,401,20,21.551223516493202,9.819768481020999
0.3982105205893417,0.47680127553868384,401,20,21.551223516493202,9.819768481020999
0.40297731909599693,0.4767965086450899,401,20,21.551223516493202,9.819768481020999
0.4077440698355404,0.47679174179928313,401,20,21.551223516493202,9.819768481020999
0.41251077281693865,0.47678697500125317,401,20,21.551223516493202,9.819768481020999
0.4172774280485054,0.47678220825099027,401,20,21.551223516493202,9.819768481020999
0.4220440355379509,0.47677744154848556,401,20,21.551223516493202,9.819768481020999
0.426810595292429,0.47677267489373065,401,20,21.551223516493202,9.819768481020999
0.43157710731857996,0.4767679082867179,401,20,21.551223516493202,9.819768481020999
0.4363435716225693,0.4767631417274401,401,20,21.551223516493202,9.819768481020999
0.4411099882101255,0.4767583752158906,401,20,21.551223516493202,9.819768481020999
0.4458763570865721,0.47675360875206324,401,20,21.551223516493202,9.819768481020999
0.45064267825686044,0.4767488423359524,401,20,21.551223516493202,9.819768481020999
0.45540895172559714,0.4767440759675526,401,20,21.551223516493202,9.819768481020999
0.4601751774970711,0.4767393096468589,401,20,21.551223516493202,9.819768481020999
0.46494135557527794,0.4767345433738668,401,20,21.551223516493202,9.819768481020999
0.4697074859639424,0.47672977714857195,401,20,21.551223516493202,9.819768481020999
0.47447356866653945,0.47672501097097036,401,20,21.551223516493202,9.819768481020999
0.4792396036863132,0.47672024484105835,401,20,21.551223516493202,9.819768481020999
0.4840055910262948,0.47671547875883236,401,20,21.551223516493202,9.819768481020999
0.4887715306893189,0.4767107127242892,401,20,21.551223516493202,9.819768481020999
0.4935374226780387,0.47670594673742583,401,20,21.551223516493202,9.819768481020999
0.4983032669949398,0.4767011807982394,401,20,21.551223516493202,9.819768481020999
0.5030690636423534,0.4766964149067273,401,20,21.551223516493202,9.819768481020999
0.5078348126224675,0.47669164906288697,401,20,21.551223516493202,9.819768481020999
0.5126005139373392,0.47668688326671615,401,20,21.551223516493202,9.819768481020999
0.5173661675889034,0.47668211751821266,401,20,21.551223516493202,9.819768481020999
0.5221317735789829,0.47667735181737436,401,20,21.551223516493202,9.819768481020999
0.5268973319092967,0.47667258616419933,401,20,21.551223516493202,9.819768481020999
0.5316628425814683,0.47666782055868584,401,20,21.551223516493202,9.819768481020999
0.5364283055970335,0.4766630550008321,401,20,21.551223516493202,9.819768481020999
0.5411937209574456,0.4766582894906365,401,20,21.551223516493202,9.819768481020999
0.5459590886640836,0.47665352402809746,401,20,21.551223516493202,9.819768481020999
0.5507244087182562,0.4766487586132136,401,20,21.551223516493202,9.819768481020999
0.5554896811212091,0.4766439932459835,401,20,21.551223516493202,9.819768481020999
0.5602549058741276,0.4766392279264059,401,20,21.551223516493202,9.819768481020999
0.5650200829781434,0.47663446265447945,401,20,21.551223516493202,9.819768481020999
0.5697852124343372,0.47662969743020306,401,20,21.551223516493202,9.819768481020999
0.5745502942437435,0.4766249322535756,401,20,21.551223516493202,9.819768481020999
0.5793153284073539,0.47662016712459593,401,20,21.551223516493202,9.819768481020999
0.5840803149261201,0.476615402043263,401,20,21.551223516493202,9.819768481020999
0.5888452538009572,0.47661063700957595,401,20,21.551223516493202,9.819768481020999
0.5936101450327467,0.47660587202353366,401,20,21.551223516493202,9.819768481020999
0.5983749886223388,0.47660110708513537,401,20,21.551223516493202,9.819768481020999
0.6031397845705551,0.4765963421943801,401,20,21.551223516493202,9.819768481020999
0.6079045328781905,0.47659157735126695,401,20,21.551223516493202,9.819768481020999
0.6126692335460153,0.4765868125557952,401,20,21.551223516493202,9.819768481020999
0.6174338865747774,0.4765820478079641,401,20,21.551223516493202,9.819768481020999
0.6221984919652035,0.47657728310777275,401,20,21.551223516493202,9.819768481020999
0.6269630497180012,0.4765725184552204,401,20,21.551223516493202,9.819768481020999
0.6317275598338604,0.4765677538503065,401,20,21.551223516493202,9.819768481020999
0.6364920223134543,0.47656298929303015,401,20,21.551223516493202,9.819768481020999
0.6412564371574412,0.47655822478339077,401,20,21.551223516493202,9.819768481020999
0.646020804366465,0.4765534603213876,401,20,21.551223516493202,9.819768481020999
0.6507851239411572,0.4765486959070201,401,20,21.551223516493202,9.819768481020999
0.6555493958821369,0.4765439315402875,401,20,21.551223516493202,9.819768481020999
0.6603136201900127,0.4765391672211893,401,20,21.551223516493202,9.819768481020999
0.6650777968653826,0.4765344029497247,401,20,21.551223516493202,9.819768481020999
0.6698419259088351,0.47652963872589327,401,20,21.551223516493202,9.819768481020999
0.6746060073209504,0.47652487454969433,401,20,21.551223516493202,9.819768481020999
0.6793700411023005,0.4765201104211273,401,20,21.551223516493202,9.819768481020999
0.6841340272534504,0.4765153463401916,401,20,21.551223516493202,9.819768481020999
0.6888979657749577,0.47651058230688664,401,20,21.551223516493202,9.819768481020999
0.693661856667374,0.4765058183212119,401,20,21.551223516493202,9.819768481020999
0.6984256999312449,0.4765010543831668,401,20,21.551223516493202,9.819768481020999
0.7031894955671113,0.4764962904927508,401,20,21.551223516493202,9.819768481020999
0.7079532435755085,0.4764915266499633,401,20,21.551223516493202,9.819768481020999
0.7127169439569673,0.47648676285480385,401,20,21.551223516493202,9.819768481020999
0.7174805967120146,0.47648199910727185,401,20,21.551223516493202,9.819768481020999
0.7222442018411727,0.47647723540736675,401,20,21.551223516493202,9.819768481020999
0.7270077593449611,0.47647247175508806,401,20,21.551223516493202,9.819768481020999
0.7317712692238956,0.47646770815043527,401,20,21.551223516493202,9.819768481020999
0.7365347314784895,0.4764629445934079,401,20,21.551223516493202,9.819768481020999
0.7412981461092523,0.4764581810840053,401,20,21.551223516493202,9.819768481020999
0.7460615131166913,0.47645341762222704,401,20,21.551223516493202,9.819768481020999
0.7508248325013117,0.47644865420807264,401,20,21.551223516493202,9.819768481020999
0.7555881042636162,0.47644389084154154,401,20,21.551223516493202,9.819768481020999
0.7603513284041056,0.4764391275226333,401,20,21.551223516493202,9.819768481020999
0.7651145049232783,0.4764343642513473,401,20,21.551223516493202,9.819768481020999
0.7698776338216319,0.47642960102768317,401,20,21.551223516493202,9.819768481020999
0.7746407150996614,0.4764248378516403,401,20,21.551223516493202,9.819768481020999
0.7794037487578608,0.4764200747232183,401,20,21.551223516493202,9.819768481020999
0.7841667347967228,0.4764153116424166,401,20,21.551223516493202,9.819768481020999
0.7889296732167387,0.47641054860923465,401,20,21.551223516493202,9.819768481020999
0.7936925640183984,0.47640578562367214,401,20,21.551223516493202,9.819768481020999
0.7984554072021912,0.4764010226857284,401,20,21.551223516493202,9.819768481020999
0.8032182027686049,0.47639625979540307,401,20,21.551223516493202,9.819768481020999
0.8079809507181268,0.47639149695269556,401,20,21.551223516493202,9.819768481020999
0.812743651051243,0.4763867341576054,401,20,21.551223516493202,9.819768481020999
0.8175063037684391,0.47638197141013217,401,20,21.551223516493202,9.819768481020999
0.8222689088701997,0.47637720871027533,401,20,21.551223516493202,9.819768481020999
0.8270314663570087,0.4763724460580344,401,20,21.551223516493202,9.819768481020999
0.8317939762293499,0.4763676834534089,401,20,21.551223516493202,9.819768481020999
0.8365564384877059,0.47636292089639837,401,20,21.551223516493202,9.819768481020999
0.841318853132559,0.4763581583870023,401,20,21.551223516493202,9.819768481020999
0.8460812201643916,0.4763533959252202,401,20,21.551223516493202,9.819768481020999
0.8508435395836841,0.4763486335110516,401,20,21.551223516493202,9.819768481020999
0.8556058113909183,0.476343871144496,401,20,21.551223516493202,9.819768481020999
0.8603680355865744,0.47633910882555297,401,20,21.551223516493202,9.819768481020999
0.8651302121711328,0.47633434655422197,401,20,21.551223516493202,9.819768481020999
0.8698923411450732,0.47632958433050254,401,20,21.551223516493202,9.819768481020999
0.8746544225088755,0.4763248221543942,401,20,21.551223516493202,9.819768481020999
0.8794164562630186,0.4763200600258965,401,20,21.551223516493202,9.819768481020999
0.8841784424079818,0.47631529794500893,401,20,21.551223516493202,9.819768481020999
0.8889403809442439,0.476310535911731,401,20,21.551223516493202,9.819768481020999
0.8937022718722833,0.4763057739260622,401,20,21.551223516493202,9.819768481020999
0.8984641151925786,0.4763010119880022,401,20,21.551223516493202,9.819768481020999
0.9032259109056081,0.47629625009755033,401,20,21.551223516493202,9.819768481020999
0.9079876590118495,0.47629148825470624,401,20,21.551223516493202,9.819768481020999
0.912749359511781,0.4762867264594694,401,20,21.551223516493202,9.819768481020999
0.91751101240588,0.4762819647118393,401,20,21.551223516493202,9.819768481020999
0.9222726176946243,0.4762772030118156,401,20,21.551223516493202,9.819768481020999
0.9270341753784911,0.47627244135939767,401,20,21.551223516493202,9.819768481020999
0.9317956854579578,0.47626767975458506,401,20,21.551223516493202,9.819768481020999
0.9365571479335018,0.47626291819737737,401,20,21.551223516493202,9.819768481020999
0.9413185628055998,0.47625815668777405,401,20,21.551223516493202,9.819768481020999
0.946079930074729,0.4762533952257747,401,20,21.551223516493202,9.819768481020999
0.9508412497413664,0.4762486338113787,401,20,21.551223516493202,9.819768481020999
0.9556025218059886,0.47624387244458577,401,20,21.551223516493202,9.819768481020999
0.9603637462690727,0.47623911112539524,401,20,21.551223516493202,9.819768481020999
0.9651249231310954,0.47623434985380675,401,20,21.551223516493202,9.819768481020999
0.9698860523925331,0.47622958862981984,401,20,21.551223516493202,9.819768481020999
0.9746471340538624,0.4762248274534339,401,20,21.551223516493202,9.819768481020999
0.9794081681155598,0.4762200663246486,401,20,21.551223516493202,9.819768481020999
0.9841691545781017,0.4762153052434634,401,20,21.551223516493202,9.819768481020999
0.9889300934419646,0.4762105442098778,401,20,21.551223516493202,9.819768481020999
0.9936909847076248,0.4762057832238914,401,20,21.551223516493202,9.819768481020999
0.9984518283755586,0.4762010222855036,401,20,21.551223516493202,9.819768481020999
1.0032126244462423,0.47619626139471405,401,20,21.551223516493202,9.819768481020999
1.0079733729201525,0.4761915005515222,401,20,21.551223516493202,9.819768481020999
1.0127340737977646,0.4761867397559276,401,20,21.551223516493202,9.819768481020999
1.0174947270795558,0.4761819790079298,401,20,21.551223516493202,9.819768481020999
1.0222553327660016,0.47617721830752824,401,20,21.551223516493202,9.819768481020999
1.027015890857578,0.47617245765472255,401,20,21.551223516493202,9.819768481020999
1.0317764013547615,0.4761676970495122,401,20,21.551223516493202,9.819768481020999
1.036536864258028,0.47616293649189667,401,20,21.551223516493202,9.819768481020999
1.0412972795678532,0.47615817598187554,401,20,21.551223516493202,9.819768481020999
1.0460576472847136,0.47615341551944834,401,20,21.551223516493202,9.819768481020999
1.0508179674090856,0.47614865510461457,401,20,21.551223516493202,9.819768481020999
1.0555782399414444,0.47614389473737373,401,20,21.551223516493202,9.819768481020999
1.0603384648822658,0.47613913441772543,401,20,21.551223516493202,9.819768481020999
1.0650986422320263,0.47613437414566906,401,20,21.551223516493202,9.819768481020999
1.0698587719912023,0.4761296139212043,401,20,21.551223516493202,9.819768481020999
1.0746188541602686,0.47612485374433056,401,20,21.551223516493202,9.819768481020999
1.0793788887397018,0.4761200936150474,401,20,21.551223516493202,9.819768481020999
1.0841388757299777,0.47611533353335433,401,20,21.551223516493202,9.819768481020999
1.088898815131572,0.47611057349925096,401,20,21.551223516493202,9.819768481020999
1.0936587069449606,0.4761058135127367,401,20,21.551223516493202,9.819768481020999
1.098418551170619,0.4761010535738111,401,20,21.551223516493202,9.819768481020999
1.103178347809024,0.4760962936824737,401,20,21.551223516493202,9.819768481020999
1.1079380968606507,0.47609153383872405,401,20,21.551223516493202,9.819768481020999
1.1126977983259752,0.4760867740425616,401,20,21.551223516493202,9.819768481020999
1.117457452205473,0.47608201429398594,401,20,21.551223516493202,9.819768481020999
1.1222170584996205,0.4760772545929966,401,20,21.551223516493202,9.819768481020999
1.1269766172088929,0.4760724949395931,401,20,21.551223516493202,9.819768481020999
1.1317361283337661,0.47606773533377494,401,20,21.551223516493202,9.819768481020999
