Vout,Iout,Irradiance,Temperature,MaxVoltage,MaxPower
0.005805744175536773,1.1611599999999997,1001,5,20.452636751861327,23.33093751432147
0.017417125172905595,1.1611599999999997,1001,5,20.452636751861327,23.33093751432147
0.029028270113811143,1.1611540781398242,1001,5,20.452636751861327,23.33093751432147
0.04063913682684443,1.1611424667588268,1001,5,20.452636751861327,23.33093751432147
0.05224971152965738,1.1611308556144782,1001,5,20.452636751861327,23.33093751432147
0.06386000776089672,1.1611192447489262,1001,5,20.452636751861327,23.33093751432147
0.07547003801799958,1.1611076341753845,1001,5,20.452636751861327,23.33093751432147
0.08707981383704852,1.1610960238803143,1001,5,20.452636751861327,23.33093751432147
0.09868934586661114,1.1610844138512184,1001,5,20.452636751861327,23.33093751432147
0.11029864393602674,1.1610728040765603,1001,5,20.452636751861327,23.33093751432147
0.1219077171184391,1.1610611945456917,1001,5,20.452636751861327,23.33093751432147
0.1335165737889793,1.1610495852487832,1001,5,20.452636751861327,23.33093751432147
0.14512522167847186,1.1610379761767617,1001,5,20.452636751861327,23.33093751432147
0.15673366792300902,1.1610263673212522,1001,5,20.452636751861327,23.33093751432147
0.1683419191097099,1.1610147586745236,1001,5,20.452636751861327,23.33093751432147
0.17994998131895967,1.16100315022944,1001,5,20.452636751861327,23.33093751432147
0.19155786016339837,1.1609915419794141,1001,5,20.452636751861327,23.33093751432147
0.20316556082390996,1.1609799339183657,1001,5,20.452636751861327,23.33093751432147
0.21477308808284226,1.1609683260406822,1001,5,20.452636751861327,23.33093751432147
0.22638044635467117,1.1609567183411824,1001,5,20.452636751861327,23.33093751432147
0.23798763971430487,1.1609451108150843,1001,5,20.452636751861327,23.33093751432147
0.24959467192321108,1.1609335034579733,1001,5,20.452636751861327,23.33093751432147
0.2612015464535336,1.1609218962657744,1001,5,20.452636751861327,23.33093751432147
0.27280826651035317,1.1609102892347263,1001,5,20.452636751861327,23.33093751432147
0.2844148350522359,1.1608986823613565,1001,5,20.452636751861327,23.33093751432147
0.29602125481020036,1.1608870756424605,1001,5,20.452636751861327,23.33093751432147
0.3076275283052256,1.1608754690750793,1001,5,20.452636751861327,23.33093751432147
0.31923365786441177,1.160863862656482,1001,5,20.452636751861327,23.33093751432147
0.3308396456358976,1.1608522563841477,1001,5,20.452636751861327,23.33093751432147
0.3424454936026297,1.1608406502557491,1001,5,20.452636751861327,23.33093751432147
0.3540512035950731,1.1608290442691382,1001,5,20.452636751861327,23.33093751432147
0.36565677730294316,1.160817438422332,1001,5,20.452636751861327,23.33093751432147
0.377262216286035,1.1608058327135002,1001,5,20.452636751861327,23.33093751432147
0.38886752198422037,1.160794227140953,1001,5,20.452636751861327,23.33093751432147
0.4004726957266735,1.1607826217031305,1001,5,20.452636751861327,23.33093751432147
0.4120777387403896,1.1607710163985927,1001,5,20.452636751861327,23.33093751432147
0.42368265215804607,1.160759411226011,1001,5,20.452636751861327,23.33093751432147
0.4352874370252599,1.1607478061841576,1001,5,20.452636751861327,23.33093751432147
0.4468920943072851,1.1607362012719005,1001,5,20.452636751861327,23.33093751432147
0.4584966248951977,1.1607245964881938,1001,5,20.452636751861327,23.33093751432147
0.47010102961160155,1.1607129918320724,1001,5,20.452636751861327,23.33093751432147
0.48170530921589744,1.1607013873026448,1001,5,20.452636751861327,23.33093751432147
0.4933094644091458,1.160689782899089,1001,5,20.452636751861327,23.33093751432147
0.504913495838556,1.160678178620645,1001,5,20.452636751861327,23.33093751432147
0.516517404101629,1.1606665744666123,1001,5,20.452636751861327,23.33093751432147
0.5281211897499823,1.1606549704363434,1001,5,20.452636751861327,23.33093751432147
0.5397248532928806,1.1606433665292406,1001,5,20.452636751861327,23.33093751432147
0.5513283952004937,1.1606317627447527,1001,5,20.452636751861327,23.33093751432147
0.5629318159069057,1.1606201590823702,1001,5,20.452636751861327,23.33093751432147
0.5745351158128901,1.160608555541623,1001,5,20.452636751861327,23.33093751432147
0.5861382952884743,1.160596952122077,1001,5,20.452636751861327,23.33093751432147
0.5977413546753034,1.1605853488233313,1001,5,20.452636751861327,23.33093751432147
0.609344294288826,1.160573745645016,1001,5,20.452636751861327,23.33093751432147
0.6209471144203084,1.1605621425867896,1001,5,20.452636751861327,23.33093751432147
0.6325498153386954,1.1605505396483364,1001,5,20.452636751861327,23.33093751432147
0.6441523972923284,1.1605389368293653,1001,5,20.452636751861327,23.33093751432147
0.6557548605105299,1.1605273341296072,1001,5,20.452636751861327,23.33093751432147
0.6673572052050675,1.1605157315488137,1001,5,20.452636751861327,23.33093751432147
0.678959431571504,1.1605041290867557,1001,5,20.452636751861327,23.33093751432147
0.6905615397904447,1.1604925267432216,1001,5,20.452636751861327,23.33093751432147
0.7021635300286879,1.1604809245180154,1001,5,20.452636751861327,23.33093751432147
0.7137654024402877,1.1604693224109566,1001,5,20.452636751861327,23.33093751432147
0.7253671571675342,1.1604577204218787,1001,5,20.452636751861327,23.33093751432147
0.7369687943418579,1.1604461185506272,1001,5,20.452636751861327,23.33093751432147
0.7485703140846675,1.1604345167970602,1001,5,20.452636751861327,23.33093751432147
0.7601717165081178,1.1604229151610461,1001,5,20.452636751861327,23.33093751432147
0.7717730017158251,1.1604113136424634,1001,5,20.452636751861327,23.33093751432147
0.7833741698035214,1.1603997122412002,1001,5,20.452636751861327,23.33093751432147
0.7949752208596625,1.1603881109571526,1001,5,20.452636751861327,23.33093751432147
0.8065761549659878,1.160376509790225,1001,5,20.452636751861327,23.33093751432147
0.8181769721980362,1.160364908740329,1001,5,20.452636751861327,23.33093751432147
0.8297776726256239,1.1603533078073829,1001,5,20.452636751861327,23.33093751432147
0.8413782563132849,1.160341706991311,1001,5,20.452636751861327,23.33093751432147
0.8529787233206764,1.1603301062920433,1001,5,20.452636751861327,23.33093751432147
0.8645790737029553,1.1603185057095158,1001,5,20.452636751861327,23.33093751432147
0.8761793075111233,1.1603069052436685,1001,5,20.452636751861327,23.33093751432147
0.8877794247923478,1.1602953048944462,1001,5,20.452636751861327,23.33093751432147
0.8993794255902557,1.1602837046617982,1001,5,20.452636751861327,23.33093751432147
0.9109793099452067,1.160272104545677,1001,5,20.452636751861327,23.33093751432147
0.922579077894544,1.160260504546039,1001,5,20.452636751861327,23.33093751432147
0.9341787294728271,1.1602489046628441,1001,5,20.452636751861327,23.33093751432147
0.9457782647120457,1.1602373048960548,1001,5,20.452636751861327,23.33093751432147
0.9573776836418171,1.1602257052456364,1001,5,20.452636751861327,23.33093751432147
0.9689769862895692,1.1602141057115571,1001,5,20.452636751861327,23.33093751432147
0.9805761726807083,1.1602025062937875,1001,5,20.452636751861327,23.33093751432147
0.9921752428387758,1.1601909069922995,1001,5,20.452636751861327,23.33093751432147
1.0037741967855902,1.1601793078070683,1001,5,20.452636751861327,23.33093751432147
1.0153730345413814,1.1601677087380702,1001,5,20.452636751861327,23.33093751432147
1.026971756124911,1.1601561097852833,1001,5,20.452636751861327,23.33093751432147
1.0385703615535866,1.1601445109486874,1001,5,20.452636751861327,23.33093751432147
1.0501688508435665,1.1601329122282638,1001,5,20.452636751861327,23.33093751432147
1.061767224009853,1.1601213136239952,1001,5,20.452636751861327,23.33093751432147
1.0733654810663853,1.160109715135865,1001,5,20.452636751861327,23.33093751432147
1.0849636220261176,1.1600981167638584,1001,5,20.452636751861327,23.33093751432147
1.0965616469010984,1.1600865185079619,1001,5,20.452636751861327,23.33093751432147
1.1081595557025363,1.160074920368162,1001,5,20.452636751861327,23.33093751432147
1.1197573484408685,1.1600633223444468,1001,5,20.452636751861327,23.33093751432147
1.131355025125817,1.1600517244368052,1001,5,20.452636751861327,23.33093751432147
1.142952585766446,1.1600401266452267,1001,5,20.452636751861327,23.33093751432147
1.1545500303712108,1.1600285289697014,1001,5,20.452636751861327,23.33093751432147
1.1661473589480051,1.1600169314102207,1001,5,20.452636751861327,23.33093751432147
1.177744571504205,1.1600053339667757,1001,5,20.452636751861327,23.33093751432147
1.1893416680467082,1.1599937366393587,1001,5,20.452636751861327,23.33093751432147
1.2009386485819704,1.1599821394279621,1001,5,20.452636751861327,23.33093751432147
1.2125355131160407,1.1599705423325795,1001,5,20.452636751861327,23.33093751432147
1.2241322616545907,1.1599589453532038,1001,5,20.452636751861327,23.33093751432147
1.2357288942029454,1.1599473484898295,1001,5,20.452636751861327,23.33093751432147
1.2473254107661098,1.1599357517424507,1001,5,20.452636751861327,23.33093751432147
1.2589218113487923,1.159924155111062,1001,5,20.452636751861327,23.33093751432147
1.270518095955428,1.1599125585956584,1001,5,20.452636751861327,23.33093751432147
1.2821142645902008,1.1599009621962355,1001,5,20.452636751861327,23.33093751432147
1.293710317257061,1.1598893659127885,1001,5,20.452636751861327,23.33093751432147
1.3053062539597446,1.1598777697453133,1001,5,20.452636751861327,23.33093751432147
1.316902074701789,1.159866173693806,1001,5,20.452636751861327,23.33093751432147
1.328497779486549,1.159854577758263,1001,5,20.452636751861327,23.33093751432147
1.3400933683172103,1.1598429819386806,1001,5,20.452636751861327,23.33093751432147
1.3516888411968024,1.1598313862350553,1001,5,20.452636751861327,23.33093751432147
1.3632841981282109,1.1598197906473844,1001,5,20.452636751861327,23.33093751432147
1.374879439114189,1.1598081951756642,1001,5,20.452636751861327,23.33093751432147
1.3864745641573668,1.1597965998198925,1001,5,20.452636751861327,23.33093751432147
1.3980695732602615,1.159785004580066,1001,5,20.452636751861327,23.33093751432147
1.4096644664252853,1.1597734094561825,1001,5,20.452636751861327,23.33093751432147
1.4212592436547546,1.1597618144482391,1001,5,20.452636751861327,23.33093751432147
1.4328539049508964,1.1597502195562335,1001,5,20.452636751861327,23.33093751432147
1.4444484503158548,1.1597386247801635,1001,5,20.452636751861327,23.33093751432147
1.4560428797516998,1.1597270301200269,1001,5,20.452636751861327,23.33093751432147
1.4676371932604297,1.1597154355758215,1001,5,20.452636751861327,23.33093751432147
1.479231390843979,1.159703841147545,1001,5,20.452636751861327,23.33093751432147
1.4908254725042218,1.1596922468351958,1001,5,20.452636751861327,23.33093751432147
1.5024194382429785,1.1596806526387717,1001,5,20.452636751861327,23.33093751432147
1.5140132880620176,1.1596690585582707,1001,5,20.452636751861327,23.33093751432147
1.5256070219630604,1.1596574645936915,1001,5,20.452636751861327,23.33093751432147
1.5372006399477853,1.159645870745032,1001,5,20.452636751861327,23.33093751432147
1.5487941420178313,1.1596342770122903,1001,5,20.452636751861327,23.33093751432147
1.5603875281748,1.1596226833954648,1001,5,20.452636751861327,23.33093751432147
1.571980798420258,1.1596110898945542,1001,5,20.452636751861327,23.33093751432147
1.5835739527557418,1.1595994965095566,1001,5,20.452636751861327,23.33093751432147
1.5951669911827588,1.1595879032404706,1001,5,20.452636751861327,23.33093751432147
1.6067599137027881,1.1595763100872944,1001,5,20.452636751861327,23.33093751432147
1.6183527203172865,1.1595647170500267,1001,5,20.452636751861327,23.33093751432147
1.6299454110276852,1.1595531241286658,1001,5,20.452636751861327,23.33093751432147
1.6415379858353971,1.1595415313232107,1001,5,20.452636751861327,23.33093751432147
1.6531304447418127,1.1595299386336597,1001,5,20.452636751861327,23.33093751432147
1.664722787748307,1.1595183460600111,1001,5,20.452636751861327,23.33093751432147
1.6763150148562376,1.159506753602264,1001,5,20.452636751861327,23.33093751432147
1.6879071260669465,1.1594951612604167,1001,5,20.452636751861327,23.33093751432147
1.6994991213817614,1.1594835690344683,1001,5,20.452636751861327,23.33093751432147
1.7110910008019982,1.1594719769244166,1001,5,20.452636751861327,23.33093751432147
1.7226827643289588,1.1594603849302612,1001,5,20.452636751861327,23.33093751432147
1.7342744119639357,1.159448793052,1001,5,20.452636751861327,23.33093751432147
1.7458659437082102,1.1594372012896323,1001,5,20.452636751861327,23.33093751432147
1.7574573595630547,1.1594256096431566,1001,5,20.452636751861327,23.33093751432147
1.769048659529733,1.1594140181125714,1001,5,20.452636751861327,23.33093751432147
1.7806398436094997,1.1594024266978757,1001,5,20.452636751861327,23.33093751432147
1.7922309118036024,1.1593908353990683,1001,5,20.452636751861327,23.33093751432147
1.8038218641132826,1.1593792442161477,1001,5,20.452636751861327,23.33093751432147
1.815412700539775,1.1593676531491126,1001,5,20.452636751861327,23.33093751432147
1.8270034210843082,1.159356062197962,1001,5,20.452636751861327,23.33093751432147
1.838594025748106,1.1593444713626946,1001,5,20.452636751861327,23.33093751432147
1.850184514532386,1.1593328806433092,1001,5,20.452636751861327,23.33093751432147
1.8617748874383617,1.1593212900398044,1001,5,20.452636751861327,23.33093751432147
1.8733651444672437,1.1593096995521792,1001,5,20.452636751861327,23.33093751432147
1.884955285620237,1.1592981091804324,1001,5,20.452636751861327,23.33093751432147
1.896545310898543,1.1592865189245625,1001,5,20.452636751861327,23.33093751432147
1.9081352203033608,1.1592749287845685,1001,5,20.452636751861327,23.33093751432147
1.9197250138358861,1.1592633387604494,1001,5,20.452636751861327,23.33093751432147
1.9313146914973112,1.1592517488522036,1001,5,20.452636751861327,23.33093751432147
1.9429042532888257,1.15924015905983,1001,5,20.452636751861327,23.33093751432147
1.9544936992116173,1.1592285693833275,1001,5,20.452636751861327,23.33093751432147
1.966083029266872,1.159216979822695,1001,5,20.452636751861327,23.33093751432147
1.977672243455772,1.1592053903779311,1001,5,20.452636751861327,23.33093751432147
1.9892613417794993,1.1591938010490348,1001,5,20.452636751861327,23.33093751432147
2.000850324239233,1.159182211836005,1001,5,20.452636751861327,23.33093751432147
2.012439190836151,1.15917062273884,1001,5,20.452636751861327,23.33093751432147
2.0240279415714295,1.1591590337575393,1001,5,20.452636751861327,23.33093751432147
2.0356165764462446,1.1591474448921013,1001,5,20.452636751861327,23.33093751432147
2.047205095461768,1.159135856142525,1001,5,20.452636751861327,23.33093751432147
2.0587934986191745,1.159124267508809,1001,5,20.452636751861327,23.33093751432147
2.0703817859196327,1.1591126789909523,1001,5,20.452636751861327,23.33093751432147
2.081969957364315,1.1591010905889538,1001,5,20.452636751861327,23.33093751432147
2.0935580129543903,1.1590895023028123,1001,5,20.452636751861327,23.33093751432147
2.1051459526910272,1.1590779141325265,1001,5,20.452636751861327,23.33093751432147
2.1167337765753937,1.1590663260780951,1001,5,20.452636751861327,23.33093751432147
2.1283214846086564,1.1590547381395173,1001,5,20.452636751861327,23.33093751432147
2.1399090767919815,1.1590431503167917,1001,5,20.452636751861327,23.33093751432147
2.151496553126534,1.1590315626099172,1001,5,20.452636751861327,23.33093751432147
2.1630839136134816,1.1590199750188928,1001,5,20.452636751861327,23.33093751432147
2.174671158253986,1.159008387543717,1001,5,20.452636751861327,23.33093751432147
2.186258287049213,1.1589968001843887,1001,5,20.452636751861327,23.33093751432147
2.197845300000325,1.158985212940907,1001,5,20.452636751861327,23.33093751432147
2.2094321971084865,1.1589736258132706,1001,5,20.452636751861327,23.33093751432147
2.221018978374859,1.158962038801478,1001,5,20.452636751861327,23.33093751432147
2.2326056438006057,1.1589504519055287,1001,5,20.452636751861327,23.33093751432147
2.2441921933868882,1.158938865125421,1001,5,20.452636751861327,23.33093751432147
2.2557786271348683,1.158927278461154,1001,5,20.452636751861327,23.33093751432147
2.267364945045708,1.1589156919127264,1001,5,20.452636751861327,23.33093751432147
2.2789511471205675,1.158904105480137,1001,5,20.452636751861327,23.33093751432147
2.2905372333606095,1.1588925191633848,1001,5,20.452636751861327,23.33093751432147
2.302123203766993,1.1588809329624685,1001,5,20.452636751861327,23.33093751432147
2.313709058340879,1.1588693468773872,1001,5,20.452636751861327,23.33093751432147
2.3252947970834277,1.1588577609081394,1001,5,20.452636751861327,23.33093751432147
2.3368804199958,1.158846175054724,1001,5,20.452636751861327,23.33093751432147
2.348465927079155,1.1588345893171403,1001,5,20.452636751861327,23.33093751432147
2.360051318334652,1.1588230036953864,1001,5,20.452636751861327,23.33093751432147
2.371636593763452,1.1588114181894618,1001,5,20.452636751861327,23.33093751432147
2.3832217533667133,1.1587998327993647,1001,5,20.452636751861327,23.33093751432147
2.3948067971455966,1.1587882475250946,1001,5,20.452636751861327,23.33093751432147
2.4063917251012596,1.1587766623666498,1001,5,20.452636751861327,23.33093751432147
2.4179765372348627,1.1587650773240294,1001,5,20.452636751861327,23.33093751432147
2.4295612335475645,1.1587534923972322,1001,5,20.452636751861327,23.33093751432147
2.4411458140405236,1.158741907586257,1001,5,20.452636751861327,23.33093751432147
2.4527302787149,1.158730322891103,1001,5,20.452636751861327,23.33093751432147
2.464314627571851,1.1587187383117685,1001,5,20.452636751861327,23.33093751432147
2.475898860612536,1.1587071538482525,1001,5,20.452636751861327,23.33093751432147
2.487482977838113,1.158695569500554,1001,5,20.452636751861327,23.33093751432147
2.499066979249741,1.158683985268672,1001,5,20.452636751861327,23.33093751432147
2.5106508648485795,1.1586724011526046,1001,5,20.452636751861327,23.33093751432147
2.5222346346357853,1.1586608171523516,1001,5,20.452636751861327,23.33093751432147
2.533818288612518,1.158649233267911,1001,5,20.452636751861327,23.33093751432147
2.545401826779935,1.1586376494992823,1001,5,20.452636751861327,23.33093751432147
2.556985249139195,1.158626065846464,1001,5,20.452636751861327,23.33093751432147
2.568568555691457,1.1586144823094549,1001,5,20.452636751861327,23.33093751432147
2.5801517464378776,1.158602898888254,1001,5,20.452636751861327,23.33093751432147
2.591734821379616,1.15859131558286,1001,5,20.452636751861327,23.33093751432147
2.6033177805178305,1.158579732393272,1001,5,20.452636751861327,23.33093751432147
2.614900623853678,1.1585681493194886,1001,5,20.452636751861327,23.33093751432147
2.626483351388317,1.1585565663615087,1001,5,20.452636751861327,23.33093751432147
2.6380659631229064,1.158544983519331,1001,5,20.452636751861327,23.33093751432147
2.649648459058604,1.1585334007929549,1001,5,20.452636751861327,23.33093751432147
2.6612308391965662,1.1585218181823784,1001,5,20.452636751861327,23.33093751432147
2.6728131035379525,1.1585102356876011,1001,5,20.452636751861327,23.33093751432147
2.68439525208392,1.1584986533086215,1001,5,20.452636751861327,23.33093751432147
2.6959772848356267,1.1584870710454382,1001,5,20.452636751861327,23.33093751432147
2.707559201794231,1.1584754888980504,1001,5,20.452636751861327,23.33093751432147
2.71914100296089,1.158463906866457,1001,5,20.452636751861327,23.33093751432147
2.730722688336762,1.1584523249506566,1001,5,20.452636751861327,23.33093751432147
2.7423042579230037,1.1584407431506483,1001,5,20.452636751861327,23.33093751432147
2.753885711720774,1.1584291614664306,1001,5,20.452636751861327,23.33093751432147
2.76546704973123,1.1584175798980025,1001,5,20.452636751861327,23.33093751432147
2.7770482719555294,1.1584059984453627,1001,5,20.452636751861327,23.33093751432147
2.788629378394831,1.1583944171085105,1001,5,20.452636751861327,23.33093751432147
