Vout,Iout,Irradiance,Temperature,MaxVoltage,MaxPower
0.0006160940760184998,0.12322,101,35,22.331861715381603,2.2530647780654576
0.0018482708358929238,0.12322,101,35,22.331861715381603,2.2530647780654576
0.0030804225459228783,0.12321937158392397,101,35,22.331861715381603,2.2530647780654576
0.0043125447309619435,0.1232181394071641,101,35,22.331861715381603,2.2530647780654576
0.0055446359284546335,0.12321690725551691,101,35,22.331861715381603,2.2530647780654576
0.006776697575095332,0.12321567513345509,101,35,22.331861715381603,2.2530647780654576
0.008008730997087318,0.12321444304238081,101,35,22.331861715381603,2.2530647780654576
0.009240737418616833,0.12321321098085738,101,35,22.331861715381603,2.2530647780654576
0.010472717969688784,0.1232119789475586,101,35,22.331861715381603,2.2530647780654576
0.011704673693373194,0.12321074694126029,101,35,22.331861715381603,2.2530647780654576
0.012936605552494115,0.1232095149608324,101,35,22.331861715381603,2.2530647780654576
0.014168514435803874,0.12320828300523193,101,35,22.331861715381603,2.2530647780654576
0.015400401163682272,0.12320705107349601,101,35,22.331861715381603,2.2530647780654576
0.016632266493397267,0.12320581916473589,101,35,22.331861715381603,2.2530647780654576
0.017864111123960916,0.1232045872781312,101,35,22.331861715381603,2.2530647780654576
0.01909593570061164,0.12320335541292468,101,35,22.331861715381603,2.2530647780654576
0.02032774081895169,0.12320212356841731,101,35,22.331861715381603,2.2530647780654576
0.021559527028766224,0.12320089174396384,101,35,22.331861715381603,2.2530647780654576
0.022791294837548517,0.12319965993896868,101,35,22.331861715381603,2.2530647780654576
0.024023044713753994,0.12319842815288205,101,35,22.331861715381603,2.2530647780654576
0.025254777089803865,0.12319719638519645,101,35,22.331861715381603,2.2530647780654576
0.026486492364857624,0.12319596463544343,101,35,22.331861715381603,2.2530647780654576
0.0277181909073723,0.12319473290319055,101,35,22.331861715381603,2.2530647780654576
0.02894987305746471,0.12319350118803868,101,35,22.331861715381603,2.2530647780654576
0.03018153912909204,0.12319226948961934,101,35,22.331861715381603,2.2530647780654576
0.03141318941206457,0.12319103780759241,101,35,22.331861715381603,2.2530647780654576
0.03264482417390361,0.12318980614164396,101,35,22.331861715381603,2.2530647780654576
0.0338764436615564,0.12318857449148415,101,35,22.331861715381603,2.2530647780654576
0.03510804810297918,0.12318734285684547,101,35,22.331861715381603,2.2530647780654576
0.03633963770859833,0.123186111237481,101,35,22.331861715381603,2.2530647780654576
0.037571212672659164,0.12318487963316273,101,35,22.331861715381603,2.2530647780654576
0.03880277317447092,0.12318364804368027,101,35,22.331861715381603,2.2530647780654576
0.040034319379556,0.12318241646883937,101,35,22.331861715381603,2.2530647780654576
0.041265851440710696,0.12318118490846072,101,35,22.331861715381603,2.2530647780654576
0.04249736949898439,0.12317995336237879,101,35,22.331861715381603,2.2530647780654576
0.043728873684583364,0.12317872183044079,101,35,22.331861715381603,2.2530647780654576
0.04496036411770511,0.12317749031250567,101,35,22.331861715381603,2.2530647780654576
0.04619184090930839,0.12317625880844323,101,35,22.331861715381603,2.2530647780654576
0.04742330416182413,0.12317502731813326,101,35,22.331861715381603,2.2530647780654576
0.04865475396981147,0.1231737958414648,101,35,22.331861715381603,2.2530647780654576
0.04988619042056354,0.12317256437833544,101,35,22.331861715381603,2.2530647780654576
0.05111761359466645,0.1231713329286506,101,35,22.331861715381603,2.2530647780654576
0.05234902356651535,0.12317010149232299,101,35,22.331861715381603,2.2530647780654576
0.05358042040479081,0.12316887006927203,101,35,22.331861715381603,2.2530647780654576
0.05481180417289843,0.12316763865942333,101,35,22.331861715381603,2.2530647780654576
0.056043174929374794,0.1231664072627082,101,35,22.331861715381603,2.2530647780654576
0.05727453272826205,0.12316517587906323,101,35,22.331861715381603,2.2530647780654576
0.0585058776194537,0.12316394450842989,101,35,22.331861715381603,2.2530647780654576
0.05973720964901386,0.12316271315075415,101,35,22.331861715381603,2.2530647780654576
0.06096852885947187,0.12316148180598609,101,35,22.331861715381603,2.2530647780654576
0.06219983529009424,0.12316025047407966,101,35,22.331861715381603,2.2530647780654576
0.06343112897713571,0.12315901915499235,101,35,22.331861715381603,2.2530647780654576
0.06466240995407108,0.12315778784868485,101,35,22.331861715381603,2.2530647780654576
0.0658936782518089,0.12315655655512095,101,35,22.331861715381603,2.2530647780654576
0.06712493389888909,0.12315532527426715,101,35,22.331861715381603,2.2530647780654576
0.06835617692166517,0.12315409400609253,101,35,22.331861715381603,2.2530647780654576
0.06958740734447233,0.12315286275056858,101,35,22.331861715381603,2.2530647780654576
0.07081862518978299,0.12315163150766893,101,35,22.331861715381603,2.2530647780654576
0.07204983047834984,0.12315040027736925,101,35,22.331861715381603,2.2530647780654576
0.07328102322933842,0.12314916905964707,101,35,22.331861715381603,2.2530647780654576
0.07451220346044898,0.12314793785448162,101,35,22.331861715381603,2.2530647780654576
0.07574337118802944,0.12314670666185375,101,35,22.331861715381603,2.2530647780654576
0.07697452642717934,0.12314547548174576,101,35,22.331861715381603,2.2530647780654576
0.07820566919184585,0.1231442443141413,101,35,22.331861715381603,2.2530647780654576
0.0794367994949126,0.12314301315902527,101,35,22.331861715381603,2.2530647780654576
0.08066791734828124,0.12314178201638372,101,35,22.331861715381603,2.2530647780654576
0.08189902276294735,0.12314055088620376,101,35,22.331861715381603,2.2530647780654576
0.0831301157490698,0.12313931976847352,101,35,22.331861715381603,2.2530647780654576
0.08436119631603535,0.12313808866318196,101,35,22.331861715381603,2.2530647780654576
0.08559226447251801,0.12313685757031895,101,35,22.331861715381603,2.2530647780654576
0.08682332022653383,0.1231356264898751,101,35,22.331861715381603,2.2530647780654576
0.08805436358549158,0.12313439542184172,101,35,22.331861715381603,2.2530647780654576
0.08928539455623943,0.12313316436621081,101,35,22.331861715381603,2.2530647780654576
0.09051641314510817,0.12313193332297497,101,35,22.331861715381603,2.2530647780654576
0.09174741935795082,0.12313070229212732,101,35,22.331861715381603,2.2530647780654576
0.09297841320017969,0.12312947127366156,101,35,22.331861715381603,2.2530647780654576
0.09420939467680002,0.12312824026757181,101,35,22.331861715381603,2.2530647780654576
0.09544036379244147,0.12312700927385269,101,35,22.331861715381603,2.2530647780654576
0.0966713205513869,0.12312577829249917,101,35,22.331861715381603,2.2530647780654576
0.09790226495759909,0.12312454732350663,101,35,22.331861715381603,2.2530647780654576
0.09913319701474545,0.12312331636687078,101,35,22.331861715381603,2.2530647780654576
0.10036411672622061,0.12312208542258767,101,35,22.331861715381603,2.2530647780654576
0.10159502409516756,0.12312085449065362,101,35,22.331861715381603,2.2530647780654576
0.10282591912449685,0.12311962357106523,101,35,22.331861715381603,2.2530647780654576
0.10405680181690458,0.12311839266381938,101,35,22.331861715381603,2.2530647780654576
0.1052876721748889,0.12311716176891314,101,35,22.331861715381603,2.2530647780654576
0.10651853020076518,0.12311593088634383,101,35,22.331861715381603,2.2530647780654576
0.10774937589668011,0.12311470001610893,101,35,22.331861715381603,2.2530647780654576
0.10898020926462469,0.12311346915820615,101,35,22.331861715381603,2.2530647780654576
0.11021103030644616,0.12311223831263332,101,35,22.331861715381603,2.2530647780654576
0.11144183902385915,0.12311100747938845,101,35,22.331861715381603,2.2530647780654576
0.1126726354184558,0.12310977665846971,101,35,22.331861715381603,2.2530647780654576
0.1139034194917152,0.12310854584987539,101,35,22.331861715381603,2.2530647780654576
0.11513419124501212,0.12310731505360388,101,35,22.331861715381603,2.2530647780654576
0.11636495067962503,0.12310608426965369,101,35,22.331861715381603,2.2530647780654576
0.11759569779674343,0.12310485349802348,101,35,22.331861715381603,2.2530647780654576
0.11882643259747484,0.12310362273871195,101,35,22.331861715381603,2.2530647780654576
0.120057155082851,0.12310239199171791,101,35,22.331861715381603,2.2530647780654576
0.1212878652538337,0.12310116125704025,101,35,22.331861715381603,2.2530647780654576
0.12251856311132027,0.12309993053467795,101,35,22.331861715381603,2.2530647780654576
0.12374924865614839,0.12309869982463004,101,35,22.331861715381603,2.2530647780654576
0.12497992188910076,0.12309746912689562,101,35,22.331861715381603,2.2530647780654576
0.12621058281090933,0.12309623844147387,101,35,22.331861715381603,2.2530647780654576
0.12744123142225924,0.12309500776836398,101,35,22.331861715381603,2.2530647780654576
0.12867186772379227,0.12309377710756524,101,35,22.331861715381603,2.2530647780654576
0.1299024917161104,0.12309254645907695,101,35,22.331861715381603,2.2530647780654576
0.13113310339977874,0.12309131582289849,101,35,22.331861715381603,2.2530647780654576
0.13236370277532827,0.12309008519902924,101,35,22.331861715381603,2.2530647780654576
0.13359428984325875,0.12308885458746864,101,35,22.331861715381603,2.2530647780654576
0.13482486460404075,0.12308762398821615,101,35,22.331861715381603,2.2530647780654576
0.13605542705811832,0.12308639340127128,101,35,22.331861715381603,2.2530647780654576
0.13728597720591063,0.12308516282663355,101,35,22.331861715381603,2.2530647780654576
0.13851651504781412,0.12308393226430253,101,35,22.331861715381603,2.2530647780654576
0.13974704058420423,0.1230827017142778,101,35,22.331861715381603,2.2530647780654576
0.14097755381543692,0.12308147117655896,101,35,22.331861715381603,2.2530647780654576
0.1422080547418502,0.12308024065114562,101,35,22.331861715381603,2.2530647780654576
0.14343854336376566,0.12307901013803745,101,35,22.331861715381603,2.2530647780654576
0.14466901968148949,0.12307777963723408,101,35,22.331861715381603,2.2530647780654576
0.1458994836953138,0.12307654914873521,101,35,22.331861715381603,2.2530647780654576
0.1471299354055177,0.12307531867254054,101,35,22.331861715381603,2.2530647780654576
0.14836037481236836,0.12307408820864976,101,35,22.331861715381603,2.2530647780654576
0.1495908019161217,0.12307285775706261,101,35,22.331861715381603,2.2530647780654576
0.15082121671702353,0.1230716273177788,101,35,22.331861715381603,2.2530647780654576
0.15205161921531024,0.1230703968907981,101,35,22.331861715381603,2.2530647780654576
0.15328200941120934,0.12306916647612023,101,35,22.331861715381603,2.2530647780654576
0.15451238730494046,0.123067936073745,101,35,22.331861715381603,2.2530647780654576
0.15574275289671566,0.12306670568367215,101,35,22.331861715381603,2.2530647780654576
0.1569731061867402,0.12306547530590145,101,35,22.331861715381603,2.2530647780654576
0.15820344717521312,0.12306424494043271,101,35,22.331861715381603,2.2530647780654576
0.15943377586232738,0.12306301458726572,101,35,22.331861715381603,2.2530647780654576
0.16066409224827075,0.12306178424640028,101,35,22.331861715381603,2.2530647780654576
0.16189439633322586,0.12306055391783621,101,35,22.331861715381603,2.2530647780654576
0.1631246881173709,0.1230593236015733,101,35,22.331861715381603,2.2530647780654576
0.16435496760087967,0.12305809329761137,101,35,22.331861715381603,2.2530647780654576
0.1655852347839222,0.12305686300595027,101,35,22.331861715381603,2.2530647780654576
0.16681548966666476,0.12305563272658979,101,35,22.331861715381603,2.2530647780654576
0.16804573224927033,0.12305440245952977,101,35,22.331861715381603,2.2530647780654576
0.1692759625318989,0.12305317220477006,101,35,22.331861715381603,2.2530647780654576
0.17050618051470753,0.12305194196231048,101,35,22.331861715381603,2.2530647780654576
0.17173638619785064,0.12305071173215087,101,35,22.331861715381603,2.2530647780654576
0.17296657958148023,0.1230494815142911,101,35,22.331861715381603,2.2530647780654576
0.1741967606657461,0.12304825130873097,101,35,22.331861715381603,2.2530647780654576
0.175426929450796,0.12304702111547036,101,35,22.331861715381603,2.2530647780654576
0.17665708593677573,0.12304579093450912,101,35,22.331861715381603,2.2530647780654576
0.17788723012382937,0.12304456076584709,101,35,22.331861715381603,2.2530647780654576
0.1791173620120993,0.12304333060948412,101,35,22.331861715381603,2.2530647780654576
0.1803474816017265,0.12304210046542009,101,35,22.331861715381603,2.2530647780654576
0.1815775888928505,0.12304087033365484,101,35,22.331861715381603,2.2530647780654576
0.18280768388560956,0.12303964021418823,101,35,22.331861715381603,2.2530647780654576
0.18403776658014073,0.12303841010702012,101,35,22.331861715381603,2.2530647780654576
0.1852678369765801,0.12303718001215036,101,35,22.331861715381603,2.2530647780654576
0.1864978950750626,0.12303594992957885,101,35,22.331861715381603,2.2530647780654576
0.18772794087572234,0.12303471985930542,101,35,22.331861715381603,2.2530647780654576
0.18895797437869247,0.12303348980132994,101,35,22.331861715381603,2.2530647780654576
0.19018799558410548,0.12303225975565228,101,35,22.331861715381603,2.2530647780654576
0.19141800449209304,0.12303102972227233,101,35,22.331861715381603,2.2530647780654576
0.19264800110278613,0.12302979970118992,101,35,22.331861715381603,2.2530647780654576
0.19387798541631512,0.12302856969240493,101,35,22.331861715381603,2.2530647780654576
0.19510795743281,0.12302733969591724,101,35,22.331861715381603,2.2530647780654576
0.19633791715239984,0.12302610971172671,101,35,22.331861715381603,2.2530647780654576
0.19756786457521355,0.12302487973983321,101,35,22.331861715381603,2.2530647780654576
0.19879779970137945,0.12302364978023662,101,35,22.331861715381603,2.2530647780654576
0.20002772253102552,0.12302241983293681,101,35,22.331861715381603,2.2530647780654576
0.20125763306427924,0.12302118989793363,101,35,22.331861715381603,2.2530647780654576
0.20248753130126781,0.12301995997522698,101,35,22.331861715381603,2.2530647780654576
0.20371741724211814,0.12301873006481673,101,35,22.331861715381603,2.2530647780654576
0.20494729088695673,0.12301750016670274,101,35,22.331861715381603,2.2530647780654576
0.20617715223590982,0.12301627028088487,101,35,22.331861715381603,2.2530647780654576
0.20740700128910355,0.12301504040736302,101,35,22.331861715381603,2.2530647780654576
0.2086368380466636,0.12301381054613705,101,35,22.331861715381603,2.2530647780654576
0.20986666250871558,0.12301258069720686,101,35,22.331861715381603,2.2530647780654576
0.21109647467538478,0.12301135086057227,101,35,22.331861715381603,2.2530647780654576
0.21232627454679642,0.12301012103623321,101,35,22.331861715381603,2.2530647780654576
0.21355606212307549,0.12300889122418952,101,35,22.331861715381603,2.2530647780654576
0.21478583740434684,0.1230076614244411,101,35,22.331861715381603,2.2530647780654576
0.21601560039073514,0.1230064316369878,101,35,22.331861715381603,2.2530647780654576
0.21724535108236492,0.1230052018618295,101,35,22.331861715381603,2.2530647780654576
0.21847508947936065,0.1230039720989661,101,35,22.331861715381603,2.2530647780654576
0.21970481558184654,0.12300274234839745,101,35,22.331861715381603,2.2530647780654576
0.22093452938994682,0.12300151261012343,101,35,22.331861715381603,2.2530647780654576
0.22216423090378568,0.12300028288414391,101,35,22.331861715381603,2.2530647780654576
0.22339392012348705,0.12299905317045878,101,35,22.331861715381603,2.2530647780654576
0.22462359704917478,0.12299782346906792,101,35,22.331861715381603,2.2530647780654576
0.22585326168097283,0.12299659377997119,101,35,22.331861715381603,2.2530647780654576
0.22708291401900488,0.12299536410316847,101,35,22.331861715381603,2.2530647780654576
0.22831255406339468,0.12299413443865964,101,35,22.331861715381603,2.2530647780654576
0.22954218181426583,0.12299290478644458,101,35,22.331861715381603,2.2530647780654576
0.23077179727174196,0.12299167514652316,101,35,22.331861715381603,2.2530647780654576
0.23200140043594658,0.12299044551889525,101,35,22.331861715381603,2.2530647780654576
0.23323099130700314,0.12298921590356074,101,35,22.331861715381603,2.2530647780654576
0.23446056988503516,0.12298798630051949,101,35,22.331861715381603,2.2530647780654576
0.23569013617016596,0.1229867567097714,101,35,22.331861715381603,2.2530647780654576
0.23691969016251885,0.12298552713131633,101,35,22.331861715381603,2.2530647780654576
0.2381492318622172,0.12298429756515417,101,35,22.331861715381603,2.2530647780654576
0.23937876126938432,0.12298306801128477,101,35,22.331861715381603,2.2530647780654576
0.2406082783841434,0.12298183846970802,101,35,22.331861715381603,2.2530647780654576
0.24183778320661772,0.12298060894042381,101,35,22.331861715381603,2.2530647780654576
0.24306727573693038,0.12297937942343201,101,35,22.331861715381603,2.2530647780654576
0.2442967559752047,0.12297814991873249,101,35,22.331861715381603,2.2530647780654576
0.24552622392156376,0.12297692042632512,101,35,22.331861715381603,2.2530647780654576
0.24675567957613062,0.1229756909462098,101,35,22.331861715381603,2.2530647780654576
0.2479851229390285,0.1229744614783864,101,35,22.331861715381603,2.2530647780654576
0.24921455401038045,0.12297323202285478,101,35,22.331861715381603,2.2530647780654576
0.2504439727903095,0.12297200257961483,101,35,22.331861715381603,2.2530647780654576
0.25167337927893874,0.12297077314866642,101,35,22.331861715381603,2.2530647780654576
0.25290277347639123,0.12296954373000943,101,35,22.331861715381603,2.2530647780654576
0.25413215538278994,0.12296831432364375,101,35,22.331861715381603,2.2530647780654576
0.2553615249982579,0.12296708492956923,101,35,22.331861715381603,2.2530647780654576
0.25659088232291827,0.12296585554778577,101,35,22.331861715381603,2.2530647780654576
0.2578202273568938,0.12296462617829325,101,35,22.331861715381603,2.2530647780654576
0.2590495601003077,0.12296339682109152,101,35,22.331861715381603,2.2530647780654576
0.26027888055328274,0.12296216747618048,101,35,22.331861715381603,2.2530647780654576
0.26150818871594206,0.12296093814356,101,35,22.331861715381603,2.2530647780654576
0.26273748458840857,0.12295970882322997,101,35,22.331861715381603,2.2530647780654576
0.26396676817080517,0.12295847951519023,101,35,22.331861715381603,2.2530647780654576
0.2651960394632549,0.1229572502194407,101,35,22.331861715381603,2.2530647780654576
0.26642529846588053,0.12295602093598124,101,35,22.331861715381603,2.2530647780654576
0.26765454517880516,0.12295479166481171,101,35,22.331861715381603,2.2530647780654576
0.2688837796021517,0.12295356240593203,101,35,22.331861715381603,2.2530647780654576
0.2701130017360429,0.12295233315934202,101,35,22.331861715381603,2.2530647780654576
0.27134221158060184,0.1229511039250416,101,35,22.331861715381603,2.2530647780654576
0.2725714091359514,0.12294987470303063,101,35,22.331861715381603,2.2530647780654576
0.27380059440221444,0.122948645493309,101,35,22.331861715381603,2.2530647780654576
0.2750297673795138,0.12294741629587658,101,35,22.331861715381603,2.2530647780654576
0.2762589280679725,0.12294618711073323,101,35,22.331861715381603,2.2530647780654576
0.2774880764677134,0.12294495793787885,101,35,22.331861715381603,2.2530647780654576
0.2787172125788594,0.12294372877731331,101,35,22.331861715381603,2.2530647780654576
0.2799463364015333,0.12294249962903649,101,35,22.331861715381603,2.2530647780654576
0.28117544793585814,0.12294127049304826,101,35,22.331861715381603,2.2530647780654576
0.2824045471819567,0.1229400413693485,101,35,22.331861715381603,2.2530647780654576
0.28363363413995185,0.12293881225793708,101,35,22.331861715381603,2.2530647780654576
0.2848627088099664,0.1229375831588139,101,35,22.331861715381603,2.2530647780654576
