Vout,Iout,Irradiance,Temperature,MaxVoltage,MaxPower
0.002265628215113316,0.4531299999999999,401,-10,19.347146749415852,8.392627492209526
0.006796842751729917,0.4531299999999999,401,-10,19.347146749415852,8.392627492209526
0.011327965169891525,0.4531276890587848,401,-10,19.347146749415852,8.392627492209526
0.015858979012666658,0.45312315784424817,401,-10,19.347146749415852,8.392627492209526
0.0203898789016446,0.4531186267220611,401,-10,19.347146749415852,8.392627492209526
0.024920670120134283,0.45311409570867145,401,-10,19.347146749415852,8.392627492209526
0.029451357545123964,0.4531095648092356,401,-10,19.347146749415852,8.392627492209526
0.03398194567844381,0.45310503401847024,401,-10,19.347146749415852,8.392627492209526
0.0385124386755809,0.4531005033314983,401,-10,19.347146749415852,8.392627492209526
0.043042840372327515,0.4530959727438181,401,-10,19.347146749415852,8.392627492209526
0.04757315430937882,0.453091442251274,401,-10,19.347146749415852,8.392627492209526
0.05210338375503822,0.4530869118500303,401,-10,19.347146749415852,8.392627492209526
0.05663353172617552,0.45308238153654634,401,-10,19.347146749415852,8.392627492209526
0.06116360100757267,0.4530778513075537,401,-10,19.347146749415852,8.392627492209526
0.06569359416978095,0.45307332116003557,401,-10,19.347146749415852,8.392627492209526
0.07022351358560423,0.45306879109120723,401,-10,19.347146749415852,8.392627492209526
0.07475336144531393,0.453064261098498,401,-10,19.347146749415852,8.392627492209526
0.07928313977069339,0.4530597311795352,401,-10,19.347146749415852,8.392627492209526
0.08381285042800161,0.4530552013321285,401,-10,19.347146749415852,8.392627492209526
0.08834249513993953,0.4530506715542561,401,-10,19.347146749415852,8.392627492209526
0.09287207549669552,0.4530461418440518,401,-10,19.347146749415852,8.392627492209526
0.09740159296614131,0.45304161219979283,401,-10,19.347146749415852,8.392627492209526
0.10193104890324302,0.45303708261988906,401,-10,19.347146749415852,8.392627492209526
0.1064604445587484,0.45303255310287255,401,-10,19.347146749415852,8.392627492209526
0.11098978108720556,0.4530280236473884,401,-10,19.347146749415852,8.392627492209526
0.11551905955436466,0.45302349425218585,401,-10,19.347146749415852,8.392627492209526
0.12004828094401016,0.4530189649161104,401,-10,19.347146749415852,8.392627492209526
0.12457744616426752,0.4530144356380961,401,-10,19.347146749415852,8.392627492209526
0.12910655605342436,0.45300990641715944,401,-10,19.347146749415852,8.392627492209526
0.13363561138530394,0.4530053772523921,401,-10,19.347146749415852,8.392627492209526
0.13816461287422527,0.4530008481429559,401,-10,19.347146749415852,8.392627492209526
0.14269356117958126,0.4529963190880769,401,-10,19.347146749415852,8.392627492209526
0.14722245691006497,0.4529917900870409,401,-10,19.347146749415852,8.392627492209526
0.15175130062757045,0.4529872611391884,401,-10,19.347146749415852,8.392627492209526
0.15628009285079358,0.45298273224391084,401,-10,19.347146749415852,8.392627492209526
0.1608088340585558,0.45297820340064626,401,-10,19.347146749415852,8.392627492209526
0.16533752469287216,0.4529736746088759,401,-10,19.347146749415852,8.392627492209526
0.16986616516178302,0.45296914586812104,401,-10,19.347146749415852,8.392627492209526
0.1743947558419685,0.45296461717793957,401,-10,19.347146749415852,8.392627492209526
0.178923297081161,0.4529600885379236,401,-10,19.347146749415852,8.392627492209526
0.18345178920037286,0.45295555994769626,401,-10,19.347146749415852,8.392627492209526
0.18798023249595192,0.4529510314069099,401,-10,19.347146749415852,8.392627492209526
0.19250862724147935,0.4529465029152436,401,-10,19.347146749415852,8.392627492209526
0.19703697368952153,0.4529419744724008,401,-10,19.347146749415852,8.392627492209526
0.20156527207324665,0.45293744607810815,401,-10,19.347146749415852,8.392627492209526
0.20609352260791747,0.45293291773211297,401,-10,19.347146749415852,8.392627492209526
0.21062172549226887,0.45292838943418207,401,-10,19.347146749415852,8.392627492209526
0.2151498809097796,0.4529238611841002,401,-10,19.347146749415852,8.392627492209526
0.21967798902984612,0.4529193329816687,401,-10,19.347146749415852,8.392627492209526
0.22420605000886604,0.45291480482670404,401,-10,19.347146749415852,8.392627492209526
0.2287340639912383,0.4529102767190368,401,-10,19.347146749415852,8.392627492209526
0.23326203111028646,0.4529057486585106,401,-10,19.347146749415852,8.392627492209526
0.2377899514891106,0.452901220644981,401,-10,19.347146749415852,8.392627492209526
0.24231782524137438,0.4528966926783148,401,-10,19.347146749415852,8.392627492209526
0.24684565247203055,0.4528921647583887,401,-10,19.347146749415852,8.392627492209526
0.25137343327799155,0.45288763688508926,401,-10,19.347146749415852,8.392627492209526
0.2559011677487481,0.4528831090583114,401,-10,19.347146749415852,8.392627492209526
0.2604288559669401,0.4528785812779582,401,-10,19.347146749415852,8.392627492209526
0.2649564980088838,0.4528740535439403,401,-10,19.347146749415852,8.392627492209526
0.2694840939450585,0.45286952585617485,401,-10,19.347146749415852,8.392627492209526
0.2740116438405554,0.4528649982145857,401,-10,19.347146749415852,8.392627492209526
0.27853914775549243,0.4528604706191023,401,-10,19.347146749415852,8.392627492209526
0.2830666057453966,0.45285594306965954,401,-10,19.347146749415852,8.392627492209526
0.28759401786155747,0.45285141556619735,401,-10,19.347146749415852,8.392627492209526
0.2921213841513531,0.4528468881086602,401,-10,19.347146749415852,8.392627492209526
0.2966487046585512,0.4528423606969968,401,-10,19.347146749415852,8.392627492209526
0.3011759794235865,0.45283783333115973,401,-10,19.347146749415852,8.392627492209526
0.3057032084838175,0.4528333060111053,401,-10,19.347146749415852,8.392627492209526
0.3102303918737631,0.452828778736793,401,-10,19.347146749415852,8.392627492209526
0.31475752962532116,0.4528242515081855,401,-10,19.347146749415852,8.392627492209526
0.31928462176797,0.4528197243252483,401,-10,19.347146749415852,8.392627492209526
0.3238116683289546,0.45281519718794944,401,-10,19.347146749415852,8.392627492209526
0.3283386693334585,0.4528106700962595,401,-10,19.347146749415852,8.392627492209526
0.3328656248047625,0.45280614305015127,401,-10,19.347146749415852,8.392627492209526
0.33739253476439074,0.45280161604959945,401,-10,19.347146749415852,8.392627492209526
0.3419193992322463,0.45279708909458083,401,-10,19.347146749415852,8.392627492209526
0.3464462182267356,0.4527925621850739,401,-10,19.347146749415852,8.392627492209526
0.35097299176488367,0.45278803532105877,401,-10,19.347146749415852,8.392627492209526
0.35549971986244044,0.452783508502517,401,-10,19.347146749415852,8.392627492209526
0.3600264025339785,0.4527789817294315,401,-10,19.347146749415852,8.392627492209526
0.3645530397929846,0.45277445500178665,401,-10,19.347146749415852,8.392627492209526
0.3690796316519422,0.45276992831956775,401,-10,19.347146749415852,8.392627492209526
0.3736061781224091,0.4527654016827614,401,-10,19.347146749415852,8.392627492209526
0.3781326792150886,0.45276087509135515,401,-10,19.347146749415852,8.392627492209526
0.3826591349398956,0.45275634854533736,401,-10,19.347146749415852,8.392627492209526
0.3871855453060166,0.4527518220446973,401,-10,19.347146749415852,8.392627492209526
0.3917119103219663,0.45274729558942517,401,-10,19.347146749415852,8.392627492209526
0.3962382299956388,0.45274276917951173,401,-10,19.347146749415852,8.392627492209526
0.40076450433435595,0.4527382428149484,401,-10,19.347146749415852,8.392627492209526
0.40529073334491084,0.45273371649572736,401,-10,19.347146749415852,8.392627492209526
0.4098169170336087,0.45272919022184127,401,-10,19.347146749415852,8.392627492209526
0.4143430554063046,0.45272466399328337,401,-10,19.347146749415852,8.392627492209526
0.4188691484684376,0.4527201378100473,401,-10,19.347146749415852,8.392627492209526
0.42339519622506333,0.4527156116721272,401,-10,19.347146749415852,8.392627492209526
0.42792119868088335,0.4527110855795177,401,-10,19.347146749415852,8.392627492209526
0.43244715584027194,0.45270655953221367,401,-10,19.347146749415852,8.392627492209526
0.43697306770730193,0.4527020335302105,401,-10,19.347146749415852,8.392627492209526
0.4414989342857672,0.4526975075735037,401,-10,19.347146749415852,8.392627492209526
0.44602475557920485,0.45269298166208927,401,-10,19.347146749415852,8.392627492209526
0.4505505315909146,0.4526884557959634,401,-10,19.347146749415852,8.392627492209526
0.4550762623239771,0.4526839299751225,401,-10,19.347146749415852,8.392627492209526
0.4596019477812705,0.45267940419956343,401,-10,19.347146749415852,8.392627492209526
0.46412758796548664,0.45267487846928295,401,-10,19.347146749415852,8.392627492209526
0.468653182879145,0.45267035278427825,401,-10,19.347146749415852,8.392627492209526
0.47317873252460574,0.45266582714454656,401,-10,19.347146749415852,8.392627492209526
0.4777042369040824,0.4526613015500855,401,-10,19.347146749415852,8.392627492209526
0.4822296960196531,0.4526567760008926,401,-10,19.347146749415852,8.392627492209526
0.48675510987327086,0.45265225049696567,401,-10,19.347146749415852,8.392627492209526
0.491280478466773,0.4526477250383027,401,-10,19.347146749415852,8.392627492209526
0.4958058018018904,0.4526431996249016,401,-10,19.347146749415852,8.392627492209526
0.5003310798802556,0.45263867425676063,401,-10,19.347146749415852,8.392627492209526
0.5048563127034102,0.45263414893387804,401,-10,19.347146749415852,8.392627492209526
0.5093815002728124,0.45262962365625226,401,-10,19.347146749415852,8.392627492209526
0.5139066425898425,0.4526250984238816,401,-10,19.347146749415852,8.392627492209526
0.5184317396558095,0.45262057323676474,401,-10,19.347146749415852,8.392627492209526
0.5229567914719568,0.45261604809490025,401,-10,19.347146749415852,8.392627492209526
0.5274817980394665,0.4526115229982868,401,-10,19.347146749415852,8.392627492209526
0.5320067593594647,0.45260699794692316,401,-10,19.347146749415852,8.392627492209526
0.5365316754330259,0.45260247294080813,401,-10,19.347146749415852,8.392627492209526
0.5410565462611766,0.4525979479799407,401,-10,19.347146749415852,8.392627492209526
0.5455813718448985,0.4525934230643196,401,-10,19.347146749415852,8.392627492209526
0.5501061521851336,0.45258889819394393,401,-10,19.347146749415852,8.392627492209526
0.5546308872827853,0.45258437336881274,401,-10,19.347146749415852,8.392627492209526
0.559155577138723,0.45257984858892497,401,-10,19.347146749415852,8.392627492209526
0.5636802217537837,0.4525753238542798,401,-10,19.347146749415852,8.392627492209526
0.5682048211287746,0.45257079916487636,401,-10,19.347146749415852,8.392627492209526
0.5727293752644758,0.45256627452071374,401,-10,19.347146749415852,8.392627492209526
0.577253884161642,0.4525617499217912,401,-10,19.347146749415852,8.392627492209526
0.5817783478210051,0.452557225368108,401,-10,19.347146749415852,8.392627492209526
0.586302766243275,0.4525527008596633,401,-10,19.347146749415852,8.392627492209526
0.5908271394291419,0.4525481763964564,401,-10,19.347146749415852,8.392627492209526
0.5953514673792777,0.45254365197848656,401,-10,19.347146749415852,8.392627492209526
0.5998757500943371,0.45253912760575316,401,-10,19.347146749415852,8.392627492209526
0.6043999875749599,0.45253460327825545,401,-10,19.347146749415852,8.392627492209526
0.6089241798217708,0.45253007899599285,401,-10,19.347146749415852,8.392627492209526
0.6134483268353818,0.4525255547589646,401,-10,19.347146749415852,8.392627492209526
0.617972428616392,0.45252103056717025,401,-10,19.347146749415852,8.392627492209526
0.6224964851653896,0.4525165064206091,401,-10,19.347146749415852,8.392627492209526
0.6270204964829523,0.45251198231928047,401,-10,19.347146749415852,8.392627492209526
0.6315444625696478,0.4525074582631839,401,-10,19.347146749415852,8.392627492209526
0.6360683834260356,0.45250293425231874,401,-10,19.347146749415852,8.392627492209526
0.640592259052666,0.45249841028668447,401,-10,19.347146749415852,8.392627492209526
0.6451160894500825,0.45249388636628046,401,-10,19.347146749415852,8.392627492209526
0.6496398746188214,0.4524893624911062,401,-10,19.347146749415852,8.392627492209526
0.6541636145594123,0.4524848386611612,401,-10,19.347146749415852,8.392627492209526
0.6586873092723792,0.45248031487644486,401,-10,19.347146749415852,8.392627492209526
0.6632109587582399,0.45247579113695663,401,-10,19.347146749415852,8.392627492209526
0.6677345630175079,0.45247126744269606,401,-10,19.347146749415852,8.392627492209526
0.6722581220506918,0.4524667437936626,401,-10,19.347146749415852,8.392627492209526
0.6767816358582955,0.45246222018985566,401,-10,19.347146749415852,8.392627492209526
0.6813051044408193,0.45245769663127483,401,-10,19.347146749415852,8.392627492209526
0.6858285277987594,0.4524531731179196,401,-10,19.347146749415852,8.392627492209526
0.6903519059326088,0.4524486496497894,401,-10,19.347146749415852,8.392627492209526
0.6948752388428576,0.45244412622688385,401,-10,19.347146749415852,8.392627492209526
0.6993985265299928,0.45243960284920237,401,-10,19.347146749415852,8.392627492209526
0.7039217689944987,0.45243507951674444,401,-10,19.347146749415852,8.392627492209526
0.7084449662368566,0.4524305562295096,401,-10,19.347146749415852,8.392627492209526
0.7129681182575468,0.45242603298749745,401,-10,19.347146749415852,8.392627492209526
0.7174912250570459,0.45242150979070744,401,-10,19.347146749415852,8.392627492209526
0.7220142866358297,0.4524169866391391,401,-10,19.347146749415852,8.392627492209526
0.726537302994372,0.4524124635327919,401,-10,19.347146749415852,8.392627492209526
0.7310602741331446,0.45240794047166544,401,-10,19.347146749415852,8.392627492209526
0.735583200052618,0.4524034174557592,401,-10,19.347146749415852,8.392627492209526
0.7401060807532612,0.45239889448507276,401,-10,19.347146749415852,8.392627492209526
0.7446289162355418,0.45239437155960555,401,-10,19.347146749415852,8.392627492209526
0.7491517064999265,0.4523898486793572,401,-10,19.347146749415852,8.392627492209526
0.7536744515468808,0.4523853258443272,401,-10,19.347146749415852,8.392627492209526
0.7581971513768689,0.4523808030545151,401,-10,19.347146749415852,8.392627492209526
0.7627198059903543,0.45237628030992044,401,-10,19.347146749415852,8.392627492209526
0.7672424153877994,0.45237175761054277,401,-10,19.347146749415852,8.392627492209526
0.771764979569666,0.45236723495638154,401,-10,19.347146749415852,8.392627492209526
0.7762874985364152,0.45236271234743636,401,-10,19.347146749415852,8.392627492209526
0.780809972288507,0.4523581897837068,401,-10,19.347146749415852,8.392627492209526
0.7853324008264015,0.45235366726519227,401,-10,19.347146749415852,8.392627492209526
0.7898547841505573,0.4523491447918924,401,-10,19.347146749415852,8.392627492209526
0.7943771222614332,0.4523446223638068,401,-10,19.347146749415852,8.392627492209526
0.7988994151594871,0.4523400999809349,401,-10,19.347146749415852,8.392627492209526
0.8034216628451766,0.45233557764327625,401,-10,19.347146749415852,8.392627492209526
0.8079438653189588,0.45233105535083046,401,-10,19.347146749415852,8.392627492209526
0.8124660225812903,0.452326533103597,401,-10,19.347146749415852,8.392627492209526
0.8169881346326275,0.4523220109015754,401,-10,19.347146749415852,8.392627492209526
0.8215102014734267,0.4523174887447653,401,-10,19.347146749415852,8.392627492209526
0.8260322231041431,0.4523129666331662,401,-10,19.347146749415852,8.392627492209526
0.8305541995252326,0.4523084445667776,401,-10,19.347146749415852,8.392627492209526
0.8350761307371498,0.4523039225455991,401,-10,19.347146749415852,8.392627492209526
0.8395980167403504,0.45229940056963025,401,-10,19.347146749415852,8.392627492209526
0.8441198575352883,0.4522948786388705,401,-10,19.347146749415852,8.392627492209526
0.8486416531224182,0.4522903567533195,401,-10,19.347146749415852,8.392627492209526
0.8531634035021947,0.45228583491297675,401,-10,19.347146749415852,8.392627492209526
0.8576851086750714,0.4522813131178418,401,-10,19.347146749415852,8.392627492209526
0.8622067686415025,0.4522767913679142,401,-10,19.347146749415852,8.392627492209526
0.8667283834019415,0.45227226966319356,401,-10,19.347146749415852,8.392627492209526
0.8712499529568422,0.4522677480036793,401,-10,19.347146749415852,8.392627492209526
0.875771477306658,0.452263226389371,401,-10,19.347146749415852,8.392627492209526
0.8802929564518425,0.45225870482026825,401,-10,19.347146749415852,8.392627492209526
0.8848143903928487,0.4522541832963706,401,-10,19.347146749415852,8.392627492209526
0.88933577913013,0.4522496618176776,401,-10,19.347146749415852,8.392627492209526
0.8938571226641389,0.4522451403841887,401,-10,19.347146749415852,8.392627492209526
0.8983784209953287,0.4522406189959036,401,-10,19.347146749415852,8.392627492209526
0.9028996741241524,0.45223609765282174,401,-10,19.347146749415852,8.392627492209526
0.9074208820510629,0.4522315763549427,401,-10,19.347146749415852,8.392627492209526
0.9119420447765124,0.452227055102266,401,-10,19.347146749415852,8.392627492209526
0.9164631623009539,0.4522225338947912,401,-10,19.347146749415852,8.392627492209526
0.9209842346248404,0.4522180127325179,401,-10,19.347146749415852,8.392627492209526
0.9255052617486235,0.45221349161544555,401,-10,19.347146749415852,8.392627492209526
0.9300262436727563,0.4522089705435738,401,-10,19.347146749415852,8.392627492209526
0.9345471803976908,0.45220444951690214,401,-10,19.347146749415852,8.392627492209526
0.93906807192388,0.4521999285354301,401,-10,19.347146749415852,8.392627492209526
0.943588918251776,0.4521954075991573,401,-10,19.347146749415852,8.392627492209526
0.948109719381831,0.45219088670808316,401,-10,19.347146749415852,8.392627492209526
0.9526304753144971,0.4521863658622074,401,-10,19.347146749415852,8.392627492209526
0.9571511860502268,0.4521818450615294,401,-10,19.347146749415852,8.392627492209526
0.961671851589472,0.45217732430604884,401,-10,19.347146749415852,8.392627492209526
0.9661924719326852,0.45217280359576517,401,-10,19.347146749415852,8.392627492209526
0.9707130470803186,0.452168282930678,401,-10,19.347146749415852,8.392627492209526
0.975233577032824,0.45216376231078687,401,-10,19.347146749415852,8.392627492209526
0.9797540617906536,0.4521592417360913,401,-10,19.347146749415852,8.392627492209526
0.9842745013542596,0.4521547212065909,401,-10,19.347146749415852,8.392627492209526
0.9887948957240938,0.45215020072228507,401,-10,19.347146749415852,8.392627492209526
0.9933152449006085,0.45214568028317353,401,-10,19.347146749415852,8.392627492209526
0.9978355488842556,0.45214115988925574,401,-10,19.347146749415852,8.392627492209526
1.002355807675487,0.4521366395405313,401,-10,19.347146749415852,8.392627492209526
1.0068760212747547,0.4521321192369997,401,-10,19.347146749415852,8.392627492209526
1.0113961896825108,0.4521275989786605,401,-10,19.347146749415852,8.392627492209526
1.0159163128992068,0.4521230787655132,401,-10,19.347146749415852,8.392627492209526
1.0204363909252951,0.4521185585975575,401,-10,19.347146749415852,8.392627492209526
1.0249564237612274,0.4521140384747928,401,-10,19.347146749415852,8.392627492209526
1.0294764114074555,0.45210951839721875,401,-10,19.347146749415852,8.392627492209526
1.0339963538644315,0.45210499836483486,401,-10,19.347146749415852,8.392627492209526
1.0385162511326074,0.4521004783776406,401,-10,19.347146749415852,8.392627492209526
1.0430361032124345,0.45209595843563566,401,-10,19.347146749415852,8.392627492209526
1.0475559101043657,0.4520914385388195,401,-10,19.347146749415852,8.392627492209526
1.0520756718088518,0.45208691868719164,401,-10,19.347146749415852,8.392627492209526
1.0565953883263446,0.4520823988807517,401,-10,19.347146749415852,8.392627492209526
1.0611150596572965,0.4520778791194992,401,-10,19.347146749415852,8.392627492209526
