Vout,Iout,Irradiance,Temperature,MaxVoltage,MaxPower
0.0023257776367534926,0.46515999999999996,401,5,20.44805993923061,9.093677326569932
0.006977289904430712,0.46515999999999996,401,5,20.44805993923061,9.093677326569932
0.01162870760803024,0.4651576277063632,401,5,20.44805993923061,9.093677326569932
0.016280013853710907,0.4651529761940955,401,5,20.44805993923061,9.093677326569932
0.020931203120272336,0.46514832477662915,401,5,20.44805993923061,9.093677326569932
0.025582280831288298,0.4651436734708486,401,5,20.44805993923061,9.093677326569932
0.030233251993224602,0.46513902228204723,401,5,20.44805993923061,9.093677326569932
0.03488412122742904,0.46513437120480133,401,5,20.44805993923061,9.093677326569932
0.03953489279971136,0.4651297202341045,401,5,20.44805993923061,9.093677326569932
0.044185570647699034,0.46512506936533543,401,5,20.44805993923061,9.093677326569932
0.048836158406087994,0.4651204185942282,401,5,20.44805993923061,9.093677326569932
0.05348665942995074,0.46511576791684534,401,5,20.44805993923061,9.093677326569932
0.058137076816250986,0.465111117329552,401,5,20.44805993923061,9.093677326569932
0.06278741342370292,0.4651064668289932,401,5,20.44805993923061,9.093677326569932
0.06743767189110259,0.465101816412072,401,5,20.44805993923061,9.093677326569932
0.07208785465424859,0.4650971660759296,401,5,20.44805993923061,9.093677326569932
0.0767379639615612,0.4650925158179272,401,5,20.44805993923061,9.093677326569932
0.08138800188849943,0.4650878656356291,401,5,20.44805993923061,9.093677326569932
0.08603797035086894,0.46508321552678683,401,5,20.44805993923061,9.093677326569932
0.09068787111710608,0.4650785654893249,401,5,20.44805993923061,9.093677326569932
0.09533770581961667,0.46507391552132754,401,5,20.44805993923061,9.093677326569932
0.09998747596524245,0.4650692656210263,401,5,20.44805993923061,9.093677326569932
0.1046371829449221,0.4650646157867888,401,5,20.44805993923061,9.093677326569932
0.10928682804260904,0.46505996601710814,401,5,20.44805993923061,9.093677326569932
0.11393641244350312,0.46505531631059344,401,5,20.44805993923061,9.093677326569932
0.11858593724164873,0.46505066666596073,401,5,20.44805993923061,9.093677326569932
0.12323540344694855,0.4650460170820248,401,5,20.44805993923061,9.093677326569932
0.12788481199163754,0.46504136755769165,401,5,20.44805993923061,9.093677326569932
0.1325341637362587,0.4650367180919513,401,5,20.44805993923061,9.093677326569932
0.13718345947517938,0.4650320686838716,401,5,20.44805993923061,9.093677326569932
0.14183269994168268,0.4650274193325919,401,5,20.44805993923061,9.093677326569932
0.14648188581266758,0.4650227700373179,401,5,20.44805993923061,9.093677326569932
0.15113101771298712,0.46501812079731636,401,5,20.44805993923061,9.093677326569932
0.15578009621945293,0.4650134716119103,401,5,20.44805993923061,9.093677326569932
0.1604291218645315,0.46500882248047487,401,5,20.44805993923061,9.093677326569932
0.1650780951397565,0.46500417340243333,401,5,20.44805993923061,9.093677326569932
0.16972701649887764,0.46499952437725317,401,5,20.44805993923061,9.093677326569932
0.17437588636076842,0.46499487540444284,401,5,20.44805993923061,9.093677326569932
0.17902470511210924,0.46499022648354865,401,5,20.44805993923061,9.093677326569932
0.18367347310986443,0.46498557761415166,401,5,20.44805993923061,9.093677326569932
0.18832219068356867,0.4649809287958652,401,5,20.44805993923061,9.093677326569932
0.19297085813743745,0.46497628002833236,401,5,20.44805993923061,9.093677326569932
0.19761947575231517,0.4649716313112235,401,5,20.44805993923061,9.093677326569932
0.20226804378747354,0.4649669826442345,401,5,20.44805993923061,9.093677326569932
0.206916562482271,0.46496233402708453,401,5,20.44805993923061,9.093677326569932
0.21156503205768523,0.4649576854595142,401,5,20.44805993923061,9.093677326569932
0.21621345271772738,0.4649530369412843,401,5,20.44805993923061,9.093677326569932
0.22086182465074727,0.46494838847217373,401,5,20.44805993923061,9.093677326569932
0.22551014803063854,0.4649437400519785,401,5,20.44805993923061,9.093677326569932
0.230158423017951,0.46493909168051034,401,5,20.44805993923061,9.093677326569932
0.23480664976091725,0.4649344433575953,401,5,20.44805993923061,9.093677326569932
0.2394548283964003,0.46492979508307286,401,5,20.44805993923061,9.093677326569932
0.2441029590507685,0.4649251468567947,401,5,20.44805993923061,9.093677326569932
0.24875104184070293,0.46492049867862406,401,5,20.44805993923061,9.093677326569932
0.2533990768739429,0.4649158505484345,401,5,20.44805993923061,9.093677326569932
0.2580470642499737,0.4649112024661094,401,5,20.44805993923061,9.093677326569932
0.2626950040606618,0.46490655443154094,401,5,20.44805993923061,9.093677326569932
0.26734289639084124,0.46490190644462975,401,5,20.44805993923061,9.093677326569932
0.27199074131885426,0.46489725850528385,401,5,20.44805993923061,9.093677326569932
0.2766385389170513,0.46489261061341847,401,5,20.44805993923061,9.093677326569932
0.2812862892522517,0.4648879627689553,401,5,20.44805993923061,9.093677326569932
0.28593399238616934,0.46488331497182184,401,5,20.44805993923061,9.093677326569932
0.2905816483758054,0.4648786672219514,401,5,20.44805993923061,9.093677326569932
0.2952292572738113,0.4648740195192823,401,5,20.44805993923061,9.093677326569932
0.29987681912882286,0.46486937186375743,401,5,20.44805993923061,9.093677326569932
0.30452433398576956,0.4648647242553242,401,5,20.44805993923061,9.093677326569932
0.3091718018861597,0.464860076693934,401,5,20.44805993923061,9.093677326569932
0.31381922286834374,0.46485542917954176,401,5,20.44805993923061,9.093677326569932
0.31846659696775703,0.46485078171210614,401,5,20.44805993923061,9.093677326569932
0.323113924217144,0.4648461342915887,401,5,20.44805993923061,9.093677326569932
0.32776120464676584,0.464841486917954,401,5,20.44805993923061,9.093677326569932
0.3324084382845907,0.4648368395911694,401,5,20.44805993923061,9.093677326569932
0.33705562515647086,0.4648321923112045,401,5,20.44805993923061,9.093677326569932
0.3417027652863051,0.4648275450780314,401,5,20.44805993923061,9.093677326569932
0.346349858696189,0.4648228978916243,401,5,20.44805993923061,9.093677326569932
0.3509969054065541,0.46481825075195915,401,5,20.44805993923061,9.093677326569932
0.35564390543629537,0.464813603659014,401,5,20.44805993923061,9.093677326569932
0.36029085880288986,0.46480895661276833,401,5,20.44805993923061,9.093677326569932
0.3649377655225054,0.4648043096132033,401,5,20.44805993923061,9.093677326569932
0.36958462561010214,0.4647996626603014,401,5,20.44805993923061,9.093677326569932
0.37423143907952433,0.46479501575404647,401,5,20.44805993923061,9.093677326569932
0.3788782059435869,0.4647903688944236,401,5,20.44805993923061,9.093677326569932
0.3835249262141546,0.4647857220814189,401,5,20.44805993923061,9.093677326569932
0.38817159990221517,0.4647810753150195,401,5,20.44805993923061,9.093677326569932
0.39281822701794633,0.4647764285952136,401,5,20.44805993923061,9.093677326569932
0.39746480757077857,0.4647717819219902,401,5,20.44805993923061,9.093677326569932
0.4021113415694526,0.46476713529533914,401,5,20.44805993923061,9.093677326569932
0.40675782902207214,0.464762488715251,401,5,20.44805993923061,9.093677326569932
0.4114042699361535,0.464757842181717,401,5,20.44805993923061,9.093677326569932
0.41605066431866994,0.464753195694729,401,5,20.44805993923061,9.093677326569932
0.42069701217609434,0.4647485492542796,401,5,20.44805993923061,9.093677326569932
0.425343313514437,0.4647439028603617,401,5,20.44805993923061,9.093677326569932
0.4299895683392816,0.46473925651296893,401,5,20.44805993923061,9.093677326569932
0.4346357766558178,0.4647346102120952,401,5,20.44805993923061,9.093677326569932
0.43928193846887204,0.464729963957735,401,5,20.44805993923061,9.093677326569932
0.4439280537829347,0.4647253177498831,401,5,20.44805993923061,9.093677326569932
0.44857412260218654,0.4647206715885347,401,5,20.44805993923061,9.093677326569932
0.45322014493052265,0.46471602547368523,401,5,20.44805993923061,9.093677326569932
0.4578661207715737,0.46471137940533064,401,5,20.44805993923061,9.093677326569932
0.4625120501287271,0.4647067333834669,401,5,20.44805993923061,9.093677326569932
0.46715793300514524,0.46470208740809044,401,5,20.44805993923061,9.093677326569932
0.47180376940378277,0.4646974414791979,401,5,20.44805993923061,9.093677326569932
0.4764495593274029,0.46469279559678606,401,5,20.44805993923061,9.093677326569932
0.48109530277859197,0.46468814976085204,401,5,20.44805993923061,9.093677326569932
0.4857409997597729,0.464683503971393,401,5,20.44805993923061,9.093677326569932
0.490386650273218,0.4646788582284064,401,5,20.44805993923061,9.093677326569932
0.49503225432106046,0.4646742125318898,401,5,20.44805993923061,9.093677326569932
0.4996778119053051,0.4646695668818409,401,5,20.44805993923061,9.093677326569932
0.5043233230278382,0.46466492127825765,401,5,20.44805993923061,9.093677326569932
0.5089687876904365,0.464660275721138,401,5,20.44805993923061,9.093677326569932
0.513614205894776,0.46465563021048,401,5,20.44805993923061,9.093677326569932
0.5182595776424394,0.46465098474628197,401,5,20.44805993923061,9.093677326569932
0.5229049029349229,0.46464633932854216,401,5,20.44805993923061,9.093677326569932
0.5275501817736441,0.46464169395725907,401,5,20.44805993923061,9.093677326569932
0.5321954141599465,0.4646370486324311,401,5,20.44805993923061,9.093677326569932
0.5368406000951065,0.4646324033540569,401,5,20.44805993923061,9.093677326569932
0.5414857395803376,0.46462775812213514,401,5,20.44805993923061,9.093677326569932
0.5461308326167962,0.46462311293666453,401,5,20.44805993923061,9.093677326569932
0.5507758792055845,0.4646184677976438,401,5,20.44805993923061,9.093677326569932
0.5554208793477567,0.4646138227050719,401,5,20.44805993923061,9.093677326569932
0.5600658330443209,0.4646091776589476,401,5,20.44805993923061,9.093677326569932
0.5647107402962435,0.46460453265926993,401,5,20.44805993923061,9.093677326569932
0.5693556011044524,0.4645998877060379,401,5,20.44805993923061,9.093677326569932
0.5740004154698398,0.46459524279925046,401,5,20.44805993923061,9.093677326569932
0.578645183393265,0.4645905979389067,401,5,20.44805993923061,9.093677326569932
0.5832899048755565,0.46458595312500583,401,5,20.44805993923061,9.093677326569932
0.5879345799175151,0.4645813083575469,401,5,20.44805993923061,9.093677326569932
0.5925792085199161,0.4645766636365291,401,5,20.44805993923061,9.093677326569932
0.5972237906835102,0.4645720189619516,401,5,20.44805993923061,9.093677326569932
0.601868326409026,0.4645673743338137,401,5,20.44805993923061,9.093677326569932
0.6065128156971726,0.46456272975211454,401,5,20.44805993923061,9.093677326569932
0.6111572585486392,0.4645580852168535,401,5,20.44805993923061,9.093677326569932
0.6158016549640987,0.4645534407280298,401,5,20.44805993923061,9.093677326569932
0.6204460049442069,0.46454879628564283,401,5,20.44805993923061,9.093677326569932
0.6250903084896059,0.4645441518896918,401,5,20.44805993923061,9.093677326569932
0.6297345656009232,0.46453950754017614,401,5,20.44805993923061,9.093677326569932
0.6343787762787744,0.46453486323709514,401,5,20.44805993923061,9.093677326569932
0.6390229405237631,0.4645302189804483,401,5,20.44805993923061,9.093677326569932
0.6436670583364824,0.4645255747702349,401,5,20.44805993923061,9.093677326569932
0.648311129717515,0.4645209306064543,401,5,20.44805993923061,9.093677326569932
0.652955154667435,0.464516286489106,401,5,20.44805993923061,9.093677326569932
0.657599133186808,0.4645116424181894,401,5,20.44805993923061,9.093677326569932
0.6622430652761914,0.46450699839370385,401,5,20.44805993923061,9.093677326569932
0.6668869509361357,0.4645023544156489,401,5,20.44805993923061,9.093677326569932
0.6715307901671846,0.46449771048402394,401,5,20.44805993923061,9.093677326569932
0.6761745829698762,0.4644930665988284,401,5,20.44805993923061,9.093677326569932
0.6808183293447422,0.46448842276006175,401,5,20.44805993923061,9.093677326569932
0.6854620292923095,0.4644837789677234,401,5,20.44805993923061,9.093677326569932
0.6901056828131,0.46447913522181294,401,5,20.44805993923061,9.093677326569932
0.6947492899076312,0.4644744915223298,401,5,20.44805993923061,9.093677326569932
0.6993928505764165,0.46446984786927337,401,5,20.44805993923061,9.093677326569932
0.7040363648199658,0.4644652042626432,401,5,20.44805993923061,9.093677326569932
0.7086798326387848,0.46446056070243874,401,5,20.44805993923061,9.093677326569932
0.7133232540333765,0.4644559171886596,401,5,20.44805993923061,9.093677326569932
0.7179666290042409,0.4644512737213051,401,5,20.44805993923061,9.093677326569932
0.7226099575518753,0.46444663030037486,401,5,20.44805993923061,9.093677326569932
0.7272532396767737,0.46444198692586836,401,5,20.44805993923061,9.093677326569932
0.7318964753794289,0.46443734359778505,401,5,20.44805993923061,9.093677326569932
0.7365396646603307,0.4644327003161245,401,5,20.44805993923061,9.093677326569932
0.7411828075199673,0.4644280570808862,401,5,20.44805993923061,9.093677326569932
0.745825903958825,0.4644234138920696,401,5,20.44805993923061,9.093677326569932
0.750468953977388,0.4644187707496743,401,5,20.44805993923061,9.093677326569932
0.7551119575761394,0.46441412765369977,401,5,20.44805993923061,9.093677326569932
0.7597549147555608,0.4644094846041455,401,5,20.44805993923061,9.093677326569932
0.7643978255161323,0.46440484160101103,401,5,20.44805993923061,9.093677326569932
0.7690406898583327,0.46440019864429594,401,5,20.44805993923061,9.093677326569932
0.7736835077826398,0.46439555573399965,401,5,20.44805993923061,9.093677326569932
0.7783262792895302,0.46439091287012174,401,5,20.44805993923061,9.093677326569932
0.7829690043794799,0.46438627005266175,401,5,20.44805993923061,9.093677326569932
0.7876116830529635,0.46438162728161914,401,5,20.44805993923061,9.093677326569932
0.7922543153104549,0.4643769845569935,401,5,20.44805993923061,9.093677326569932
0.7968969011524274,0.4643723418787843,401,5,20.44805993923061,9.093677326569932
0.801539440579354,0.46436769924699106,401,5,20.44805993923061,9.093677326569932
0.8061819335917058,0.46436305666161337,401,5,20.44805993923061,9.093677326569932
0.8108243801899544,0.46435841412265066,401,5,20.44805993923061,9.093677326569932
0.8154667803745703,0.4643537716301026,401,5,20.44805993923061,9.093677326569932
0.8201091341460239,0.4643491291839686,401,5,20.44805993923061,9.093677326569932
0.8247514415047849,0.4643444867842482,401,5,20.44805993923061,9.093677326569932
0.8293937024513222,0.464339844430941,401,5,20.44805993923061,9.093677326569932
0.8340359169861051,0.4643352021240465,401,5,20.44805993923061,9.093677326569932
0.8386780851096018,0.4643305598635642,401,5,20.44805993923061,9.093677326569932
0.8433202068222805,0.46432591764949366,401,5,20.44805993923061,9.093677326569932
0.847962282124609,0.4643212754818344,401,5,20.44805993923061,9.093677326569932
0.8526043110170549,0.46431663336058593,401,5,20.44805993923061,9.093677326569932
0.8572462935000852,0.4643119912857478,401,5,20.44805993923061,9.093677326569932
0.861888229574167,0.4643073492573196,401,5,20.44805993923061,9.093677326569932
0.8665301192397669,0.46430270727530076,401,5,20.44805993923061,9.093677326569932
0.8711719624973518,0.46429806533969087,401,5,20.44805993923061,9.093677326569932
0.8758137593473877,0.46429342345048946,401,5,20.44805993923061,9.093677326569932
0.8804555097903407,0.4642887816076961,401,5,20.44805993923061,9.093677326569932
0.885097213826677,0.4642841398113102,401,5,20.44805993923061,9.093677326569932
0.8897388714568624,0.46427949806133145,401,5,20.44805993923061,9.093677326569932
0.8943804826813622,0.4642748563577593,401,5,20.44805993923061,9.093677326569932
0.8990220475006422,0.4642702147005933,401,5,20.44805993923061,9.093677326569932
0.9036635659151678,0.46426557308983296,401,5,20.44805993923061,9.093677326569932
0.9083050379254043,0.46426093152547787,401,5,20.44805993923061,9.093677326569932
0.9129464635318169,0.4642562900075275,401,5,20.44805993923061,9.093677326569932
0.9175878427348705,0.4642516485359814,401,5,20.44805993923061,9.093677326569932
0.9222291755350303,0.46424700711083916,401,5,20.44805993923061,9.093677326569932
0.926870461932761,0.46424236573210026,401,5,20.44805993923061,9.093677326569932
0.9315117019285273,0.46423772439976424,401,5,20.44805993923061,9.093677326569932
0.9361528955227941,0.4642330831138306,401,5,20.44805993923061,9.093677326569932
0.940794042716026,0.464228441874299,401,5,20.44805993923061,9.093677326569932
0.9454351435086878,0.46422380068116886,401,5,20.44805993923061,9.093677326569932
0.9500761979012441,0.46421915953443976,401,5,20.44805993923061,9.093677326569932
0.9547172058941593,0.4642145184341112,401,5,20.44805993923061,9.093677326569932
0.9593581674878975,0.46420987738018277,401,5,20.44805993923061,9.093677326569932
0.9639990826829234,0.464205236372654,401,5,20.44805993923061,9.093677326569932
0.9686399514797015,0.4642005954115243,401,5,20.44805993923061,9.093677326569932
0.9732807738786957,0.4641959544967934,401,5,20.44805993923061,9.093677326569932
0.9779215498803708,0.4641913136284607,401,5,20.44805993923061,9.093677326569932
0.9825622794851905,0.4641866728065258,401,5,20.44805993923061,9.093677326569932
0.9872029626936195,0.46418203203098823,401,5,20.44805993923061,9.093677326569932
0.9918435995061216,0.4641773913018475,401,5,20.44805993923061,9.093677326569932
0.996484189923161,0.4641727506191031,401,5,20.44805993923061,9.093677326569932
1.001124733945202,0.4641681099827547,401,5,20.44805993923061,9.093677326569932
1.0057652315727086,0.46416346939280173,401,5,20.44805993923061,9.093677326569932
1.0104056828061447,0.46415882884924375,401,5,20.44805993923061,9.093677326569932
1.0150460876459746,0.46415418835208033,401,5,20.44805993923061,9.093677326569932
1.0196864460926622,0.4641495479013109,401,5,20.44805993923061,9.093677326569932
1.0243267581466717,0.46414490749693516,401,5,20.44805993923061,9.093677326569932
1.0289670238084667,0.4641402671389525,401,5,20.44805993923061,9.093677326569932
1.0336072430785115,0.46413562682736254,401,5,20.44805993923061,9.093677326569932
1.03824741595727,0.4641309865621648,401,5,20.44805993923061,9.093677326569932
1.0428875424452058,0.46412634634335875,401,5,20.44805993923061,9.093677326569932
1.047527622542783,0.46412170617094406,401,5,20.44805993923061,9.093677326569932
1.0521676562504656,0.46411706604492015,401,5,20.44805993923061,9.093677326569932
1.0568076435687177,0.46411242596528657,401,5,20.44805993923061,9.093677326569932
1.061447584498003,0.4641077859320429,401,5,20.44805993923061,9.093677326569932
1.0660874790387853,0.46410314594518864,401,5,20.44805993923061,9.093677326569932
1.070727327191528,0.46409850600472335,401,5,20.44805993923061,9.093677326569932
1.0753671289566962,0.46409386611064657,401,5,20.44805993923061,9.093677326569932
1.0800068843347528,0.46408922626295784,401,5,20.44805993923061,9.093677326569932
1.0846465933261613,0.4640845864616567,401,5,20.44805993923061,9.093677326569932
1.0892862559313863,0.4640799467067426,401,5,20.44805993923061,9.093677326569932
1.0939258721508913,0.46407530699821514,401,5,20.44805993923061,9.093677326569932
1.0985654419851403,0.4640706673360739,401,5,20.44805993923061,9.093677326569932
1.103204965434597,0.46406602772031835,401,5,20.44805993923061,9.093677326569932
1.1078444424997245,0.4640613881509481,401,5,20.44805993923061,9.093677326569932
1.1124838731809874,0.4640567486279626,401,5,20.44805993923061,9.093677326569932
1.1171232574788494,0.4640521091513614,401,5,20.44805993923061,9.093677326569932
1.121762595393774,0.46404746972114413,401,5,20.44805993923061,9.093677326569932
1.1264018869262251,0.4640428303373102,401,5,20.44805993923061,9.093677326569932
1.1310411320766662,0.4640381909998592,401,5,20.44805993923061,9.093677326569932
