Vout,Iout,Irradiance,Temperature,MaxVoltage,MaxPower
6.249939904423997e-06,0.00125,1,50,0.22654461243488502,0.0002318629170791013
1.874970414596782e-05,0.00125,1,50,0.22654461243488502,0.0002318629170791013
3.124921427043985e-05,0.0012499936250600955,1,50,0.22654461243488502,0.0002318629170791013
4.374842487990936e-05,0.001249981125295854,1,50,0.22654461243488502,0.0002318629170791013
5.6247321137544974e-05,0.0012499686257863671,1,50,0.22654461243488502,0.0002318629170791013
6.874591761783124e-05,0.0012499561265770075,1,50,0.22654461243488502,0.0002318629170791013
8.124422777438034e-05,0.0012499436276819998,1,50,0.22654461243488502,0.0002318629170791013
9.374226402589712e-05,0.0012499311290867696,1,50,0.22654461243488502,0.0002318629170791013
0.00010624003783566777,0.001249918630777863,1,50,0.22654461243488502,0.0002318629170791013
0.00011873755978507135,0.0012499061327428613,1,50,0.22654461243488502,0.0002318629170791013
0.0001312348396414352,0.0012498936349703013,1,50,0.22654461243488502,0.0002318629170791013
0.00014373188642066907,0.0012498811374496016,1,50,0.22654461243488502,0.0002318629170791013
0.00015622870844508066,0.001249868640170995,1,50,0.22654461243488502,0.0002318629170791013
0.00016872531339674234,0.0012498561431254656,1,50,0.22654461243488502,0.0002318629170791013
0.00018122170836675172,0.001249843646304691,1,50,0.22654461243488502,0.0002318629170791013
0.00019371789990070242,0.0012498311497009889,1,50,0.22654461243488502,0.0002318629170791013
0.00020621389404065586,0.0012498186533072687,1,50,0.22654461243488502,0.0002318629170791013
0.0002187096963638839,0.0012498061571169844,1,50,0.22654461243488502,0.0002318629170791013
0.00023120531201863042,0.001249793661124094,1,50,0.22654461243488502,0.0002318629170791013
0.00024370074575712127,0.0012497811653230204,1,50,0.22654461243488502,0.0002318629170791013
0.0002561960019660349,0.0012497686697086152,1,50,0.22654461243488502,0.0002318629170791013
0.00026869108469462777,0.0012497561742761264,1,50,0.22654461243488502,0.0002318629170791013
0.00028118599768069607,0.001249743679021167,1,50,0.22654461243488502,0.0002318629170791013
0.0002936807443745405,0.001249731183939688,1,50,0.22654461243488502,0.0002318629170791013
0.0003061753279610862,0.0012497186890279514,1,50,0.22654461243488502,0.0002318629170791013
0.0003186697513803012,0.0012497061942825071,1,50,0.22654461243488502,0.0002318629170791013
0.0003311640173460437,0.00124969369970017,1,50,0.22654461243488502,0.0002318629170791013
0.0003436581283634596,0.0012496812052780002,1,50,0.22654461243488502,0.0002318629170791013
0.00035615208674504115,0.001249668711013284,1,50,0.22654461243488502,0.0002318629170791013
0.00036864589462544964,0.001249656216903516,1,50,0.22654461243488502,0.0002318629170791013
0.00038113955397519846,0.001249643722946384,1,50,0.22654461243488502,0.0002318629170791013
0.00039363306661328244,0.001249631229139753,1,50,0.22654461243488502,0.0002318629170791013
0.0004061264342188363,0.0012496187354816524,1,50,0.22654461243488502,0.0002318629170791013
0.00041861965834189555,0.0012496062419702638,1,50,0.22654461243488502,0.0002318629170791013
0.0004311127404133296,0.0012495937486039076,1,50,0.22654461243488502,0.0002318629170791013
0.0004436056817540107,0.0012495812553810339,1,50,0.22654461243488502,0.0002318629170791013
0.0004560984835832769,0.0012495687623002118,1,50,0.22654461243488502,0.0002318629170791013
0.0004685911470267448,0.0012495562693601206,1,50,0.22654461243488502,0.0002318629170791013
0.0004810836731235202,0.0012495437765595405,1,50,0.22654461243488502,0.0002318629170791013
0.0004935760628328545,0.0012495312838973463,1,50,0.22654461243488502,0.0002318629170791013
0.0005060683170402891,0.0012495187913724988,1,50,0.22654461243488502,0.0002318629170791013
0.0005185604365633262,0.0012495062989840388,1,50,0.22654461243488502,0.0002318629170791013
0.0005310524221566646,0.0012494938067310806,1,50,0.22654461243488502,0.0002318629170791013
0.0005435442745170306,0.0012494813146128067,1,50,0.22654461243488502,0.0002318629170791013
0.0005560359942876403,0.0012494688226284626,1,50,0.22654461243488502,0.0002318629170791013
0.0005685275820623152,0.0012494563307773516,1,50,0.22654461243488502,0.0002318629170791013
0.0005810190383892837,0.00124944383905883,1,50,0.22654461243488502,0.0002318629170791013
0.0005935103637746885,0.0012494313474723047,1,50,0.22654461243488502,0.0002318629170791013
0.0006060015586858248,0.001249418856017227,1,50,0.22654461243488502,0.0002318629170791013
0.0006184926235541294,0.0012494063646930906,1,50,0.22654461243488502,0.0002318629170791013
0.00063098355877794,0.0012493938734994285,1,50,0.22654461243488502,0.0002318629170791013
0.0006434743647250418,0.0012493813824358095,1,50,0.22654461243488502,0.0002318629170791013
0.0006559650417350174,0.0012493688915018346,1,50,0.22654461243488502,0.0002318629170791013
0.0006684555901214179,0.0012493564006971368,1,50,0.22654461243488502,0.0002318629170791013
0.0006809460101737656,0.001249343910021376,1,50,0.22654461243488502,0.0002318629170791013
0.0006934363021594014,0.0012493314194742386,1,50,0.22654461243488502,0.0002318629170791013
0.0007059264663251942,0.0012493189290554354,1,50,0.22654461243488502,0.0002318629170791013
0.0007184165028991132,0.0012493064387646988,1,50,0.22654461243488502,0.0002318629170791013
0.0007309064120916843,0.0012492939486017818,1,50,0.22654461243488502,0.0002318629170791013
0.0007433961940973302,0.001249281458566457,1,50,0.22654461243488502,0.0002318629170791013
0.0007558858490956113,0.0012492689686585134,1,50,0.22654461243488502,0.0002318629170791013
0.0007683753772523681,0.001249256478877757,1,50,0.22654461243488502,0.0002318629170791013
0.0007808647787207774,0.0012492439892240075,1,50,0.22654461243488502,0.0002318629170791013
0.0007933540536423256,0.0012492314996970998,1,50,0.22654461243488502,0.0002318629170791013
0.0008058432021477096,0.0012492190102968803,1,50,0.22654461243488502,0.0002318629170791013
0.000818332224357666,0.0012492065210232078,1,50,0.22654461243488502,0.0002318629170791013
0.0008308211203837382,0.0012491940318759512,1,50,0.22654461243488502,0.0002318629170791013
0.0008433098903289833,0.0012491815428549902,1,50,0.22654461243488502,0.0002318629170791013
0.0008557985342886241,0.001249169053960213,1,50,0.22654461243488502,0.0002318629170791013
0.0008682870523506538,0.0012491565651915168,1,50,0.22654461243488502,0.0002318629170791013
0.0008807754445963913,0.001249144076548806,1,50,0.22654461243488502,0.0002318629170791013
0.0008932637111009941,0.0012491315880319928,1,50,0.22654461243488502,0.0002318629170791013
0.0009057518519339337,0.001249119099640996,1,50,0.22654461243488502,0.0002318629170791013
0.0009182398671594319,0.0012491066113757402,1,50,0.22654461243488502,0.0002318629170791013
0.0009307277568368652,0.0012490941232361562,1,50,0.22654461243488502,0.0002318629170791013
0.0009432155210211381,0.0012490816352221795,1,50,0.22654461243488502,0.0002318629170791013
0.000955703159763026,0.0012490691473337509,1,50,0.22654461243488502,0.0002318629170791013
0.0009681906731094941,0.0012490566595708154,1,50,0.22654461243488502,0.0002318629170791013
0.0009806780611039897,0.0012490441719333223,1,50,0.22654461243488502,0.0002318629170791013
0.0009931653237867139,0.0012490316844212246,1,50,0.22654461243488502,0.0002318629170791013
0.0010056524611948695,0.0012490191970344789,1,50,0.22654461243488502,0.0002318629170791013
0.001018139473362894,0.0012490067097730448,1,50,0.22654461243488502,0.0002318629170791013
0.0010306263603226706,0.0012489942226368855,1,50,0.22654461243488502,0.0002318629170791013
0.001043113122103726,0.001248981735625966,1,50,0.22654461243488502,0.0002318629170791013
0.00105559975873341,0.0012489692487402551,1,50,0.22654461243488502,0.0002318629170791013
0.0010680862702370651,0.0012489567619797227,1,50,0.22654461243488502,0.0002318629170791013
0.0010805726566381797,0.0012489442753443418,1,50,0.22654461243488502,0.0002318629170791013
0.0010930589179585309,0.0012489317888340868,1,50,0.22654461243488502,0.0002318629170791013
0.0011055450542183161,0.0012489193024489344,1,50,0.22654461243488502,0.0002318629170791013
0.0011180310654362745,0.0012489068161888625,1,50,0.22654461243488502,0.0002318629170791013
0.0011305169516298004,0.0012488943300538514,1,50,0.22654461243488502,0.0002318629170791013
0.001143002712815045,0.0012488818440438822,1,50,0.22654461243488502,0.0002318629170791013
0.0011554883490070126,0.0012488693581589373,1,50,0.22654461243488502,0.0002318629170791013
0.0011679738602196497,0.0012488568723990005,1,50,0.22654461243488502,0.0002318629170791013
0.0011804592464659256,0.0012488443867640572,1,50,0.22654461243488502,0.0002318629170791013
0.0011929445077579076,0.0012488319012540932,1,50,0.22654461243488502,0.0002318629170791013
0.0012054296441068304,0.0012488194158690954,1,50,0.22654461243488502,0.0002318629170791013
0.0012179146555231606,0.001248806930609052,1,50,0.22654461243488502,0.0002318629170791013
0.0012303995420166552,0.0012487944454739517,1,50,0.22654461243488502,0.0002318629170791013
0.0012428843035964163,0.0012487819604637838,1,50,0.22654461243488502,0.0002318629170791013
0.001255368940270943,0.0012487694755785388,1,50,0.22654461243488502,0.0002318629170791013
0.001267853452048174,0.0012487569908182076,1,50,0.22654461243488502,0.0002318629170791013
0.001280337838935536,0.0012487445061827814,1,50,0.22654461243488502,0.0002318629170791013
0.0012928221009399776,0.0012487320216722528,1,50,0.22654461243488502,0.0002318629170791013
0.0013053062380680115,0.0012487195372866138,1,50,0.22654461243488502,0.0002318629170791013
0.001317790250325743,0.001248707053025858,1,50,0.22654461243488502,0.0002318629170791013
0.0013302741377189055,0.0012486945688899784,1,50,0.22654461243488502,0.0002318629170791013
0.0013427579002528848,0.001248682084878969,1,50,0.22654461243488502,0.0002318629170791013
0.0013552415379327505,0.0012486696009928243,1,50,0.22654461243488502,0.0002318629170791013
0.0013677250507632777,0.0012486571172315387,1,50,0.22654461243488502,0.0002318629170791013
0.0013802084387489694,0.001248644633595107,1,50,0.22654461243488502,0.0002318629170791013
0.0013926917018940786,0.001248632150083525,1,50,0.22654461243488502,0.0002318629170791013
0.0014051748402026274,0.0012486196666967877,1,50,0.22654461243488502,0.0002318629170791013
0.0014176578536784239,0.0012486071834348909,1,50,0.22654461243488502,0.0002318629170791013
0.001430140742325079,0.0012485947002978308,1,50,0.22654461243488502,0.0002318629170791013
0.0014426235061460219,0.0012485822172856032,1,50,0.22654461243488502,0.0002318629170791013
0.001455106145144515,0.001248569734398205,1,50,0.22654461243488502,0.0002318629170791013
0.001467588659323664,0.0012485572516356322,1,50,0.22654461243488502,0.0002318629170791013
0.0014800710486864326,0.0012485447689978822,1,50,0.22654461243488502,0.0002318629170791013
0.0014925533132356525,0.0012485322864849511,1,50,0.22654461243488502,0.0002318629170791013
0.0015050354529740333,0.0012485198040968367,1,50,0.22654461243488502,0.0002318629170791013
0.001517517467904172,0.0012485073218335358,1,50,0.22654461243488502,0.0002318629170791013
0.0015299993580285623,0.0012484948396950456,1,50,0.22654461243488502,0.0002318629170791013
0.0015424811233496008,0.0012484823576813637,1,50,0.22654461243488502,0.0002318629170791013
0.0015549627638695967,0.0012484698757924875,1,50,0.22654461243488502,0.0002318629170791013
0.0015674442795907775,0.0012484573940284146,1,50,0.22654461243488502,0.0002318629170791013
0.0015799256705152946,0.0012484449123891428,1,50,0.22654461243488502,0.0002318629170791013
0.0015924069366452312,0.0012484324308746698,1,50,0.22654461243488502,0.0002318629170791013
0.0016048880779826042,0.0012484199494849934,1,50,0.22654461243488502,0.0002318629170791013
0.0016173690945293726,0.0012484074682201118,1,50,0.22654461243488502,0.0002318629170791013
0.0016298499862874409,0.0012483949870800224,1,50,0.22654461243488502,0.0002318629170791013
0.0016423307532586625,0.001248382506064724,1,50,0.22654461243488502,0.0002318629170791013
0.0016548113954448441,0.0012483700251742138,1,50,0.22654461243488502,0.0002318629170791013
0.0016672919128477494,0.0012483575444084908,1,50,0.22654461243488502,0.0002318629170791013
0.0016797723054691027,0.0012483450637675528,1,50,0.22654461243488502,0.0002318629170791013
0.001692252573310591,0.001248332583251398,1,50,0.22654461243488502,0.0002318629170791013
0.0017047327163738678,0.0012483201028600246,1,50,0.22654461243488502,0.0002318629170791013
0.0017172127346605562,0.0012483076225934312,1,50,0.22654461243488502,0.0002318629170791013
0.001729692628172249,0.0012482951424516158,1,50,0.22654461243488502,0.0002318629170791013
0.0017421723969105127,0.001248282662434577,1,50,0.22654461243488502,0.0002318629170791013
0.0017546520408768902,0.0012482701825423136,1,50,0.22654461243488502,0.0002318629170791013
0.0017671315600729005,0.0012482577027748234,1,50,0.22654461243488502,0.0002318629170791013
0.0017796109545000424,0.0012482452231321048,1,50,0.22654461243488502,0.0002318629170791013
0.0017920902241597943,0.0012482327436141567,1,50,0.22654461243488502,0.0002318629170791013
0.001804569369053619,0.0012482202642209778,1,50,0.22654461243488502,0.0002318629170791013
0.0018170483891829607,0.001248207784952566,1,50,0.22654461243488502,0.0002318629170791013
0.0018295272845492484,0.00124819530580892,1,50,0.22654461243488502,0.0002318629170791013
0.0018420060551538988,0.0012481828267900386,1,50,0.22654461243488502,0.0002318629170791013
0.0018544847009983139,0.0012481703478959202,1,50,0.22654461243488502,0.0002318629170791013
0.0018669632220838848,0.0012481578691265634,1,50,0.22654461243488502,0.0002318629170791013
0.0018794416184119906,0.0012481453904819668,1,50,0.22654461243488502,0.0002318629170791013
0.001891919889984001,0.0012481329119621292,1,50,0.22654461243488502,0.0002318629170791013
0.0019043980368012765,0.001248120433567049,1,50,0.22654461243488502,0.0002318629170791013
0.0019168760588651678,0.0012481079552967248,1,50,0.22654461243488502,0.0002318629170791013
0.0019293539561770186,0.0012480954771511555,1,50,0.22654461243488502,0.0002318629170791013
0.001941831728738165,0.0012480829991303394,1,50,0.22654461243488502,0.0002318629170791013
0.0019543093765499358,0.0012480705212342754,1,50,0.22654461243488502,0.0002318629170791013
0.0019667868996136534,0.001248058043462962,1,50,0.22654461243488502,0.0002318629170791013
0.0019792642979306356,0.001248045565816398,1,50,0.22654461243488502,0.0002318629170791013
0.0019917415715021932,0.001248033088294582,1,50,0.22654461243488502,0.0002318629170791013
0.002004218720329633,0.0012480206108975128,1,50,0.22654461243488502,0.0002318629170791013
0.0020166957444142566,0.001248008133625189,1,50,0.22654461243488502,0.0002318629170791013
0.002029172643757363,0.0012479956564776093,1,50,0.22654461243488502,0.0002318629170791013
0.0020416494183602453,0.0012479831794547725,1,50,0.22654461243488502,0.0002318629170791013
0.002054126068224194,0.001247970702556677,1,50,0.22654461243488502,0.0002318629170791013
0.0020666025933504953,0.001247958225783322,1,50,0.22654461243488502,0.0002318629170791013
0.002079078993740434,0.0012479457491347055,1,50,0.22654461243488502,0.0002318629170791013
0.00209155526939529,0.001247933272610827,1,50,0.22654461243488502,0.0002318629170791013
0.0021040314203163435,0.0012479207962116847,1,50,0.22654461243488502,0.0002318629170791013
0.0021165074465048683,0.0012479083199372775,1,50,0.22654461243488502,0.0002318629170791013
0.00212898334796214,0.001247895843787604,1,50,0.22654461243488502,0.0002318629170791013
0.002141459124689429,0.0012478833677626632,1,50,0.22654461243488502,0.0002318629170791013
0.0021539347766880057,0.0012478708918624536,1,50,0.22654461243488502,0.0002318629170791013
0.0021664103039591366,0.0012478584160869738,1,50,0.22654461243488502,0.0002318629170791013
0.0021788857065040907,0.0012478459404362229,1,50,0.22654461243488502,0.0002318629170791013
0.002191360984324131,0.0012478334649101994,1,50,0.22654461243488502,0.0002318629170791013
0.0022038361374205214,0.0012478209895089019,1,50,0.22654461243488502,0.0002318629170791013
0.002216311165794524,0.0012478085142323295,1,50,0.22654461243488502,0.0002318629170791013
0.0022287860694473996,0.0012477960390804806,1,50,0.22654461243488502,0.0002318629170791013
0.0022412608483804095,0.001247783564053354,1,50,0.22654461243488502,0.0002318629170791013
0.002253735502594811,0.0012477710891509487,1,50,0.22654461243488502,0.0002318629170791013
0.0022662100320918624,0.0012477586143732633,1,50,0.22654461243488502,0.0002318629170791013
0.0022786844368728205,0.0012477461397202962,1,50,0.22654461243488502,0.0002318629170791013
0.002291158716938942,0.0012477336651920466,1,50,0.22654461243488502,0.0002318629170791013
0.0023036328722914833,0.0012477211907885133,1,50,0.22654461243488502,0.0002318629170791013
0.0023161069029316982,0.0012477087165096946,1,50,0.22654461243488502,0.0002318629170791013
0.00232858080886084,0.0012476962423555896,1,50,0.22654461243488502,0.0002318629170791013
0.002341054590080165,0.0012476837683261966,1,50,0.22654461243488502,0.0002318629170791013
0.002353528246590924,0.001247671294421515,1,50,0.22654461243488502,0.0002318629170791013
0.002366001778394371,0.001247658820641543,1,50,0.22654461243488502,0.0002318629170791013
0.0023784751854917575,0.0012476463469862796,1,50,0.22654461243488502,0.0002318629170791013
0.002390948467884336,0.0012476338734557235,1,50,0.22654461243488502,0.0002318629170791013
0.0024034216255733563,0.0012476214000498736,1,50,0.22654461243488502,0.0002318629170791013
0.0024158946585600702,0.0012476089267687283,1,50,0.22654461243488502,0.0002318629170791013
0.002428367566845729,0.0012475964536122867,1,50,0.22654461243488502,0.0002318629170791013
0.002440840350431583,0.0012475839805805473,1,50,0.22654461243488502,0.0002318629170791013
0.0024533130093188807,0.001247571507673509,1,50,0.22654461243488502,0.0002318629170791013
0.002465785543508873,0.0012475590348911703,1,50,0.22654461243488502,0.0002318629170791013
0.00247825795300281,0.0012475465622335303,1,50,0.22654461243488502,0.0002318629170791013
0.0024907302378019396,0.0012475340897005877,1,50,0.22654461243488502,0.0002318629170791013
0.002503202397907512,0.001247521617292341,1,50,0.22654461243488502,0.0002318629170791013
0.0025156744333207754,0.0012475091450087892,1,50,0.22654461243488502,0.0002318629170791013
0.0025281463440429788,0.0012474966728499308,1,50,0.22654461243488502,0.0002318629170791013
0.00254061813007537,0.0012474842008157647,1,50,0.22654461243488502,0.0002318629170791013
0.0025530897914191985,0.0012474717289062897,1,50,0.22654461243488502,0.0002318629170791013
0.0025655613280757116,0.0012474592571215047,1,50,0.22654461243488502,0.0002318629170791013
0.0025780327400461585,0.0012474467854614079,1,50,0.22654461243488502,0.0002318629170791013
0.0025905040273317866,0.0012474343139259987,1,50,0.22654461243488502,0.0002318629170791013
0.002602975189933843,0.0012474218425152753,1,50,0.22654461243488502,0.0002318629170791013
0.002615446227853575,0.001247409371229237,1,50,0.22654461243488502,0.0002318629170791013
0.002627917141092232,0.001247396900067882,1,50,0.22654461243488502,0.0002318629170791013
0.0026403879296510607,0.0012473844290312092,1,50,0.22654461243488502,0.0002318629170791013
0.002652858593531308,0.0012473719581192178,1,50,0.22654461243488502,0.0002318629170791013
0.0026653291327342226,0.0012473594873319061,1,50,0.22654461243488502,0.0002318629170791013
0.0026777995472610505,0.001247347016669273,1,50,0.22654461243488502,0.0002318629170791013
0.00269026983711304,0.0012473345461313172,1,50,0.22654461243488502,0.0002318629170791013
0.002702740002291437,0.0012473220757180372,1,50,0.22654461243488502,0.0002318629170791013
0.002715210042797489,0.0012473096054294323,1,50,0.22654461243488502,0.0002318629170791013
