Vout,Iout,Irradiance,Temperature,MaxVoltage,MaxPower
0.008405919173854099,1.6812,1401,25,21.933204740977782,36.39376240145046
0.02521760208816088,1.6812,1401,25,21.933204740977782,36.39376240145046
0.042028943225170784,1.6811914259608263,1401,25,21.933204740977782,36.39376240145046
0.05883988152648289,1.6811746142779118,1401,25,21.933204740977782,36.39376240145046
0.07565039703715248,1.6811578029376322,1401,25,21.933204740977782,36.39376240145046
0.09246050935927828,1.681140992001012,1401,25,21.933204740977782,36.39376240145046
0.10927023658743057,1.6811241814871827,1401,25,21.933204740977782,36.39376240145046
0.12607959542427058,1.6811073713765416,1401,25,21.933204740977782,36.39376240145046
0.1428886012874597,1.6810905616509944,1401,25,21.933204740977782,36.39376240145046
0.15969726840852963,1.6810737522938386,1401,25,21.933204740977782,36.39376240145046
0.1765056099241447,1.6810569432896565,1401,25,21.933204740977782,36.39376240145046
0.1933136379603431,1.6810401346242163,1401,25,21.933204740977782,36.39376240145046
0.2101213637102957,1.6810233262843814,1401,25,21.933204740977782,36.39376240145046
0.22692879750608252,1.6810065182580263,1401,25,21.933204740977782,36.39376240145046
0.24373594888494632,1.680989710533957,1401,25,21.933204740977782,36.39376240145046
0.2605428266504487,1.680972903101842,1401,25,21.933204740977782,36.39376240145046
0.27734943892892056,1.6809560959521441,1401,25,21.933204740977782,36.39376240145046
0.29415579322156943,1.6809392890760593,1401,25,21.933204740977782,36.39376240145046
0.31096189645257727,1.6809224824654616,1401,25,21.933204740977782,36.39376240145046
0.327767755013498,1.6809056761128496,1401,25,21.933204740977782,36.39376240145046
0.34457337480423844,1.6808888700112992,1401,25,21.933204740977782,36.39376240145046
0.3613787612708866,1.6808720641544188,1401,25,21.933204740977782,36.39376240145046
0.3781839194406291,1.6808552585363088,1401,25,21.933204740977782,36.39376240145046
0.39498885395398214,1.6808384531515228,1401,25,21.933204740977782,36.39376240145046
0.41179356909454257,1.6808216479950335,1401,25,21.933204740977782,36.39376240145046
0.42859806881644996,1.6808048430622007,1401,25,21.933204740977782,36.39376240145046
0.44540235676973494,1.6807880383487406,1401,25,21.933204740977782,36.39376240145046
0.46220643632371866,1.6807712338506993,1401,25,21.933204740977782,36.39376240145046
0.47901031058861054,1.6807544295644266,1401,25,21.933204740977782,36.39376240145046
0.4958139824354448,1.680737625486553,1401,25,21.933204740977782,36.39376240145046
0.5126174545144829,1.6807208216139684,1401,25,21.933204740977782,36.39376240145046
0.5294207292722003,1.680704017943802,1401,25,21.933204740977782,36.39376240145046
0.5462238089669659,1.6806872144734033,1401,25,21.933204740977782,36.39376240145046
0.5630266956835157,1.6806704112003261,1401,25,21.933204740977782,36.39376240145046
0.5798293913463117,1.6806536081223116,1401,25,21.933204740977782,36.39376240145046
0.5966318977318741,1.6806368052372753,1401,25,21.933204740977782,36.39376240145046
0.6134342164801638,1.680620002543293,1401,25,21.933204740977782,36.39376240145046
0.6302363491050905,1.6806032000385875,1401,25,21.933204740977782,36.39376240145046
0.6470382970042096,1.6805863977215196,1401,25,21.933204740977782,36.39376240145046
0.6638400614676759,1.6805695955905748,1401,25,21.933204740977782,36.39376240145046
0.6806416436865068,1.680552793644356,1401,25,21.933204740977782,36.39376240145046
0.6974430447602109,1.6805359918815728,1401,25,21.933204740977782,36.39376240145046
0.714244265703827,1.6805191903010341,1401,25,21.933204740977782,36.39376240145046
0.7310453074544249,1.6805023889016406,1401,25,21.933204740977782,36.39376240145046
0.747846170877104,1.6804855876823772,1401,25,21.933204740977782,36.39376240145046
0.7646468567705309,1.6804687866423067,1401,25,21.933204740977782,36.39376240145046
0.7814473658720504,1.6804519857805642,1401,25,21.933204740977782,36.39376240145046
0.7982476988624042,1.6804351850963508,1401,25,21.933204740977782,36.39376240145046
0.8150478563700857,1.6804183845889293,1401,25,21.933204740977782,36.39376240145046
0.8318478389753609,1.6804015842576192,1401,25,21.933204740977782,36.39376240145046
0.8486476472139775,1.6803847841017914,1401,25,21.933204740977782,36.39376240145046
0.8654472815805915,1.6803679841208663,1401,25,21.933204740977782,36.39376240145046
0.8822467425319284,1.6803511843143077,1401,25,21.933204740977782,36.39376240145046
0.8990460304897016,1.680334384681621,1401,25,21.933204740977782,36.39376240145046
0.9158451458433067,1.6803175852223498,1401,25,21.933204740977782,36.39376240145046
0.9326440889523079,1.680300785936072,1401,25,21.933204740977782,36.39376240145046
0.9494428601487326,1.6802839868223982,1401,25,21.933204740977782,36.39376240145046
0.9662414597391908,1.6802671878809692,1401,25,21.933204740977782,36.39376240145046
0.9830398880068312,1.6802503891114526,1401,25,21.933204740977782,36.39376240145046
0.9998381452131448,1.6802335905135422,1401,25,21.933204740977782,36.39376240145046
1.0166362315996331,1.6802167920869542,1401,25,21.933204740977782,36.39376240145046
1.033434147389345,1.6801999938314278,1401,25,21.933204740977782,36.39376240145046
1.050231892788296,1.6801831957467213,1401,25,21.933204740977782,36.39376240145046
1.0670294679867818,1.6801663978326113,1401,25,21.933204740977782,36.39376240145046
1.083826873160583,1.6801496000888922,1401,25,21.933204740977782,36.39376240145046
1.100624108472086,1.6801328025153734,1401,25,21.933204740977782,36.39376240145046
1.1174211740713118,1.6801160051118795,1401,25,21.933204740977782,36.39376240145046
1.1342180700968685,1.6800992078782477,1401,25,21.933204740977782,36.39376240145046
1.151014796676827,1.6800824108143282,1401,25,21.933204740977782,36.39376240145046
1.1678113539295347,1.6800656139199823,1401,25,21.933204740977782,36.39376240145046
1.1846077419643617,1.680048817195082,1401,25,21.933204740977782,36.39376240145046
1.2014039608823923,1.6800320206395092,1401,25,21.933204740977782,36.39376240145046
1.2182000107770627,1.6800152242531539,1401,25,21.933204740977782,36.39376240145046
1.2349958917347486,1.6799984280359155,1401,25,21.933204740977782,36.39376240145046
1.2517916038353094,1.6799816319877006,1401,25,21.933204740977782,36.39376240145046
1.268587147152589,1.6799648361084225,1401,25,21.933204740977782,36.39376240145046
1.2853825217548782,1.6799480403980016,1401,25,21.933204740977782,36.39376240145046
1.3021777277053441,1.679931244856364,1401,25,21.933204740977782,36.39376240145046
1.318972765062421,1.679914449483441,1401,25,21.933204740977782,36.39376240145046
1.3357676338801774,1.6798976542791701,1401,25,21.933204740977782,36.39376240145046
1.3525623342086504,1.6798808592434926,1401,25,21.933204740977782,36.39376240145046
1.3693568660941562,1.6798640643763545,1401,25,21.933204740977782,36.39376240145046
1.3861512295795773,1.6798472696777054,1401,25,21.933204740977782,36.39376240145046
1.4029454247046251,1.6798304751474995,1401,25,21.933204740977782,36.39376240145046
1.4197394515060853,1.6798136807856934,1401,25,21.933204740977782,36.39376240145046
1.4365333100180417,1.679796886592248,1401,25,21.933204740977782,36.39376240145046
1.4533270002720848,1.6797800925671258,1401,25,21.933204740977782,36.39376240145046
1.4701205222975038,1.6797632987102933,1401,25,21.933204740977782,36.39376240145046
1.4869138761214646,1.6797465050217186,1401,25,21.933204740977782,36.39376240145046
1.5037070617691704,1.6797297115013727,1401,25,21.933204740977782,36.39376240145046
1.5205000792640144,1.679712918149228,1401,25,21.933204740977782,36.39376240145046
1.5372929286277206,1.6796961249652598,1401,25,21.933204740977782,36.39376240145046
1.5540856098804694,1.6796793319494443,1401,25,21.933204740977782,36.39376240145046
1.5708781230410178,1.6796625391017599,1401,25,21.933204740977782,36.39376240145046
1.587670468126809,1.6796457464221863,1401,25,21.933204740977782,36.39376240145046
1.604462645154073,1.679628953910705,1401,25,21.933204740977782,36.39376240145046
1.6212546541379202,1.6796121615672985,1401,25,21.933204740977782,36.39376240145046
1.6380464950924272,1.6795953693919505,1401,25,21.933204740977782,36.39376240145046
1.6548381680307176,1.6795785773846459,1401,25,21.933204740977782,36.39376240145046
1.6716296729650333,1.6795617855453706,1401,25,21.933204740977782,36.39376240145046
1.6884210099068044,1.6795449938741116,1401,25,21.933204740977782,36.39376240145046
1.7052121788667092,1.6795282023708564,1401,25,21.933204740977782,36.39376240145046
1.722003179854735,1.6795114110355938,1401,25,21.933204740977782,36.39376240145046
1.7387940128802295,1.6794946198683132,1401,25,21.933204740977782,36.39376240145046
1.7555846779519495,1.6794778288690042,1401,25,21.933204740977782,36.39376240145046
1.7723751750781078,1.6794610380376578,1401,25,21.933204740977782,36.39376240145046
1.7891655042664147,1.6794442473742652,1401,25,21.933204740977782,36.39376240145046
1.8059556655241158,1.6794274568788181,1401,25,21.933204740977782,36.39376240145046
1.8227456588580278,1.6794106665513089,1401,25,21.933204740977782,36.39376240145046
1.8395354842745737,1.6793938763917302,1401,25,21.933204740977782,36.39376240145046
1.8563251417798095,1.6793770864000754,1401,25,21.933204740977782,36.39376240145046
1.8731146313794558,1.679360296576338,1401,25,21.933204740977782,36.39376240145046
1.8899039530789215,1.6793435069205116,1401,25,21.933204740977782,36.39376240145046
1.9066931068833286,1.679326717432591,1401,25,21.933204740977782,36.39376240145046
1.923482092797534,1.6793099281125705,1401,25,21.933204740977782,36.39376240145046
1.9402709108261498,1.6792931389604449,1401,25,21.933204740977782,36.39376240145046
1.9570595609735628,1.6792763499762098,1401,25,21.933204740977782,36.39376240145046
1.9738480432439511,1.67925956115986,1401,25,21.933204740977782,36.39376240145046
1.9906363576413013,1.6792427725113914,1401,25,21.933204740977782,36.39376240145046
2.0074245041694203,1.6792259840308,1401,25,21.933204740977782,36.39376240145046
2.024212482831953,1.6792091957180815,1401,25,21.933204740977782,36.39376240145046
2.0410002936323925,1.6791924075732323,1401,25,21.933204740977782,36.39376240145046
2.057787936574092,1.6791756195962484,1401,25,21.933204740977782,36.39376240145046
2.0745754116602764,1.6791588317871269,1401,25,21.933204740977782,36.39376240145046
2.0913627188940502,1.679142044145864,1401,25,21.933204740977782,36.39376240145046
2.1081498582784093,1.6791252566724566,1401,25,21.933204740977782,36.39376240145046
2.124936829816248,1.6791084693669016,1401,25,21.933204740977782,36.39376240145046
2.1417236335103675,1.679091682229196,1401,25,21.933204740977782,36.39376240145046
2.1585102693634806,1.6790748952593368,1401,25,21.933204740977782,36.39376240145046
2.1752967373782224,1.6790581084573215,1401,25,21.933204740977782,36.39376240145046
2.192083037557154,1.679041321823147,1401,25,21.933204740977782,36.39376240145046
2.2088691699027683,1.679024535356811,1401,25,21.933204740977782,36.39376240145046
2.225655134417495,1.6790077490583106,1401,25,21.933204740977782,36.39376240145046
2.2424409311037063,1.6789909629276438,1401,25,21.933204740977782,36.39376240145046
2.2592265599637216,1.6789741769648077,1401,25,21.933204740977782,36.39376240145046
2.2760120209998096,1.6789573911698001,1401,25,21.933204740977782,36.39376240145046
2.2927973142141953,1.6789406055426186,1401,25,21.933204740977782,36.39376240145046
2.3095824396090596,1.678923820083261,1401,25,21.933204740977782,36.39376240145046
2.3263673971865457,1.6789070347917252,1401,25,21.933204740977782,36.39376240145046
2.3431521869487613,1.678890249668009,1401,25,21.933204740977782,36.39376240145046
2.35993680889778,1.67887346471211,1401,25,21.933204740977782,36.39376240145046
2.376721263035646,1.6788566799240263,1401,25,21.933204740977782,36.39376240145046
2.393505549364374,1.6788398953037558,1401,25,21.933204740977782,36.39376240145046
2.4102896678859556,1.6788231108512963,1401,25,21.933204740977782,36.39376240145046
2.427073618602353,1.6788063265666462,1401,25,21.933204740977782,36.39376240145046
2.443857401515512,1.678789542449803,1401,25,21.933204740977782,36.39376240145046
2.4606410166273545,1.678772758500765,1401,25,21.933204740977782,36.39376240145046
2.477424463939785,1.6787559747195302,1401,25,21.933204740977782,36.39376240145046
2.4942077434546897,1.678739191106097,1401,25,21.933204740977782,36.39376240145046
2.5109908551739384,1.6787224076604628,1401,25,21.933204740977782,36.39376240145046
2.527773799099388,1.6787056243826262,1401,25,21.933204740977782,36.39376240145046
2.544556575232879,1.6786888412725853,1401,25,21.933204740977782,36.39376240145046
2.561339183576241,1.6786720583303383,1401,25,21.933204740977782,36.39376240145046
2.5781216241312928,1.678655275555883,1401,25,21.933204740977782,36.39376240145046
2.5949038968998397,1.678638492949218,1401,25,21.933204740977782,36.39376240145046
2.611686001883679,1.6786217105103411,1401,25,21.933204740977782,36.39376240145046
2.628467939084598,1.6786049282392508,1401,25,21.933204740977782,36.39376240145046
2.6452497085043754,1.6785881461359453,1401,25,21.933204740977782,36.39376240145046
2.662031310144785,1.6785713642004225,1401,25,21.933204740977782,36.39376240145046
2.678812744007587,1.678554582432681,1401,25,21.933204740977782,36.39376240145046
2.6955940100945406,1.6785378008327188,1401,25,21.933204740977782,36.39376240145046
2.712375108407397,1.6785210194005342,1401,25,21.933204740977782,36.39376240145046
2.7291560389479015,1.6785042381361255,1401,25,21.933204740977782,36.39376240145046
2.7459368017177943,1.6784874570394908,1401,25,21.933204740977782,36.39376240145046
2.76271739671881,1.6784706761106283,1401,25,21.933204740977782,36.39376240145046
2.779497823952681,1.6784538953495365,1401,25,21.933204740977782,36.39376240145046
2.7962780834211323,1.6784371147562136,1401,25,21.933204740977782,36.39376240145046
2.813058175125888,1.6784203343306578,1401,25,21.933204740977782,36.39376240145046
2.829838099068667,1.6784035540728675,1401,25,21.933204740977782,36.39376240145046
2.8466178552511856,1.6783867739828406,1401,25,21.933204740977782,36.39376240145046
2.8633974436751575,1.6783699940605759,1401,25,21.933204740977782,36.39376240145046
2.8801768643422925,1.6783532143060715,1401,25,21.933204740977782,36.39376240145046
2.896956117254298,1.6783364347193255,1401,25,21.933204740977782,36.39376240145046
2.9137352024128793,1.6783196553003363,1401,25,21.933204740977782,36.39376240145046
2.93051411981974,1.6783028760491023,1401,25,21.933204740977782,36.39376240145046
2.9472928694765823,1.6782860969656217,1401,25,21.933204740977782,36.39376240145046
2.964071451385104,1.6782693180498927,1401,25,21.933204740977782,36.39376240145046
2.980849865547003,1.6782525393019136,1401,25,21.933204740977782,36.39376240145046
2.9976281119639747,1.6782357607216831,1401,25,21.933204740977782,36.39376240145046
3.0144061906377155,1.678218982309199,1401,25,21.933204740977782,36.39376240145046
3.0311841015699166,1.67820220406446,1401,25,21.933204740977782,36.39376240145046
3.0479618447622707,1.678185425987464,1401,25,21.933204740977782,36.39376240145046
3.0647394202164686,1.6781686480782096,1401,25,21.933204740977782,36.39376240145046
3.0815168279342,1.678151870336695,1401,25,21.933204740977782,36.39376240145046
3.098294067917154,1.6781350927629188,1401,25,21.933204740977782,36.39376240145046
3.1150711401670166,1.6781183153568788,1401,25,21.933204740977782,36.39376240145046
3.1318480446854764,1.6781015381185735,1401,25,21.933204740977782,36.39376240145046
3.1486247814742194,1.6780847610480014,1401,25,21.933204740977782,36.39376240145046
3.165401350534931,1.6780679841451607,1401,25,21.933204740977782,36.39376240145046
3.1821777518692946,1.6780512074100498,1401,25,21.933204740977782,36.39376240145046
3.1989539854789957,1.6780344308426667,1401,25,21.933204740977782,36.39376240145046
3.2157300513657177,1.67801765444301,1401,25,21.933204740977782,36.39376240145046
3.2325059495311423,1.678000878211078,1401,25,21.933204740977782,36.39376240145046
3.249281679976954,1.6779841021468689,1401,25,21.933204740977782,36.39376240145046
3.266057242704834,1.6779673262503811,1401,25,21.933204740977782,36.39376240145046
3.2828326377164636,1.6779505505216128,1401,25,21.933204740977782,36.39376240145046
3.2996078650135234,1.6779337749605625,1401,25,21.933204740977782,36.39376240145046
3.3163829245976966,1.6779169995672285,1401,25,21.933204740977782,36.39376240145046
3.3331578164706612,1.677900224341609,1401,25,21.933204740977782,36.39376240145046
3.349932540634099,1.6778834492837025,1401,25,21.933204740977782,36.39376240145046
3.36670709708969,1.677866674393507,1401,25,21.933204740977782,36.39376240145046
3.3834814858391127,1.677849899671021,1401,25,21.933204740977782,36.39376240145046
3.400255706884047,1.6778331251162428,1401,25,21.933204740977782,36.39376240145046
3.4170297602261734,1.677816350729171,1401,25,21.933204740977782,36.39376240145046
3.4338036458671684,1.6777995765098035,1401,25,21.933204740977782,36.39376240145046
3.450577363808712,1.6777828024581387,1401,25,21.933204740977782,36.39376240145046
3.467350914052484,1.6777660285741751,1401,25,21.933204740977782,36.39376240145046
3.4841242966001613,1.6777492548579112,1401,25,21.933204740977782,36.39376240145046
3.5008975114534233,1.6777324813093446,1401,25,21.933204740977782,36.39376240145046
3.517670558613947,1.6777157079284744,1401,25,21.933204740977782,36.39376240145046
3.5344434380834104,1.6776989347152984,1401,25,21.933204740977782,36.39376240145046
3.551216149863493,1.6776821616698152,1401,25,21.933204740977782,36.39376240145046
3.5679886939558707,1.6776653887920232,1401,25,21.933204740977782,36.39376240145046
3.5847610703622217,1.6776486160819204,1401,25,21.933204740977782,36.39376240145046
3.601533279084225,1.6776318435395052,1401,25,21.933204740977782,36.39376240145046
3.6183053201235564,1.6776150711647762,1401,25,21.933204740977782,36.39376240145046
3.6350771934818935,1.6775982989577314,1401,25,21.933204740977782,36.39376240145046
3.651848899160914,1.6775815269183694,1401,25,21.933204740977782,36.39376240145046
3.6686204371622946,1.6775647550466883,1401,25,21.933204740977782,36.39376240145046
3.685391807487713,1.6775479833426865,1401,25,21.933204740977782,36.39376240145046
3.7021630101388445,1.6775312118063623,1401,25,21.933204740977782,36.39376240145046
3.718934045117368,1.677514440437714,1401,25,21.933204740977782,36.39376240145046
3.7357049124249593,1.67749766923674,1401,25,21.933204740977782,36.39376240145046
3.7524756120632956,1.6774808982034386,1401,25,21.933204740977782,36.39376240145046
3.7692461440340534,1.6774641273378081,1401,25,21.933204740977782,36.39376240145046
3.7860165083389097,1.677447356639847,1401,25,21.933204740977782,36.39376240145046
3.8027867049795407,1.6774305861095533,1401,25,21.933204740977782,36.39376240145046
3.819556733957625,1.6774138157469254,1401,25,21.933204740977782,36.39376240145046
3.8363265952748367,1.6773970455519618,1401,25,21.933204740977782,36.39376240145046
3.8530962889328526,1.6773802755246607,1401,25,21.933204740977782,36.39376240145046
3.869865814933351,1.6773635056650207,1401,25,21.933204740977782,36.39376240145046
3.8866351732780062,1.6773467359730396,1401,25,21.933204740977782,36.39376240145046
3.9034043639684968,1.677329966448716,1401,25,21.933204740977782,36.39376240145046
3.920173387006497,1.6773131970920485,1401,25,21.933204740977782,36.39376240145046
3.9369422423936853,1.677296427903035,1401,25,21.933204740977782,36.39376240145046
3.9537109301317357,1.6772796588816739,1401,25,21.933204740977782,36.39376240145046
3.970479450222326,1.6772628900279636,1401,25,21.933204740977782,36.39376240145046
3.987247802667133,1.6772461213419023,1401,25,21.933204740977782,36.39376240145046
