Vout,Iout,Irradiance,Temperature,MaxVoltage,MaxPower
0.009950754319670003,1.9901699999999998,1701,10,20.8319860254116,41.02603820760553
0.02985207896014462,1.9901699999999998,1701,10,20.8319860254116,41.02603820760553
0.049752999011681016,1.9901598502286801,1701,10,20.8319860254116,41.02603820760553
0.06965344219459936,1.9901399489040397,1701,10,20.8319860254116,41.02603820760553
0.0895533848866463,1.990120047985003,1701,10,20.8319860254116,41.02603820760553
0.10945285029238334,1.9901001475438103,1701,10,20.8319860254116,41.02603820760553
0.12935185983179084,1.9900802476031083,1701,10,20.8319860254116,41.02603820760553
0.1492504332771357,1.9900603481396926,1701,10,20.8319860254116,41.02603820760553
0.1691485888795287,1.9900404491321433,1701,10,20.8319860254116,41.02603820760553
0.18904634348596439,1.9900205505606878,1701,10,20.8319860254116,41.02603820760553
0.20894371264735603,1.9900006524070752,1701,10,20.8319860254116,41.02603820760553
0.22884071071825837,1.9899807546544588,1701,10,20.8319860254116,41.02603820760553
0.24873735094891697,1.989960857287287,1701,10,20.8319860254116,41.02603820760553
0.2686336455702357,1.9899409602912062,1701,10,20.8319860254116,41.02603820760553
0.2885296058722066,1.9899210636529652,1701,10,20.8319860254116,41.02603820760553
0.30842524227630475,1.9899011673603335,1701,10,20.8319860254116,41.02603820760553
0.3283205644023137,1.989881271402021,1701,10,20.8319860254116,41.02603820760553
0.3482155811300087,1.9898613757676067,1701,10,20.8319860254116,41.02603820760553
0.3681103006560942,1.9898414804474702,1701,10,20.8319860254116,41.02603820760553
0.38800473054676016,1.9898215854327321,1701,10,20.8319860254116,41.02603820760553
0.407898877786195,1.9898016907151956,1701,10,20.8319860254116,41.02603820760553
0.42779274882136575,1.9897817962872946,1701,10,20.8319860254116,41.02603820760553
0.4476863496033527,1.9897619021420445,1701,10,20.8319860254116,41.02603820760553
0.4675796856255035,1.9897420082729989,1701,10,20.8319860254116,41.02603820760553
0.48747276195865197,1.9897221146742061,1701,10,20.8319860254116,41.02603820760553
0.5073655832836271,1.9897022213401734,1701,10,20.8319860254116,41.02603820760553
0.5272581539212604,1.9896823282658296,1701,10,20.8319860254116,41.02603820760553
0.5471504778600851,1.989662435446494,1701,10,20.8319860254116,41.02603820760553
0.5670425587819028,1.9896425428778457,1701,10,20.8319860254116,41.02603820760553
0.5869344000853849,1.989622650555896,1701,10,20.8319860254116,41.02603820760553
0.6068260049078564,1.9896027584769636,1701,10,20.8319860254116,41.02603820760553
0.6267173761454048,1.9895828666376494,1701,10,20.8319860254116,41.02603820760553
0.646608516471441,1.989562975034816,1701,10,20.8319860254116,41.02603820760553
0.6664994283538319,1.9895430836655676,1701,10,20.8319860254116,41.02603820760553
0.6863901140707166,1.9895231925272308,1701,10,20.8319860254116,41.02603820760553
0.706280575725103,1.9895033016173376,1701,10,20.8319860254116,41.02603820760553
0.7261708152583437,1.9894834109336097,1701,10,20.8319860254116,41.02603820760553
0.7460608344625729,1.9894635204739446,1701,10,20.8319860254116,41.02603820760553
0.7659506349921884,1.9894436302364003,1701,10,20.8319860254116,41.02603820760553
0.7858402183744491,1.9894237402191852,1701,10,20.8319860254116,41.02603820760553
0.8057295860192571,1.9894038504206446,1701,10,20.8319860254116,41.02603820760553
0.8256187392281875,1.9893839608392514,1701,10,20.8319860254116,41.02603820760553
0.8455076792028225,1.9893640714735954,1701,10,20.8319860254116,41.02603820760553
0.8653964070524462,1.9893441823223754,1701,10,20.8319860254116,41.02603820760553
0.8852849238011458,1.9893242933843898,1701,10,20.8319860254116,41.02603820760553
0.9051732303943658,1.989304404658529,1701,10,20.8319860254116,41.02603820760553
0.9250613277049602,1.9892845161437693,1701,10,20.8319860254116,41.02603820760553
0.9449492165387767,1.989264627839165,1701,10,20.8319860254116,41.02603820760553
0.9648368976398136,1.9892447397438433,1701,10,20.8319860254116,41.02603820760553
0.9847243716949768,1.9892248518569982,1701,10,20.8319860254116,41.02603820760553
1.0046116393384739,1.989204964177886,1701,10,20.8319860254116,41.02603820760553
1.0244987011558686,1.9891850767058197,1701,10,20.8319860254116,41.02603820760553
1.044385557687823,1.989165189440165,1701,10,20.8319860254116,41.02603820760553
1.0642722094335533,1.9891453023803363,1701,10,20.8319860254116,41.02603820760553
1.0841586568540176,1.989125415525793,1701,10,20.8319860254116,41.02603820760553
1.1040449003748602,1.989105528876036,1701,10,20.8319860254116,41.02603820760553
1.1239309403891289,1.9890856424306043,1701,10,20.8319860254116,41.02603820760553
1.143816777259782,1.989065756189072,1701,10,20.8319860254116,41.02603820760553
1.1637024113220051,1.9890458701510465,1701,10,20.8319860254116,41.02603820760553
1.1835878428853464,1.9890259843161644,1701,10,20.8319860254116,41.02603820760553
1.20347307223569,1.9890060986840907,1701,10,20.8319860254116,41.02603820760553
1.223358099637076,1.988986213254516,1701,10,20.8319860254116,41.02603820760553
1.2432429253333832,1.9889663280271541,1701,10,20.8319860254116,41.02603820760553
1.263127549549877,1.9889464430017414,1701,10,20.8319860254116,41.02603820760553
1.2830119724946452,1.9889265581780335,1701,10,20.8319860254116,41.02603820760553
1.3028961943599167,1.9889066735558056,1701,10,20.8319860254116,41.02603820760553
1.3227802153232833,1.9888867891348494,1701,10,20.8319860254116,41.02603820760553
1.3426640355488257,1.9888669049149725,1701,10,20.8319860254116,41.02603820760553
1.3625476551881524,1.9888470208959976,1701,10,20.8319860254116,41.02603820760553
1.3824310743813604,1.9888271370777604,1701,10,20.8319860254116,41.02603820760553
1.4023142932579198,1.9888072534601096,1701,10,20.8319860254116,41.02603820760553
1.4221973119374924,1.9887873700429046,1701,10,20.8319860254116,41.02603820760553
1.4420801305306856,1.9887674868260166,1701,10,20.8319860254116,41.02603820760553
1.461962749139749,1.9887476038093252,1701,10,20.8319860254116,41.02603820760553
1.481845167859219,1.9887277209927203,1701,10,20.8319860254116,41.02603820760553
1.5017273867765102,1.9887078383760997,1701,10,20.8319860254116,41.02603820760553
1.5216094059724645,1.9886879559593684,1701,10,20.8319860254116,41.02603820760553
1.5414912255218574,1.9886680737424394,1701,10,20.8319860254116,41.02603820760553
1.5613728454938616,1.9886481917252317,1701,10,20.8319860254116,41.02603820760553
1.5812542659524833,1.9886283099076705,1701,10,20.8319860254116,41.02603820760553
1.6011354869569545,1.9886084282896868,1701,10,20.8319860254116,41.02603820760553
1.6210165085621042,1.9885885468712163,1701,10,20.8319860254116,41.02603820760553
1.640897330818695,1.9885686656522,1701,10,20.8319860254116,41.02603820760553
1.6607779537737368,1.9885487846325829,1701,10,20.8319860254116,41.02603820760553
1.6806583774707757,1.9885289038123146,1701,10,20.8319860254116,41.02603820760553
1.7005386019501592,1.9885090231913476,1701,10,20.8319860254116,41.02603820760553
1.7204186272492843,1.9884891427696385,1701,10,20.8319860254116,41.02603820760553
1.740298453402823,1.9884692625471474,1701,10,20.8319860254116,41.02603820760553
1.7601780804429321,1.9884493825238363,1701,10,20.8319860254116,41.02603820760553
1.7800575083994479,1.9884295026996708,1701,10,20.8319860254116,41.02603820760553
1.7999367373000636,1.9884096230746187,1701,10,20.8319860254116,41.02603820760553
1.819815767170494,1.98838974364865,1701,10,20.8319860254116,41.02603820760553
1.8396945980346284,1.9883698644217374,1701,10,20.8319860254116,41.02603820760553
1.8595732299146717,1.9883499853938549,1701,10,20.8319860254116,41.02603820760553
1.8794516628312727,1.9883301065649788,1701,10,20.8319860254116,41.02603820760553
1.8993298968036434,1.9883102279350866,1701,10,20.8319860254116,41.02603820760553
1.9192079318496718,1.988290349504158,1701,10,20.8319860254116,41.02603820760553
1.9390857679860218,1.9882704712721733,1701,10,20.8319860254116,41.02603820760553
1.9589634052282279,1.9882505932391152,1701,10,20.8319860254116,41.02603820760553
1.978840843590783,1.9882307154049665,1701,10,20.8319860254116,41.02603820760553
1.9987180830872164,1.9882108377697123,1701,10,20.8319860254116,41.02603820760553
2.018595123730171,1.9881909603333374,1701,10,20.8319860254116,41.02603820760553
2.038471965531467,1.9881710830958288,1701,10,20.8319860254116,41.02603820760553
2.058348608502172,1.9881512060571735,1701,10,20.8319860254116,41.02603820760553
2.078225052652651,1.98813132921736,1701,10,20.8319860254116,41.02603820760553
2.0981012979926263,1.988111452576377,1701,10,20.8319860254116,41.02603820760553
2.117977344531225,1.9880915761342142,1701,10,20.8319860254116,41.02603820760553
2.137853192277025,1.9880716998908619,1701,10,20.8319860254116,41.02603820760553
2.1577288412380957,1.988051823846311,1701,10,20.8319860254116,41.02603820760553
2.17760429142204,1.9880319480005528,1701,10,20.8319860254116,41.02603820760553
2.197479542836027,1.9880120723535792,1701,10,20.8319860254116,41.02603820760553
2.217354595486829,1.9879921969053829,1701,10,20.8319860254116,41.02603820760553
2.2372294493808487,1.9879723216559566,1701,10,20.8319860254116,41.02603820760553
2.2571041045241493,1.9879524466052934,1701,10,20.8319860254116,41.02603820760553
2.27697856092248,1.9879325717533867,1701,10,20.8319860254116,41.02603820760553
2.2968528185813013,1.987912697100231,1701,10,20.8319860254116,41.02603820760553
2.3167268775058063,1.9878928226458201,1701,10,20.8319860254116,41.02603820760553
2.33660073770094,1.9878729483901487,1701,10,20.8319860254116,41.02603820760553
2.3564743991714217,1.9878530743332117,1701,10,20.8319860254116,41.02603820760553
2.3763478619217584,1.987833200475004,1701,10,20.8319860254116,41.02603820760553
2.3962211259562656,1.987813326815521,1701,10,20.8319860254116,41.02603820760553
2.4160941912790768,1.9877934533547579,1701,10,20.8319860254116,41.02603820760553
2.4359670578941626,1.9877735800927108,1701,10,20.8319860254116,41.02603820760553
2.4558397258053395,1.9877537070293754,1701,10,20.8319860254116,41.02603820760553
2.4757121950162837,1.9877338341647477,1701,10,20.8319860254116,41.02603820760553
2.4955844655305417,1.9877139614988237,1701,10,20.8319860254116,41.02603820760553
2.5154565373515387,1.9876940890316002,1701,10,20.8319860254116,41.02603820760553
2.5353284104825913,1.987674216763073,1701,10,20.8319860254116,41.02603820760553
2.5552000849269114,1.9876543446932393,1701,10,20.8319860254116,41.02603820760553
2.575071560687617,1.9876344728220956,1701,10,20.8319860254116,41.02603820760553
2.594942837767741,1.9876146011496383,1701,10,20.8319860254116,41.02603820760553
2.6148139161702333,1.987594729675865,1701,10,20.8319860254116,41.02603820760553
2.6346847958979724,1.987574858400772,1701,10,20.8319860254116,41.02603820760553
2.654555476953764,1.9875549873243565,1701,10,20.8319860254116,41.02603820760553
2.6744259593403545,1.987535116446616,1701,10,20.8319860254116,41.02603820760553
2.6942962430604305,1.9875152457675473,1701,10,20.8319860254116,41.02603820760553
2.714166328116624,1.9874953752871478,1701,10,20.8319860254116,41.02603820760553
2.734036214511519,1.9874755050054147,1701,10,20.8319860254116,41.02603820760553
2.7539059022476513,1.9874556349223456,1701,10,20.8319860254116,41.02603820760553
2.7737753913275154,1.9874357650379377,1701,10,20.8319860254116,41.02603820760553
2.7936446817535674,1.9874158953521885,1701,10,20.8319860254116,41.02603820760553
2.813513773528226,1.9873960258650958,1701,10,20.8319860254116,41.02603820760553
2.8333826666538777,1.9873761565766566,1701,10,20.8319860254116,41.02603820760553
2.853251361132877,1.9873562874868689,1701,10,20.8319860254116,41.02603820760553
2.873119856967551,1.9873364185957303,1701,10,20.8319860254116,41.02603820760553
2.8929881541602005,1.9873165499032381,1701,10,20.8319860254116,41.02603820760553
2.912856252713101,1.9872966814093904,1701,10,20.8319860254116,41.02603820760553
2.9327241526285057,1.9872768131141845,1701,10,20.8319860254116,41.02603820760553
2.9525918539086495,1.9872569450176185,1701,10,20.8319860254116,41.02603820760553
2.972459356555745,1.9872370771196899,1701,10,20.8319860254116,41.02603820760553
2.9923266605719903,1.9872172094203966,1701,10,20.8319860254116,41.02603820760553
3.0121937659595655,1.9871973419197364,1701,10,20.8319860254116,41.02603820760553
3.0320606727206347,1.9871774746177069,1701,10,20.8319860254116,41.02603820760553
3.051927380857351,1.987157607514306,1701,10,20.8319860254116,41.02603820760553
3.0717938903718514,1.9871377406095316,1701,10,20.8319860254116,41.02603820760553
3.091660201266264,1.9871178739033817,1701,10,20.8319860254116,41.02603820760553
3.111526313542705,1.987098007395854,1701,10,20.8319860254116,41.02603820760553
3.1313922272032806,1.987078141086946,1701,10,20.8319860254116,41.02603820760553
3.1512579422500875,1.9870582749766563,1701,10,20.8319860254116,41.02603820760553
3.1711234586852126,1.9870384090649824,1701,10,20.8319860254116,41.02603820760553
3.190988776510738,1.9870185433519223,1701,10,20.8319860254116,41.02603820760553
3.210853895728735,1.9869986778374737,1701,10,20.8319860254116,41.02603820760553
3.2307188163412706,1.9869788125216348,1701,10,20.8319860254116,41.02603820760553
3.250583538350405,1.9869589474044032,1701,10,20.8319860254116,41.02603820760553
3.270448061758192,1.9869390824857773,1701,10,20.8319860254116,41.02603820760553
3.290312386566682,1.9869192177657546,1701,10,20.8319860254116,41.02603820760553
3.3101765127779172,1.9868993532443333,1701,10,20.8319860254116,41.02603820760553
3.330040440393938,1.9868794889215113,1701,10,20.8319860254116,41.02603820760553
3.34990416941678,1.9868596247972865,1701,10,20.8319860254116,41.02603820760553
3.3697676998484742,1.986839760871657,1701,10,20.8319860254116,41.02603820760553
3.389631031691048,1.9868198971446205,1701,10,20.8319860254116,41.02603820760553
3.409494164946527,1.9868000336161753,1701,10,20.8319860254116,41.02603820760553
3.4293570996169325,1.986780170286319,1701,10,20.8319860254116,41.02603820760553
3.4492198357042834,1.98676030715505,1701,10,20.8319860254116,41.02603820760553
3.4690823732105955,1.9867404442223657,1701,10,20.8319860254116,41.02603820760553
3.488944712137883,1.9867205814882647,1701,10,20.8319860254116,41.02603820760553
3.508806852488158,1.9867007189527448,1701,10,20.8319860254116,41.02603820760553
3.5286687942634294,1.9866808566158038,1701,10,20.8319860254116,41.02603820760553
3.548530537465705,1.9866609944774398,1701,10,20.8319860254116,41.02603820760553
3.56839208209699,1.9866411325376507,1701,10,20.8319860254116,41.02603820760553
3.5882534281592906,1.9866212707964346,1701,10,20.8319860254116,41.02603820760553
3.6081145756546076,1.9866014092537896,1701,10,20.8319860254116,41.02603820760553
3.627975524584944,1.9865815479097133,1701,10,20.8319860254116,41.02603820760553
3.647836274952299,1.9865616867642042,1701,10,20.8319860254116,41.02603820760553
3.667696826758671,1.98654182581726,1701,10,20.8319860254116,41.02603820760553
3.6875571800060603,1.9865219650688788,1701,10,20.8319860254116,41.02603820760553
3.7074173346964616,1.9865021045190585,1701,10,20.8319860254116,41.02603820760553
3.727277290831872,1.9864822441677972,1701,10,20.8319860254116,41.02603820760553
3.7471370484142863,1.9864623840150928,1701,10,20.8319860254116,41.02603820760553
3.7669966074456993,1.9864425240609436,1701,10,20.8319860254116,41.02603820760553
3.786855967928105,1.986422664305347,1701,10,20.8319860254116,41.02603820760553
3.8067151298634934,1.9864028047483018,1701,10,20.8319860254116,41.02603820760553
3.82657409325386,1.9863829453898052,1701,10,20.8319860254116,41.02603820760553
3.8464328581011955,1.9863630862298558,1701,10,20.8319860254116,41.02603820760553
3.866291424407491,1.9863432272684514,1701,10,20.8319860254116,41.02603820760553
3.886149792174737,1.9863233685055899,1701,10,20.8319860254116,41.02603820760553
3.9060079614049243,1.9863035099412696,1701,10,20.8319860254116,41.02603820760553
3.9258659321000424,1.9862836515754883,1701,10,20.8319860254116,41.02603820760553
3.9457237042620807,1.9862637934082439,1701,10,20.8319860254116,41.02603820760553
3.9655812778930275,1.9862439354395345,1701,10,20.8319860254116,41.02603820760553
3.985438652994873,1.9862240776693583,1701,10,20.8319860254116,41.02603820760553
4.005295829569604,1.9862042200977132,1701,10,20.8319860254116,41.02603820760553
4.025152807619211,1.9861843627245972,1701,10,20.8319860254116,41.02603820760553
4.045009587145678,1.9861645055500081,1701,10,20.8319860254116,41.02603820760553
4.0648661681509966,1.9861446485739442,1701,10,20.8319860254116,41.02603820760553
4.084722550637151,1.9861247917964036,1701,10,20.8319860254116,41.02603820760553
4.104578734606131,1.9861049352173838,1701,10,20.8319860254116,41.02603820760553
4.12443472005992,1.9860850788368833,1701,10,20.8319860254116,41.02603820760553
4.144290507000509,1.9860652226549,1701,10,20.8319860254116,41.02603820760553
4.16414609542988,1.986045366671432,1701,10,20.8319860254116,41.02603820760553
4.184001485350022,1.986025510886477,1701,10,20.8319860254116,41.02603820760553
4.203856676762922,1.9860056553000331,1701,10,20.8319860254116,41.02603820760553
4.223711669670564,1.9859857999120987,1701,10,20.8319860254116,41.02603820760553
4.243566464074935,1.9859659447226714,1701,10,20.8319860254116,41.02603820760553
4.263421059978022,1.9859460897317491,1701,10,20.8319860254116,41.02603820760553
4.2832754573818095,1.9859262349393303,1701,10,20.8319860254116,41.02603820760553
4.303129656288281,1.9859063803454127,1701,10,20.8319860254116,41.02603820760553
4.322983656699425,1.9858865259499945,1701,10,20.8319860254116,41.02603820760553
4.342837458617227,1.9858666717530735,1701,10,20.8319860254116,41.02603820760553
4.36269106204367,1.9858468177546478,1701,10,20.8319860254116,41.02603820760553
4.3825444669807405,1.9858269639547155,1701,10,20.8319860254116,41.02603820760553
4.402397673430422,1.9858071103532744,1701,10,20.8319860254116,41.02603820760553
4.422250681394704,1.9857872569503225,1701,10,20.8319860254116,41.02603820760553
4.442103490875567,1.9857674037458584,1701,10,20.8319860254116,41.02603820760553
4.461956101874998,1.9857475507398794,1701,10,20.8319860254116,41.02603820760553
4.481808514394982,1.985727697932384,1701,10,20.8319860254116,41.02603820760553
4.501660728437503,1.9857078453233696,1701,10,20.8319860254116,41.02603820760553
4.5215127440045455,1.985687992912835,1701,10,20.8319860254116,41.02603820760553
4.541364561098096,1.9856681407007777,1701,10,20.8319860254116,41.02603820760553
4.5612161797201365,1.985648288687196,1701,10,20.8319860254116,41.02603820760553
4.581067599872654,1.9856284368720876,1701,10,20.8319860254116,41.02603820760553
4.600918821557632,1.9856085852554508,1701,10,20.8319860254116,41.02603820760553
4.620769844777053,1.9855887338372835,1701,10,20.8319860254116,41.02603820760553
4.640620669532905,1.9855688826175837,1701,10,20.8319860254116,41.02603820760553
4.660471295827171,1.9855490315963493,1701,10,20.8319860254116,41.02603820760553
4.680321723661835,1.9855291807735787,1701,10,20.8319860254116,41.02603820760553
4.700171953038882,1.9855093301492694,1701,10,20.8319860254116,41.02603820760553
4.7200219839602955,1.98548947972342,1701,10,20.8319860254116,41.02603820760553
4.739871816428059,1.985469629496028,1701,10,20.8319860254116,41.02603820760553
4.75972145044416,1.9854497794670916,1701,10,20.8319860254116,41.02603820760553
4.779570886010579,1.9854299296366087,1701,10,20.8319860254116,41.02603820760553
4.799420123129303,1.9854100800045777,1701,10,20.8319860254116,41.02603820760553
4.819269161802315,1.9853902305709963,1701,10,20.8319860254116,41.02603820760553
4.839118002031598,1.9853703813358625,1701,10,20.8319860254116,41.02603820760553
4.858966643819137,1.9853505322991745,1701,10,20.8319860254116,41.02603820760553
