Vout,Iout,Irradiance,Temperature,MaxVoltage,MaxPower
0.004725854559090778,0.9451799999999999,801,15,21.18600607978142,19.576131843904772
0.014177476291748689,0.9451799999999999,801,15,21.18600607978142,19.576131843904772
0.023628905875307468,0.9451751796274408,801,15,21.18600607978142,19.576131843904772
0.03308010898239417,0.9451657280057082,801,15,21.18600607978142,19.576131843904772
0.0425310743942278,0.9451562765766066,801,15,21.18600607978142,19.576131843904772
0.051981813131217365,0.9451468253744447,801,15,21.18600607978142,19.576131843904772
0.06143233536623104,0.945137374409978,801,15,21.18600607978142,19.576131843904772
0.07088265048959794,0.9451279236721861,801,15,21.18600607978142,19.576131843904772
0.08033276716921314,0.9451184731508963,801,15,21.18600607978142,19.576131843904772
0.089782693406123,0.9451090228367179,801,15,21.18600607978142,19.576131843904772
0.09923243658583335,0.9450995727209833,801,15,21.18600607978142,19.576131843904772
0.10868200352567035,0.9450901227956915,801,15,21.18600607978142,19.576131843904772
0.11813140051849702,0.9450806730534568,801,15,21.18600607978142,19.576131843904772
0.12758063337306627,0.945071223487462,801,15,21.18600607978142,19.576131843904772
0.13702970745126902,0.9450617740914141,801,15,21.18600607978142,19.576131843904772
0.14647862770251668,0.9450523248595045,801,15,21.18600607978142,19.576131843904772
0.15592739869547764,0.9450428757863713,801,15,21.18600607978142,19.576131843904772
0.16537602464737264,0.9450334268670649,801,15,21.18600607978142,19.576131843904772
0.17482450945101527,0.9450239780970169,801,15,21.18600607978142,19.576131843904772
0.18427285669977272,0.9450145294720098,801,15,21.18600607978142,19.576131843904772
0.1937210697106055,0.9450050809881511,801,15,21.18600607978142,19.576131843904772
0.20316915154533452,0.9449956326418472,801,15,21.18600607978142,19.576131843904772
0.21261710503027217,0.9449861844297812,801,15,21.18600607978142,19.576131843904772
0.2220649327743425,0.9449767363488913,801,15,21.18600607978142,19.576131843904772
0.23151263718580753,0.9449672883963512,801,15,21.18600607978142,19.576131843904772
0.24096022048770632,0.9449578405695519,801,15,21.18600607978142,19.576131843904772
0.25040768473210673,0.9449483928660852,801,15,21.18600607978142,19.576131843904772
0.2598550318132597,0.9449389452837281,801,15,21.18600607978142,19.576131843904772
0.2693022634797423,0.9449294978204286,801,15,21.18600607978142,19.576131843904772
0.27874938134566585,0.9449200504742922,801,15,21.18600607978142,19.576131843904772
0.28819638690102223,0.9449106032435703,801,15,21.18600607978142,19.576131843904772
0.2976432815212336,0.9449011561266492,801,15,21.18600607978142,19.576131843904772
0.3070900664759676,0.9448917091220386,801,15,21.18600607978142,19.576131843904772
0.3165367429372741,0.944882262228363,801,15,21.18600607978142,19.576131843904772
0.32598331198709657,0.944872815444353,801,15,21.18600607978142,19.576131843904772
0.3354297746242045,0.9448633687688364,801,15,21.18600607978142,19.576131843904772
0.3448761317705931,0.9448539222007313,801,15,21.18600607978142,19.576131843904772
0.35432238427739066,0.9448444757390388,801,15,21.18600607978142,19.576131843904772
0.36376853293031086,0.9448350293828371,801,15,21.18600607978142,19.576131843904772
0.37321457845468575,0.944825583131275,801,15,21.18600607978142,19.576131843904772
0.38266052152011215,0.9448161369835667,801,15,21.18600607978142,19.576131843904772
0.39210636274473953,0.944806690938987,801,15,21.18600607978142,19.576131843904772
0.4015521026992287,0.9447972449968661,801,15,21.18600607978142,19.576131843904772
0.4109977419104054,0.9447877991565861,801,15,21.18600607978142,19.576131843904772
0.42044328086463334,0.9447783534175762,801,15,21.18600607978142,19.576131843904772
0.42988872001092715,0.9447689077793096,801,15,21.18600607978142,19.576131843904772
0.43933405976382645,0.9447594622412999,801,15,21.18600607978142,19.576131843904772
0.4487793005060479,0.9447500168030982,801,15,21.18600607978142,19.576131843904772
0.45822444259093403,0.9447405714642899,801,15,21.18600607978142,19.576131843904772
0.4676694863447134,0.9447311262244922,801,15,21.18600607978142,19.576131843904772
0.4771144320685864,0.9447216810833519,801,15,21.18600607978142,19.576131843904772
0.4865592800406517,0.9447122360405426,801,15,21.18600607978142,19.576131843904772
0.4960040305176827,0.9447027910957632,801,15,21.18600607978142,19.576131843904772
0.5054486837367692,0.9446933462487357,801,15,21.18600607978142,19.576131843904772
0.5148932399168314,0.9446839014992031,801,15,21.18600607978142,19.576131843904772
0.5243376992600183,0.9446744568469285,801,15,21.18600607978142,19.576131843904772
0.5337820619529975,0.944665012291693,801,15,21.18600607978142,19.576131843904772
0.543226328168147,0.9446555678332942,801,15,21.18600607978142,19.576131843904772
0.5526704980646545,0.9446461234715456,801,15,21.18600607978142,19.576131843904772
0.5621145717895317,0.944636679206275,801,15,21.18600607978142,19.576131843904772
0.571558549478552,0.9446272350373229,801,15,21.18600607978142,19.576131843904772
0.5810024312571147,0.9446177909645425,801,15,21.18600607978142,19.576131843904772
0.5904462172410434,0.9446083469877978,801,15,21.18600607978142,19.576131843904772
0.5998899075373225,0.9445989031069637,801,15,21.18600607978142,19.576131843904772
0.6093335022447776,0.9445894593219242,801,15,21.18600607978142,19.576131843904772
0.6187770014547032,0.9445800156325723,801,15,21.18600607978142,19.576131843904772
0.6282204052514415,0.9445705720388092,801,15,21.18600607978142,19.576131843904772
0.6376637137129186,0.9445611285405436,801,15,21.18600607978142,19.576131843904772
0.6471069269111372,0.9445516851376913,801,15,21.18600607978142,19.576131843904772
0.6565500449126328,0.9445422418301741,801,15,21.18600607978142,19.576131843904772
0.6659930677788937,0.9445327986179203,801,15,21.18600607978142,19.576131843904772
0.6754359955667502,0.9445233555008631,801,15,21.18600607978142,19.576131843904772
0.6848788283287323,0.9445139124789411,801,15,21.18600607978142,19.576131843904772
0.6943215661134015,0.9445044695520977,801,15,21.18600607978142,19.576131843904772
0.7037642089656547,0.94449502672028,801,15,21.18600607978142,19.576131843904772
0.7132067569270075,0.9444855839834395,801,15,21.18600607978142,19.576131843904772
0.7226492100358536,0.9444761413415316,801,15,21.18600607978142,19.576131843904772
0.7320915683277052,0.9444666987945145,801,15,21.18600607978142,19.576131843904772
0.7415338318354152,0.9444572563423499,801,15,21.18600607978142,19.576131843904772
0.7509760005893806,0.9444478139850023,801,15,21.18600607978142,19.576131843904772
0.7604180746177334,0.9444383717224388,801,15,21.18600607978142,19.576131843904772
0.7698600539465118,0.9444289295546291,801,15,21.18600607978142,19.576131843904772
0.7793019385998252,0.944419487481545,801,15,21.18600607978142,19.576131843904772
0.7887437285999994,0.9444100455031604,801,15,21.18600607978142,19.576131843904772
0.7981854239677152,0.9444006036194513,801,15,21.18600607978142,19.576131843904772
0.807627024722135,0.9443911618303954,801,15,21.18600607978142,19.576131843904772
0.8170685308810195,0.9443817201359719,801,15,21.18600607978142,19.576131843904772
0.826509942460835,0.9443722785361616,801,15,21.18600607978142,19.576131843904772
0.8359512594768539,0.9443628370309469,801,15,21.18600607978142,19.576131843904772
0.845392481943246,0.9443533956203112,801,15,21.18600607978142,19.576131843904772
0.8548336098731633,0.9443439543042393,801,15,21.18600607978142,19.576131843904772
0.8642746432788186,0.9443345130827171,801,15,21.18600607978142,19.576131843904772
0.8737155821715579,0.9443250719557313,801,15,21.18600607978142,19.576131843904772
0.8831564265619263,0.9443156309232698,801,15,21.18600607978142,19.576131843904772
0.8925971764597304,0.9443061899853211,801,15,21.18600607978142,19.576131843904772
0.9020378318740947,0.9442967491418749,801,15,21.18600607978142,19.576131843904772
0.9114783928135146,0.9442873083929212,801,15,21.18600607978142,19.576131843904772
0.9209188592859041,0.9442778677384509,801,15,21.18600607978142,19.576131843904772
0.9303592312986411,0.9442684271784556,801,15,21.18600607978142,19.576131843904772
0.9397995088586081,0.9442589867129272,801,15,21.18600607978142,19.576131843904772
0.9492396919722312,0.9442495463418585,801,15,21.18600607978142,19.576131843904772
0.9586797806455142,0.9442401060652427,801,15,21.18600607978142,19.576131843904772
0.9681197748840714,0.944230665883073,801,15,21.18600607978142,19.576131843904772
0.9775596746931584,0.9442212257953438,801,15,21.18600607978142,19.576131843904772
0.9869994800776981,0.9442117858020492,801,15,21.18600607978142,19.576131843904772
0.9964391910423082,0.9442023459031842,801,15,21.18600607978142,19.576131843904772
1.0058788075913232,0.9441929060987436,801,15,21.18600607978142,19.576131843904772
1.0153183297288166,0.944183466388723,801,15,21.18600607978142,19.576131843904772
1.024757757458621,0.944174026773118,801,15,21.18600607978142,19.576131843904772
1.034197090784347,0.9441645872519244,801,15,21.18600607978142,19.576131843904772
1.0436363297094,0.9441551478251387,801,15,21.18600607978142,19.576131843904772
1.0530754742369957,0.9441457084927568,801,15,21.18600607978142,19.576131843904772
1.0625145243701752,0.9441362692547757,801,15,21.18600607978142,19.576131843904772
1.0719534801118176,0.944126830111192,801,15,21.18600607978142,19.576131843904772
1.081392341464654,0.9441173910620028,801,15,21.18600607978142,19.576131843904772
1.0908311084312776,0.9441079521072051,801,15,21.18600607978142,19.576131843904772
1.100269781014154,0.9440985132467962,801,15,21.18600607978142,19.576131843904772
1.1097083592156325,0.9440890744807734,801,15,21.18600607978142,19.576131843904772
1.119146843037954,0.9440796358091345,801,15,21.18600607978142,19.576131843904772
1.1285852324832597,0.9440701972318768,801,15,21.18600607978142,19.576131843904772
1.138023527553598,0.9440607587489984,801,15,21.18600607978142,19.576131843904772
1.1474617282509325,0.9440513203604969,801,15,21.18600607978142,19.576131843904772
1.1568998345771493,0.9440418820663704,801,15,21.18600607978142,19.576131843904772
1.1663378465340606,0.9440324438666169,801,15,21.18600607978142,19.576131843904772
1.1757757641234126,0.9440230057612345,801,15,21.18600607978142,19.576131843904772
1.185213587346889,0.9440135677502215,801,15,21.18600607978142,19.576131843904772
1.194651316206117,0.944004129833576,801,15,21.18600607978142,19.576131843904772
1.2040889507026715,0.9439946920112963,801,15,21.18600607978142,19.576131843904772
1.2135264908380776,0.9439852542833808,801,15,21.18600607978142,19.576131843904772
1.2229639366138176,0.943975816649828,801,15,21.18600607978142,19.576131843904772
1.2324012880313304,0.9439663791106364,801,15,21.18600607978142,19.576131843904772
1.241838545092018,0.9439569416658045,801,15,21.18600607978142,19.576131843904772
1.2512757077972458,0.9439475043153307,801,15,21.18600607978142,19.576131843904772
1.2607127761483483,0.9439380670592137,801,15,21.18600607978142,19.576131843904772
1.2701497501466288,0.9439286298974522,801,15,21.18600607978142,19.576131843904772
1.2795866297933634,0.9439191928300449,801,15,21.18600607978142,19.576131843904772
1.289023415089802,0.9439097558569903,801,15,21.18600607978142,19.576131843904772
1.2984601060371717,0.9439003189782873,801,15,21.18600607978142,19.576131843904772
1.3078967026366768,0.9438908821939345,801,15,21.18600607978142,19.576131843904772
1.317333204889503,0.9438814455039308,801,15,21.18600607978142,19.576131843904772
1.3267696127968147,0.943872008908275,801,15,21.18600607978142,19.576131843904772
1.336205926359763,0.9438625724069658,801,15,21.18600607978142,19.576131843904772
1.3456421455794794,0.9438531360000022,801,15,21.18600607978142,19.576131843904772
1.3550782704570834,0.9438436996873829,801,15,21.18600607978142,19.576131843904772
1.3645143009936793,0.9438342634691068,801,15,21.18600607978142,19.576131843904772
1.37395023719036,0.9438248273451728,801,15,21.18600607978142,19.576131843904772
1.3833860790482062,0.9438153913155799,801,15,21.18600607978142,19.576131843904772
1.3928218265682888,0.9438059553803269,801,15,21.18600607978142,19.576131843904772
1.4022574797516676,0.9437965195394126,801,15,21.18600607978142,19.576131843904772
1.4116930385993953,0.943787083792836,801,15,21.18600607978142,19.576131843904772
1.4211285031125145,0.9437776481405963,801,15,21.18600607978142,19.576131843904772
1.430563873292061,0.9437682125826922,801,15,21.18600607978142,19.576131843904772
1.4399991491390627,0.9437587771191226,801,15,21.18600607978142,19.576131843904772
1.4494343306545416,0.9437493417498866,801,15,21.18600607978142,19.576131843904772
1.4588694178395132,0.9437399064749832,801,15,21.18600607978142,19.576131843904772
1.4683044106949883,0.9437304712944112,801,15,21.18600607978142,19.576131843904772
1.4777393092219724,0.9437210362081697,801,15,21.18600607978142,19.576131843904772
1.4871741134214638,0.9437116012162577,801,15,21.18600607978142,19.576131843904772
1.4966088232944599,0.9437021663186743,801,15,21.18600607978142,19.576131843904772
1.5060434388419517,0.9436927315154183,801,15,21.18600607978142,19.576131843904772
1.5154779600649273,0.9436832968064888,801,15,21.18600607978142,19.576131843904772
1.5249123869643717,0.9436738621918848,801,15,21.18600607978142,19.576131843904772
1.534346719541265,0.9436644276716053,801,15,21.18600607978142,19.576131843904772
1.5437809577965869,0.9436549932456493,801,15,21.18600607978142,19.576131843904772
1.5532151017313125,0.9436455589140159,801,15,21.18600607978142,19.576131843904772
1.5626491513464145,0.943636124676704,801,15,21.18600607978142,19.576131843904772
1.5720831066428642,0.9436266905337127,801,15,21.18600607978142,19.576131843904772
1.5815169676216299,0.943617256485041,801,15,21.18600607978142,19.576131843904772
1.5909507342836784,0.943607822530688,801,15,21.18600607978142,19.576131843904772
1.6003844066299744,0.9435983886706526,801,15,21.18600607978142,19.576131843904772
1.6098179846614815,0.943588954904934,801,15,21.18600607978142,19.576131843904772
1.6192514683791606,0.9435795212335311,801,15,21.18600607978142,19.576131843904772
1.6286848577839719,0.9435700876564429,801,15,21.18600607978142,19.576131843904772
1.6381181528768747,0.9435606541736686,801,15,21.18600607978142,19.576131843904772
1.6475513536588262,0.9435512207852071,801,15,21.18600607978142,19.576131843904772
1.6569844601307826,0.9435417874910577,801,15,21.18600607978142,19.576131843904772
1.6664174722936997,0.943532354291219,801,15,21.18600607978142,19.576131843904772
1.6758503901485313,0.9435229211856904,801,15,21.18600607978142,19.576131843904772
1.6852832136962315,0.9435134881744708,801,15,21.18600607978142,19.576131843904772
1.694715942937753,0.9435040552575592,801,15,21.18600607978142,19.576131843904772
1.7041485778740475,0.9434946224349549,801,15,21.18600607978142,19.576131843904772
1.713581118506066,0.9434851897066566,801,15,21.18600607978142,19.576131843904772
1.7230135648347589,0.9434757570726636,801,15,21.18600607978142,19.576131843904772
1.7324459168610764,0.9434663245329749,801,15,21.18600607978142,19.576131843904772
1.741878174585968,0.9434568920875894,801,15,21.18600607978142,19.576131843904772
1.7513103380103827,0.9434474597365063,801,15,21.18600607978142,19.576131843904772
1.760742407135268,0.9434380274797247,801,15,21.18600607978142,19.576131843904772
1.770174381961573,0.9434285953172435,801,15,21.18600607978142,19.576131843904772
1.7796062624902447,0.9434191632490619,801,15,21.18600607978142,19.576131843904772
1.7890380487222302,0.9434097312751788,801,15,21.18600607978142,19.576131843904772
1.7984697406584764,0.9434002993955933,801,15,21.18600607978142,19.576131843904772
1.8079013382999298,0.9433908676103046,801,15,21.18600607978142,19.576131843904772
1.8173328416475367,0.9433814359193115,801,15,21.18600607978142,19.576131843904772
1.8267642507022428,0.9433720043226133,801,15,21.18600607978142,19.576131843904772
1.8361955654649942,0.9433625728202087,801,15,21.18600607978142,19.576131843904772
1.8456267859367355,0.9433531414120973,801,15,21.18600607978142,19.576131843904772
1.8550579121184123,0.9433437100982777,801,15,21.18600607978142,19.576131843904772
1.8644889440109698,0.943334278878749,801,15,21.18600607978142,19.576131843904772
1.8739198816153533,0.9433248477535104,801,15,21.18600607978142,19.576131843904772
1.8833507249325065,0.943315416722561,801,15,21.18600607978142,19.576131843904772
1.8927814739633744,0.9433059857858997,801,15,21.18600607978142,19.576131843904772
1.9022121287089009,0.9432965549435257,801,15,21.18600607978142,19.576131843904772
1.9116426891700304,0.9432871241954379,801,15,21.18600607978142,19.576131843904772
1.921073155347707,0.9432776935416355,801,15,21.18600607978142,19.576131843904772
1.930503527242875,0.9432682629821174,801,15,21.18600607978142,19.576131843904772
1.939933804856478,0.9432588325168828,801,15,21.18600607978142,19.576131843904772
1.9493639881894593,0.9432494021459308,801,15,21.18600607978142,19.576131843904772
1.9587940772427626,0.9432399718692602,801,15,21.18600607978142,19.576131843904772
1.968224072017332,0.9432305416868703,801,15,21.18600607978142,19.576131843904772
1.9776539725141107,0.94322111159876,801,15,21.18600607978142,19.576131843904772
1.9870837787340419,0.9432116816049284,801,15,21.18600607978142,19.576131843904772
1.9965134906780688,0.9432022517053746,801,15,21.18600607978142,19.576131843904772
2.0059431083471355,0.9431928219000977,801,15,21.18600607978142,19.576131843904772
2.0153726317421836,0.9431833921890966,801,15,21.18600607978142,19.576131843904772
2.024802060864158,0.9431739625723706,801,15,21.18600607978142,19.576131843904772
2.0342313957140004,0.9431645330499185,801,15,21.18600607978142,19.576131843904772
2.043660636292654,0.9431551036217395,801,15,21.18600607978142,19.576131843904772
2.0530897826010626,0.9431456742878326,801,15,21.18600607978142,19.576131843904772
2.062518834640169,0.9431362450481969,801,15,21.18600607978142,19.576131843904772
2.071947792410915,0.9431268159028314,801,15,21.18600607978142,19.576131843904772
2.0813766559142435,0.9431173868517352,801,15,21.18600607978142,19.576131843904772
2.090805425151099,0.9431079578949074,801,15,21.18600607978142,19.576131843904772
2.1002341001224223,0.943098529032347,801,15,21.18600607978142,19.576131843904772
2.109662680829157,0.943089100264053,801,15,21.18600607978142,19.576131843904772
2.119091167272246,0.9430796715900246,801,15,21.18600607978142,19.576131843904772
2.1285195594526316,0.9430702430102608,801,15,21.18600607978142,19.576131843904772
2.1379478573712567,0.9430608145247605,801,15,21.18600607978142,19.576131843904772
2.1473760610290635,0.943051386133523,801,15,21.18600607978142,19.576131843904772
2.1568041704269945,0.9430419578365472,801,15,21.18600607978142,19.576131843904772
2.166232185565993,0.9430325296338322,801,15,21.18600607978142,19.576131843904772
2.175660106447001,0.9430231015253772,801,15,21.18600607978142,19.576131843904772
2.1850879330709616,0.9430136735111809,801,15,21.18600607978142,19.576131843904772
2.1945156654388165,0.9430042455912427,801,15,21.18600607978142,19.576131843904772
2.203943303551508,0.9429948177655616,801,15,21.18600607978142,19.576131843904772
2.2133708474099794,0.9429853900341365,801,15,21.18600607978142,19.576131843904772
2.222798297015173,0.9429759623969666,801,15,21.18600607978142,19.576131843904772
2.2322256523680304,0.9429665348540509,801,15,21.18600607978142,19.576131843904772
2.241652913469495,0.9429571074053885,801,15,21.18600607978142,19.576131843904772
2.2510800803205084,0.9429476800509784,801,15,21.18600607978142,19.576131843904772
2.2605071529220138,0.9429382527908197,801,15,21.18600607978142,19.576131843904772
