Vout,Iout,Irradiance,Temperature,MaxVoltage,MaxPower
0.004346158210017212,0.86924,701,45,22.858311128392884,19.318389253493656
0.013038394265472857,0.86924,701,45,22.858311128392884,19.318389253493656
0.02173045360994971,0.86923556691779,701,45,22.858311128392884,19.318389253493656
0.030422304674089927,0.8692268746817345,701,45,22.858311128392884,19.318389253493656
0.03911393714047968,0.8692181826228333,701,45,22.858311128392884,19.318389253493656
0.0478053611440989,0.8692094907726384,701,45,22.858311128392884,19.318389253493656
0.0564965860404819,0.8692007991410413,701,45,22.858311128392884,19.318389253493656
0.06518762046549664,0.8691921077179068,701,45,22.858311128392884,19.318389253493656
0.07387847239062066,0.8691834164938796,701,45,22.858311128392884,19.318389253493656
0.08256914917406034,0.8691747254603237,701,45,22.858311128392884,19.318389253493656
0.09125965760793688,0.8691660346092678,701,45,22.858311128392884,19.318389253493656
0.0999500039618419,0.8691573439333534,701,45,22.858311128392884,19.318389253493656
0.10864019402304152,0.8691486534257886,701,45,22.858311128392884,19.318389253493656
0.1173302331335874,0.8691399630803037,701,45,22.858311128392884,19.318389253493656
0.12602012622457215,0.8691312728911116,701,45,22.858311128392884,19.318389253493656
0.1347098778477492,0.8691225828528701,701,45,22.858311128392884,19.318389253493656
0.14339949220471973,0.8691138929606481,701,45,22.858311128392884,19.318389253493656
0.152088973173874,0.8691052032098939,701,45,22.858311128392884,19.318389253493656
0.16077832433525946,0.869096513596406,701,45,22.858311128392884,19.318389253493656
0.16946754899353608,0.8690878241163058,701,45,22.858311128392884,19.318389253493656
0.17815665019916496,0.8690791347660134,701,45,22.858311128392884,19.318389253493656
0.1868456307679665,0.869070445542224,701,45,22.858311128392884,19.318389253493656
0.19553449329917455,0.8690617564418873,701,45,22.858311128392884,19.318389253493656
0.20422324019210047,0.8690530674621875,701,45,22.858311128392884,19.318389253493656
0.21291187366151565,0.8690443786005252,701,45,22.858311128392884,19.318389253493656
0.22160039575185034,0.8690356898545012,701,45,22.858311128392884,19.318389253493656
0.2302888083502999,0.8690270012219007,701,45,22.858311128392884,19.318389253493656
0.2389771131989228,0.8690183127006792,701,45,22.858311128392884,19.318389253493656
0.24766531190580762,0.8690096242889496,701,45,22.858311128392884,19.318389253493656
0.2563534059553806,0.8690009359849699,701,45,22.858311128392884,19.318389253493656
0.2650413967179211,0.8689922477871318,701,45,22.858311128392884,19.318389253493656
0.2737292854583436,0.868983559693951,701,45,22.858311128392884,19.318389253493656
0.2824170733443049,0.8689748717040573,701,45,22.858311128392884,19.318389253493656
0.2911047614536873,0.8689661838161857,701,45,22.858311128392884,19.318389253493656
0.29979235078150596,0.8689574960291685,701,45,22.858311128392884,19.318389253493656
0.3084798422462849,0.8689488083419279,701,45,22.858311128392884,19.318389253493656
0.31716723669594193,0.8689401207534689,701,45,22.858311128392884,19.318389253493656
0.32585453491322197,0.8689314332628729,701,45,22.858311128392884,19.318389253493656
0.3345417376207108,0.868922745869292,701,45,22.858311128392884,19.318389253493656
0.34322884548546423,0.8689140585719435,701,45,22.858311128392884,19.318389253493656
0.3519158591232806,0.8689053713701047,701,45,22.858311128392884,19.318389253493656
0.3606027791026444,0.8688966842631087,701,45,22.858311128392884,19.318389253493656
0.369289605948367,0.8688879972503396,701,45,22.858311128392884,19.318389253493656
0.37797634014494674,0.8688793103312289,701,45,22.858311128392884,19.318389253493656
0.38666298213967054,0.8688706235052519,701,45,22.858311128392884,19.318389253493656
0.39534953234547754,0.868861936771924,701,45,22.858311128392884,19.318389253493656
0.40403599114360084,0.868853250130798,701,45,22.858311128392884,19.318389253493656
0.41272235888600817,0.8688445635814609,701,45,22.858311128392884,19.318389253493656
0.421408635897653,0.8688358771235314,701,45,22.858311128392884,19.318389253493656
0.4300948224785531,0.8688271907566576,701,45,22.858311128392884,19.318389253493656
0.4387809189057093,0.8688185044805147,701,45,22.858311128392884,19.318389253493656
0.44746692543487626,0.8688098182948024,701,45,22.858311128392884,19.318389253493656
0.45615284230219716,0.8688011321992438,701,45,22.858311128392884,19.318389253493656
0.464838669725713,0.8687924461935833,701,45,22.858311128392884,19.318389253493656
0.473524407906755,0.8687837602775846,701,45,22.858311128392884,19.318389253493656
0.48221005703123043,0.8687750744510296,701,45,22.858311128392884,19.318389253493656
0.4908956172708094,0.8687663887137173,701,45,22.858311128392884,19.318389253493656
0.4995810887840202,0.8687577030654613,701,45,22.858311128392884,19.318389253493656
0.5082664717172605,0.8687490175060903,701,45,22.858311128392884,19.318389253493656
0.5169517662057306,0.8687403320354457,701,45,22.858311128392884,19.318389253493656
0.5256369723742954,0.868731646653381,701,45,22.858311128392884,19.318389253493656
0.5343220903382788,0.8687229613597611,701,45,22.858311128392884,19.318389253493656
0.5430071202041987,0.8687142761544611,701,45,22.858311128392884,19.318389253493656
0.5516920620704437,0.8687055910373656,701,45,22.858311128392884,19.318389253493656
0.5603769160278997,0.8686969060083682,701,45,22.858311128392884,19.318389253493656
0.5690616821605259,0.8686882210673704,701,45,22.858311128392884,19.318389253493656
0.5777463605458882,0.8686795362142815,701,45,22.858311128392884,19.318389253493656
0.5864309512556519,0.8686708514490173,701,45,22.858311128392884,19.318389253493656
0.5951154543560347,0.8686621667715005,701,45,22.858311128392884,19.318389253493656
0.6037998699082258,0.8686534821816592,701,45,22.858311128392884,19.318389253493656
0.6124841979687735,0.8686447976794273,701,45,22.858311128392884,19.318389253493656
0.6211684385899423,0.8686361132647435,701,45,22.858311128392884,19.318389253493656
0.6298525918200419,0.8686274289375515,701,45,22.858311128392884,19.318389253493656
0.6385366577037315,0.8686187446977988,701,45,22.858311128392884,19.318389253493656
0.6472206362823011,0.8686100605454371,701,45,22.858311128392884,19.318389253493656
0.6559045275939308,0.8686013764804218,701,45,22.858311128392884,19.318389253493656
0.6645883316739297,0.8685926925027116,701,45,22.858311128392884,19.318389253493656
0.6732720485549568,0.8685840086122685,701,45,22.858311128392884,19.318389253493656
0.6819556782672251,0.8685753248090569,701,45,22.858311128392884,19.318389253493656
0.6906392208386899,0.8685666410930442,701,45,22.858311128392884,19.318389253493656
0.699322676295222,0.8685579574642003,701,45,22.858311128392884,19.318389253493656
0.7080060446607689,0.8685492739224973,701,45,22.858311128392884,19.318389253493656
0.716689325957502,0.868540590467909,701,45,22.858311128392884,19.318389253493656
0.7253725202059534,0.8685319071004118,701,45,22.858311128392884,19.318389253493656
0.7340556274251427,0.8685232238199835,701,45,22.858311128392884,19.318389253493656
0.7427386476326926,0.8685145406266034,701,45,22.858311128392884,19.318389253493656
0.7514215808449366,0.8685058575202524,701,45,22.858311128392884,19.318389253493656
0.7601044270770182,0.8684971745009132,701,45,22.858311128392884,19.318389253493656
0.7687871863429828,0.8684884915685693,701,45,22.858311128392884,19.318389253493656
0.7774698586558615,0.8684798087232055,701,45,22.858311128392884,19.318389253493656
0.7861524440277499,0.8684711259648079,701,45,22.858311128392884,19.318389253493656
0.7948349424698793,0.8684624432933633,701,45,22.858311128392884,19.318389253493656
0.8035173539926842,0.8684537607088597,701,45,22.858311128392884,19.318389253493656
0.8121996786058624,0.8684450782112858,701,45,22.858311128392884,19.318389253493656
0.8208819163184327,0.8684363958006313,701,45,22.858311128392884,19.318389253493656
0.8295640671387866,0.8684277134768863,701,45,22.858311128392884,19.318389253493656
0.8382461310747367,0.868419031240042,701,45,22.858311128392884,19.318389253493656
0.8469281081335613,0.8684103490900899,701,45,22.858311128392884,19.318389253493656
0.8556099983220452,0.8684016670270222,701,45,22.858311128392884,19.318389253493656
0.8642918016465186,0.8683929850508315,701,45,22.858311128392884,19.318389253493656
0.8729735181128907,0.8683843031615113,701,45,22.858311128392884,19.318389253493656
0.8816551477266832,0.868375621359055,701,45,22.858311128392884,19.318389253493656
0.8903366904930595,0.8683669396434568,701,45,22.858311128392884,19.318389253493656
0.8990181464168527,0.8683582580147112,701,45,22.858311128392884,19.318389253493656
0.9076995155025902,0.868349576472813,701,45,22.858311128392884,19.318389253493656
0.9163807977545186,0.8683408950177574,701,45,22.858311128392884,19.318389253493656
0.9250619931766242,0.8683322136495398,701,45,22.858311128392884,19.318389253493656
0.9337431017726532,0.868323532368156,701,45,22.858311128392884,19.318389253493656
0.9424241235461304,0.8683148511736021,701,45,22.858311128392884,19.318389253493656
0.9511050585003762,0.8683061700658741,701,45,22.858311128392884,19.318389253493656
0.9597859066385224,0.8682974890449687,701,45,22.858311128392884,19.318389253493656
0.9684666679635263,0.8682888081108826,701,45,22.858311128392884,19.318389253493656
0.9771473424781846,0.8682801272636126,701,45,22.858311128392884,19.318389253493656
0.9858279301851455,0.8682714465031557,701,45,22.858311128392884,19.318389253493656
0.9945084310869204,0.8682627658295091,701,45,22.858311128392884,19.318389253493656
1.0031888451858937,0.8682540852426702,701,45,22.858311128392884,19.318389253493656
1.0118691724843336,0.8682454047426366,701,45,22.858311128392884,19.318389253493656
1.0205494129844008,0.8682367243294056,701,45,22.858311128392884,19.318389253493656
1.0292295666881555,0.8682280440029752,701,45,22.858311128392884,19.318389253493656
1.0379096335975666,0.8682193637633432,701,45,22.858311128392884,19.318389253493656
1.0465896137145188,0.8682106836105075,701,45,22.858311128392884,19.318389253493656
1.0552695070408176,0.8682020035444661,701,45,22.858311128392884,19.318389253493656
1.0639493135781974,0.8681933235652172,701,45,22.858311128392884,19.318389253493656
1.072629033328325,0.8681846436727588,701,45,22.858311128392884,19.318389253493656
1.0813086662928062,0.8681759638670895,701,45,22.858311128392884,19.318389253493656
1.0899882124731894,0.8681672841482073,701,45,22.858311128392884,19.318389253493656
1.0986676718709714,0.8681586045161108,701,45,22.858311128392884,19.318389253493656
1.1073470444876,0.8681499249707985,701,45,22.858311128392884,19.318389253493656
1.1160263303244784,0.8681412455122686,701,45,22.858311128392884,19.318389253493656
1.1247055293829693,0.8681325661405199,701,45,22.858311128392884,19.318389253493656
1.1333846416643958,0.868123886855551,701,45,22.858311128392884,19.318389253493656
1.1420636671700473,0.8681152076573604,701,45,22.858311128392884,19.318389253493656
1.1507426059011805,0.8681065285459469,701,45,22.858311128392884,19.318389253493656
1.1594214578590216,0.8680978495213092,701,45,22.858311128392884,19.318389253493656
1.1681002230447697,0.8680891705834459,701,45,22.858311128392884,19.318389253493656
1.1767789014595982,0.868080491732356,701,45,22.858311128392884,19.318389253493656
1.1854574931046564,0.8680718129680381,701,45,22.858311128392884,19.318389253493656
1.194135997981073,0.8680631342904912,701,45,22.858311128392884,19.318389253493656
1.2028144160899559,0.8680544556997141,701,45,22.858311128392884,19.318389253493656
1.2114927474323947,0.8680457771957055,701,45,22.858311128392884,19.318389253493656
1.2201709920094619,0.8680370987784645,701,45,22.858311128392884,19.318389253493656
1.2288491498222138,0.8680284204479899,701,45,22.858311128392884,19.318389253493656
1.2375272208716925,0.8680197422042807,701,45,22.858311128392884,19.318389253493656
1.246205205158927,0.8680110640473357,701,45,22.858311128392884,19.318389253493656
1.2548831026849334,0.8680023859771541,701,45,22.858311128392884,19.318389253493656
1.2635609134507162,0.8679937079937347,701,45,22.858311128392884,19.318389253493656
1.2722386374572698,0.8679850300970765,701,45,22.858311128392884,19.318389253493656
1.2809162747055787,0.8679763522871785,701,45,22.858311128392884,19.318389253493656
1.2895938251966186,0.8679676745640398,701,45,22.858311128392884,19.318389253493656
1.2982712889313557,0.8679589969276592,701,45,22.858311128392884,19.318389253493656
1.3069486659107497,0.8679503193780359,701,45,22.858311128392884,19.318389253493656
1.315625956135753,0.867941641915169,701,45,22.858311128392884,19.318389253493656
1.3243031596073118,0.8679329645390573,701,45,22.858311128392884,19.318389253493656
1.3329802763263654,0.8679242872497,701,45,22.858311128392884,19.318389253493656
1.3416573062938482,0.8679156100470963,701,45,22.858311128392884,19.318389253493656
1.3503342495106885,0.8679069329312449,701,45,22.858311128392884,19.318389253493656
1.3590111059778112,0.8678982559021452,701,45,22.858311128392884,19.318389253493656
1.367687875696136,0.867889578959796,701,45,22.858311128392884,19.318389253493656
1.3763645586665787,0.8678809021041967,701,45,22.858311128392884,19.318389253493656
1.3850411548900512,0.867872225335346,701,45,22.858311128392884,19.318389253493656
1.393717664367462,0.8678635486532432,701,45,22.858311128392884,19.318389253493656
1.4023940870997171,0.8678548720578875,701,45,22.858311128392884,19.318389253493656
1.4110704230877187,0.8678461955492777,701,45,22.858311128392884,19.318389253493656
1.419746672332366,0.8678375191274131,701,45,22.858311128392884,19.318389253493656
1.4284228348345567,0.8678288427922928,701,45,22.858311128392884,19.318389253493656
1.437098910595186,0.8678201665439157,701,45,22.858311128392884,19.318389253493656
1.445774899615146,0.8678114903822812,701,45,22.858311128392884,19.318389253493656
1.4544508018953282,0.8678028143073881,701,45,22.858311128392884,19.318389253493656
1.4631266174366209,0.8677941383192358,701,45,22.858311128392884,19.318389253493656
1.471802346239912,0.8677854624178233,701,45,22.858311128392884,19.318389253493656
1.4804779883060866,0.8677767866031496,701,45,22.858311128392884,19.318389253493656
1.4891535436360293,0.8677681108752139,701,45,22.858311128392884,19.318389253493656
1.4978290122306235,0.8677594352340152,701,45,22.858311128392884,19.318389253493656
1.5065043940907508,0.8677507596795528,701,45,22.858311128392884,19.318389253493656
1.5151796892172908,0.8677420842118259,701,45,22.858311128392884,19.318389253493656
1.5238548976111241,0.8677334088308333,701,45,22.858311128392884,19.318389253493656
1.5325300192731293,0.8677247335365743,701,45,22.858311128392884,19.318389253493656
1.541205054204184,0.867716058329048,701,45,22.858311128392884,19.318389253493656
1.5498800024051647,0.8677073832082536,701,45,22.858311128392884,19.318389253493656
1.558554863876948,0.86769870817419,701,45,22.858311128392884,19.318389253493656
1.5672296386204088,0.8676900332268566,701,45,22.858311128392884,19.318389253493656
1.5759043266364223,0.8676813583662523,701,45,22.858311128392884,19.318389253493656
1.584578927925863,0.8676726835923763,701,45,22.858311128392884,19.318389253493656
1.5932534424896034,0.8676640089052278,701,45,22.858311128392884,19.318389253493656
1.6019278703285176,0.8676553343048058,701,45,22.858311128392884,19.318389253493656
1.610602211443478,0.8676466597911096,701,45,22.858311128392884,19.318389253493656
1.6192764658353567,0.867637985364138,701,45,22.858311128392884,19.318389253493656
1.627950633505025,0.8676293110238905,701,45,22.858311128392884,19.318389253493656
1.6366247144533552,0.8676206367703662,701,45,22.858311128392884,19.318389253493656
1.6452987086812176,0.8676119626035639,701,45,22.858311128392884,19.318389253493656
1.6539726161894834,0.867603288523483,701,45,22.858311128392884,19.318389253493656
1.6626464369790228,0.8675946145301225,701,45,22.858311128392884,19.318389253493656
1.671320171050706,0.8675859406234817,701,45,22.858311128392884,19.318389253493656
1.679993818405403,0.8675772668035595,701,45,22.858311128392884,19.318389253493656
1.6886673790439841,0.8675685930703553,701,45,22.858311128392884,19.318389253493656
1.6973408529673182,0.8675599194238679,701,45,22.858311128392884,19.318389253493656
1.706014240176274,0.8675512458640967,701,45,22.858311128392884,19.318389253493656
1.7146875406717215,0.8675425723910407,701,45,22.858311128392884,19.318389253493656
1.7233607544545289,0.8675338990046991,701,45,22.858311128392884,19.318389253493656
1.7320338815255651,0.8675252257050711,701,45,22.858311128392884,19.318389253493656
1.7407069218856992,0.8675165524921555,701,45,22.858311128392884,19.318389253493656
1.7493798755357997,0.8675078793659519,701,45,22.858311128392884,19.318389253493656
1.758052742476734,0.867499206326459,701,45,22.858311128392884,19.318389253493656
1.7667255227093706,0.8674905333736763,701,45,22.858311128392884,19.318389253493656
1.7753982162345783,0.8674818605076027,701,45,22.858311128392884,19.318389253493656
1.7840708230532243,0.8674731877282373,701,45,22.858311128392884,19.318389253493656
1.7927433431661774,0.8674645150355794,701,45,22.858311128392884,19.318389253493656
1.8014157765743042,0.867455842429628,701,45,22.858311128392884,19.318389253493656
1.8100881232784733,0.8674471699103823,701,45,22.858311128392884,19.318389253493656
1.8187603832795523,0.8674384974778415,701,45,22.858311128392884,19.318389253493656
1.8274325565784084,0.8674298251320045,701,45,22.858311128392884,19.318389253493656
1.8361046431759092,0.8674211528728707,701,45,22.858311128392884,19.318389253493656
1.844776643072923,0.8674124807004391,701,45,22.858311128392884,19.318389253493656
1.8534485562703162,0.8674038086147088,701,45,22.858311128392884,19.318389253493656
1.8621203827689559,0.867395136615679,701,45,22.858311128392884,19.318389253493656
1.87079212256971,0.8673864647033488,701,45,22.858311128392884,19.318389253493656
1.8794637756734465,0.8673777928777174,701,45,22.858311128392884,19.318389253493656
1.8881353420810314,0.8673691211387838,701,45,22.858311128392884,19.318389253493656
1.8968068217933323,0.8673604494865472,701,45,22.858311128392884,19.318389253493656
1.9054782148112157,0.8673517779210068,701,45,22.858311128392884,19.318389253493656
1.9141495211355493,0.8673431064421617,701,45,22.858311128392884,19.318389253493656
1.9228207407672002,0.867334435050011,701,45,22.858311128392884,19.318389253493656
1.9314918737070352,0.8673257637445538,701,45,22.858311128392884,19.318389253493656
1.9401629199559214,0.8673170925257893,701,45,22.858311128392884,19.318389253493656
1.948833879514726,0.8673084213937166,701,45,22.858311128392884,19.318389253493656
1.957504752384315,0.8672997503483348,701,45,22.858311128392884,19.318389253493656
1.9661755385655564,0.8672910793896431,701,45,22.858311128392884,19.318389253493656
1.9748462380593164,0.8672824085176407,701,45,22.858311128392884,19.318389253493656
1.9835168508664618,0.8672737377323265,701,45,22.858311128392884,19.318389253493656
1.9921873769878602,0.8672650670336999,701,45,22.858311128392884,19.318389253493656
2.0008578164243773,0.8672563964217598,701,45,22.858311128392884,19.318389253493656
2.009528169176881,0.8672477258965055,701,45,22.858311128392884,19.318389253493656
2.0181984352462377,0.867239055457936,701,45,22.858311128392884,19.318389253493656
2.0268686146333135,0.8672303851060505,701,45,22.858311128392884,19.318389253493656
2.035538707338975,0.8672217148408482,701,45,22.858311128392884,19.318389253493656
2.0442087133640903,0.8672130446623282,701,45,22.858311128392884,19.318389253493656
2.052878632709525,0.8672043745704896,701,45,22.858311128392884,19.318389253493656
2.061548465376146,0.8671957045653315,701,45,22.858311128392884,19.318389253493656
