Vout,Iout,Irradiance,Temperature,MaxVoltage,MaxPower
0.004170909895097163,0.83419,701,20,21.55489153558629,17.51661011739571
0.012512652561219917,0.83419,701,20,21.55489153558629,17.51661011739571
0.020854225641806574,0.8341857456711049,701,20,21.55489153558629,17.51661011739571
0.029195598840457266,0.8341774039284388,701,20,21.55489153558629,17.51661011739571
0.03753676225578291,0.8341690623557836,701,20,21.55489153558629,17.51661011739571
0.0458777256140949,0.8341607209834191,701,20,21.55489153558629,17.51661011739571
0.05421849789368826,0.834152379820838,701,20,21.55489153558629,17.51661011739571
0.06255908738221047,0.8341440388583138,701,20,21.55489153558629,17.51661011739571
0.07089950172970853,0.8341356980868683,701,20,21.55489153558629,17.51661011739571
0.07923974799768695,0.8341273574982139,701,20,21.55489153558629,17.51661011739571
0.08757983270439106,0.8341190170847005,701,20,21.55489153558629,17.51661011739571
0.09591976186660632,0.8341106768392665,701,20,21.55489153558629,17.51661011739571
0.10425954103824145,0.8341023367553939,701,20,21.55489153558629,17.51661011739571
0.11259917534594277,0.8340939968270656,701,20,21.55489153558629,17.51661011739571
0.12093866952196848,0.8340856570487281,701,20,21.55489153558629,17.51661011739571
0.12927802793453358,0.8340773174152544,701,20,21.55489153558629,17.51661011739571
0.1376172546158198,0.8340689779219124,701,20,21.55489153558629,17.51661011739571
0.1459563532878307,0.8340606385643338,701,20,21.55489153558629,17.51661011739571
0.1542953273862571,0.8340522993384863,701,20,21.55489153558629,17.51661011739571
0.16263418008250644,0.8340439602406483,701,20,21.55489153558629,17.51661011739571
0.1709729143040374,0.8340356212673838,701,20,21.55489153558629,17.51661011739571
0.17931153275312925,0.8340272824155215,701,20,21.55489153558629,17.51661011739571
0.18765003792420798,0.8340189436821338,701,20,21.55489153558629,17.51661011739571
0.19598843211983843,0.8340106050645186,701,20,21.55489153558629,17.51661011739571
0.20432671746548692,0.8340022665601814,701,20,21.55489153558629,17.51661011739571
0.21266489592314683,0.8339939281668196,701,20,21.55489153558629,17.51661011739571
0.22100296930391702,0.8339855898823079,701,20,21.55489153558629,17.51661011739571
0.2293409392796116,0.8339772517046841,701,20,21.55489153558629,17.51661011739571
0.23767880739347677,0.8339689136321371,701,20,21.55489153558629,17.51661011739571
0.24601657507008318,0.8339605756629952,701,20,21.55489153558629,17.51661011739571
0.2543542436244567,0.8339522377957151,701,20,21.55489153558629,17.51661011739571
0.26269181427050725,0.8339439000288723,701,20,21.55489153558629,17.51661011739571
0.2710292881288089,0.8339355623611517,701,20,21.55489153558629,17.51661011739571
0.27936666623378076,0.8339272247913395,701,20,21.55489153558629,17.51661011739571
0.2877039495403164,0.833918887318315,701,20,21.55489153558629,17.51661011739571
0.2960411389299026,0.8339105499410437,701,20,21.55489153558629,17.51661011739571
0.30437823521626706,0.8339022126585709,701,20,21.55489153558629,17.51661011739571
0.31271523915059213,0.8338938754700151,701,20,21.55489153558629,17.51661011739571
0.3210521514263274,0.8338855383745625,701,20,21.55489153558629,17.51661011739571
0.3293889726836311,0.8338772013714618,701,20,21.55489153558629,17.51661011739571
0.33772570351347103,0.8338688644600198,701,20,21.55489153558629,17.51661011739571
0.34606234446140893,0.8338605276395962,701,20,21.55489153558629,17.51661011739571
0.35439889603109437,0.8338521909096,701,20,21.55489153558629,17.51661011739571
0.3627353586874894,0.8338438542694858,701,20,21.55489153558629,17.51661011739571
0.37107173285984535,0.8338355177187498,701,20,21.55489153558629,17.51661011739571
0.37940801894445025,0.8338271812569271,701,20,21.55489153558629,17.51661011739571
0.38774421730716524,0.8338188448835884,701,20,21.55489153558629,17.51661011739571
0.39608032828576595,0.8338105085983374,701,20,21.55489153558629,17.51661011739571
0.4044163521921024,0.8338021724008083,701,20,21.55489153558629,17.51661011739571
0.4127522893140953,0.8337938362906634,701,20,21.55489153558629,17.51661011739571
0.42108813991757577,0.8337855002675907,701,20,21.55489153558629,17.51661011739571
0.429423904247986,0.8337771643313022,701,20,21.55489153558629,17.51661011739571
0.43775958253194724,0.8337688284815323,701,20,21.55489153558629,17.51661011739571
0.44609517497870843,0.8337604927180355,701,20,21.55489153558629,17.51661011739571
0.4544306817814826,0.8337521570405851,701,20,21.55489153558629,17.51661011739571
0.46276610311868066,0.833743821448972,701,20,21.55489153558629,17.51661011739571
0.4711014391550509,0.8337354859430028,701,20,21.55489153558629,17.51661011739571
0.47943669004272893,0.8337271505224991,701,20,21.55489153558629,17.51661011739571
0.48777185592220956,0.8337188151872963,701,20,21.55489153558629,17.51661011739571
0.4961069369232414,0.8337104799372422,701,20,21.55489153558629,17.51661011739571
0.5044419331656543,0.8337021447721963,701,20,21.55489153558629,17.51661011739571
0.5127768447601224,0.8336938096920288,701,20,21.55489153558629,17.51661011739571
0.5211116718088681,0.8336854746966199,701,20,21.55489153558629,17.51661011739571
0.529446414406313,0.8336771397858589,701,20,21.55489153558629,17.51661011739571
0.5377810726396781,0.8336688049596437,701,20,21.55489153558629,17.51661011739571
0.546115646589537,0.8336604702178797,701,20,21.55489153558629,17.51661011739571
0.5544501363303285,0.8336521355604798,701,20,21.55489153558629,17.51661011739571
0.5627845419308274,0.8336438009873635,701,20,21.55489153558629,17.51661011739571
0.5711188634545816,0.8336354664984561,701,20,21.55489153558629,17.51661011739571
0.5794531009603134,0.8336271320936891,701,20,21.55489153558629,17.51661011739571
0.5877872545022906,0.8336187977729987,701,20,21.55489153558629,17.51661011739571
0.5961213241306704,0.8336104635363265,701,20,21.55489153558629,17.51661011739571
0.6044553098918143,0.8336021293836179,701,20,21.55489153558629,17.51661011739571
0.612789211828581,0.8335937953148229,701,20,21.55489153558629,17.51661011739571
0.6211230299805955,0.8335854613298952,701,20,21.55489153558629,17.51661011739571
0.6294567643844984,0.8335771274287919,701,20,21.55489153558629,17.51661011739571
0.6377904150741747,0.8335687936114733,701,20,21.55489153558629,17.51661011739571
0.6461239820809669,0.8335604598779027,701,20,21.55489153558629,17.51661011739571
0.6544574654338695,0.8335521262280464,701,20,21.55489153558629,17.51661011739571
0.6627908651597108,0.8335437926618731,701,20,21.55489153558629,17.51661011739571
0.6711241812833183,0.8335354591793535,701,20,21.55489153558629,17.51661011739571
0.6794574138276736,0.8335271257804611,701,20,21.55489153558629,17.51661011739571
0.6877905628140544,0.8335187924651708,701,20,21.55489153558629,17.51661011739571
0.696123628262165,0.8335104592334598,701,20,21.55489153558629,17.51661011739571
0.7044566101902578,0.8335021260853067,701,20,21.55489153558629,17.51661011739571
0.7127895086152453,0.8334937930206919,701,20,21.55489153558629,17.51661011739571
0.7211223235528019,0.8334854600395971,701,20,21.55489153558629,17.51661011739571
0.7294550550174608,0.8334771271420054,701,20,21.55489153558629,17.51661011739571
0.7377877030227009,0.8334687943279012,701,20,21.55489153558629,17.51661011739571
0.746120267581028,0.8334604615972698,701,20,21.55489153558629,17.51661011739571
0.75445274870405,0.8334521289500979,701,20,21.55489153558629,17.51661011739571
0.7627851464025452,0.8334437963863728,701,20,21.55489153558629,17.51661011739571
0.7711174606865273,0.833435463906083,701,20,21.55489153558629,17.51661011739571
0.7794496915653033,0.8334271315092178,701,20,21.55489153558629,17.51661011739571
0.787781839047528,0.8334187991957671,701,20,21.55489153558629,17.51661011739571
0.7961139031412547,0.8334104669657215,701,20,21.55489153558629,17.51661011739571
0.804445883853981,0.8334021348190725,701,20,21.55489153558629,17.51661011739571
0.8127777811926918,0.833393802755812,701,20,21.55489153558629,17.51661011739571
0.8211095951638985,0.8333854707759325,701,20,21.55489153558629,17.51661011739571
0.8294413257736754,0.833377138879427,701,20,21.55489153558629,17.51661011739571
0.8377729730276937,0.833368807066289,701,20,21.55489153558629,17.51661011739571
0.8461045369312526,0.8333604753365125,701,20,21.55489153558629,17.51661011739571
0.8544360174893074,0.8333521436900916,701,20,21.55489153558629,17.51661011739571
0.8627674147064961,0.8333438121270212,701,20,21.55489153558629,17.51661011739571
0.8710987285871635,0.8333354806472963,701,20,21.55489153558629,17.51661011739571
0.8794299591353851,0.8333271492509122,701,20,21.55489153558629,17.51661011739571
0.8877611063549864,0.8333188179378648,701,20,21.55489153558629,17.51661011739571
0.8960921702495627,0.8333104867081497,701,20,21.55489153558629,17.51661011739571
0.9044231508224966,0.8333021555617632,701,20,21.55489153558629,17.51661011739571
0.9127540480769745,0.8332938244987017,701,20,21.55489153558629,17.51661011739571
0.9210848620160016,0.833285493518962,701,20,21.55489153558629,17.51661011739571
0.9294155926424166,0.8332771626225406,701,20,21.55489153558629,17.51661011739571
0.9377462399589034,0.8332688318094347,701,20,21.55489153558629,17.51661011739571
0.9460768039680031,0.8332605010796413,701,20,21.55489153558629,17.51661011739571
0.9544072846721255,0.8332521704331579,701,20,21.55489153558629,17.51661011739571
0.9627376820735598,0.8332438398699819,701,20,21.55489153558629,17.51661011739571
0.9710679961744823,0.8332355093901108,701,20,21.55489153558629,17.51661011739571
0.9793982269769658,0.8332271789935425,701,20,21.55489153558629,17.51661011739571
0.9877283744829883,0.8332188486802745,701,20,21.55489153558629,17.51661011739571
0.9960584386944394,0.8332105184503051,701,20,21.55489153558629,17.51661011739571
1.0043884196131274,0.8332021883036321,701,20,21.55489153558629,17.51661011739571
1.0127183172407854,0.8331938582402537,701,20,21.55489153558629,17.51661011739571
1.0210481315790774,0.833185528260168,701,20,21.55489153558629,17.51661011739571
1.0293778626296033,0.8331771983633733,701,20,21.55489153558629,17.51661011739571
1.0377075103939033,0.833168868549868,701,20,21.55489153558629,17.51661011739571
1.0460370748734646,0.8331605388196506,701,20,21.55489153558629,17.51661011739571
1.0543665560697233,0.8331522091727193,701,20,21.55489153558629,17.51661011739571
1.0626959539840686,0.8331438796090727,701,20,21.55489153558629,17.51661011739571
1.071025268617847,0.8331355501287093,701,20,21.55489153558629,17.51661011739571
1.0793544999723659,0.8331272207316279,701,20,21.55489153558629,17.51661011739571
1.0876836480488965,0.8331188914178271,701,20,21.55489153558629,17.51661011739571
1.096012712848675,0.8331105621873055,701,20,21.55489153558629,17.51661011739571
1.1043416943729076,0.8331022330400619,701,20,21.55489153558629,17.51661011739571
1.1126705926227716,0.8330939039760951,701,20,21.55489153558629,17.51661011739571
1.1209994075994167,0.8330855749954038,701,20,21.55489153558629,17.51661011739571
1.1293281393039694,0.8330772460979868,701,20,21.55489153558629,17.51661011739571
1.1376567877375334,0.833068917283843,701,20,21.55489153558629,17.51661011739571
1.1459853529011914,0.8330605885529714,701,20,21.55489153558629,17.51661011739571
1.1543138347960067,0.8330522599053707,701,20,21.55489153558629,17.51661011739571
1.1626422334230244,0.8330439313410399,701,20,21.55489153558629,17.51661011739571
1.1709705487832744,0.833035602859978,701,20,21.55489153558629,17.51661011739571
1.17929878087777,0.8330272744621838,701,20,21.55489153558629,17.51661011739571
1.187626929707512,0.8330189461476565,701,20,21.55489153558629,17.51661011739571
1.1959549952734871,0.8330106179163947,701,20,21.55489153558629,17.51661011739571
1.2042829775766706,0.8330022897683979,701,20,21.55489153558629,17.51661011739571
1.2126108766180266,0.8329939617036647,701,20,21.55489153558629,17.51661011739571
1.2209386923985097,0.8329856337221944,701,20,21.55489153558629,17.51661011739571
1.2292664249190643,0.8329773058239858,701,20,21.55489153558629,17.51661011739571
1.2375940741806262,0.8329689780090381,701,20,21.55489153558629,17.51661011739571
1.245921640184124,0.8329606502773503,701,20,21.55489153558629,17.51661011739571
1.254249122930478,0.8329523226289216,701,20,21.55489153558629,17.51661011739571
1.2625765224206025,0.8329439950637508,701,20,21.55489153558629,17.51661011739571
1.2709038386554046,0.8329356675818372,701,20,21.55489153558629,17.51661011739571
1.2792310716357866,0.8329273401831799,701,20,21.55489153558629,17.51661011739571
1.287558221362645,0.8329190128677778,701,20,21.55489153558629,17.51661011739571
1.2958852878368712,0.8329106856356302,701,20,21.55489153558629,17.51661011739571
1.3042122710593518,0.8329023584867361,701,20,21.55489153558629,17.51661011739571
1.3125391710309702,0.8328940314210945,701,20,21.55489153558629,17.51661011739571
1.3208659877526048,0.8328857044387048,701,20,21.55489153558629,17.51661011739571
1.3291927212251307,0.8328773775395659,701,20,21.55489153558629,17.51661011739571
1.3375193714494205,0.8328690507236769,701,20,21.55489153558629,17.51661011739571
1.3458459384263421,0.832860723991037,701,20,21.55489153558629,17.51661011739571
1.354172422156763,0.8328523973416455,701,20,21.55489153558629,17.51661011739571
1.3624988226415455,0.8328440707755013,701,20,21.55489153558629,17.51661011739571
1.370825139881551,0.8328357442926035,701,20,21.55489153558629,17.51661011739571
1.3791513738776389,0.8328274178929513,701,20,21.55489153558629,17.51661011739571
1.387477524630665,0.832819091576544,701,20,21.55489153558629,17.51661011739571
1.3958035921414846,0.8328107653433806,701,20,21.55489153558629,17.51661011739571
1.4041295764109514,0.8328024391934602,701,20,21.55489153558629,17.51661011739571
1.4124554774399163,0.832794113126782,701,20,21.55489153558629,17.51661011739571
1.4207812952292294,0.8327857871433452,701,20,21.55489153558629,17.51661011739571
1.429107029779739,0.8327774612431488,701,20,21.55489153558629,17.51661011739571
1.4374326810922928,0.832769135426192,701,20,21.55489153558629,17.51661011739571
1.4457582491677372,0.8327608096924741,701,20,21.55489153558629,17.51661011739571
1.4540837340069173,0.8327524840419942,701,20,21.55489153558629,17.51661011739571
1.4624091356106765,0.8327441584747513,701,20,21.55489153558629,17.51661011739571
1.470734453979859,0.8327358329907447,701,20,21.55489153558629,17.51661011739571
1.4790596891153065,0.8327275075899735,701,20,21.55489153558629,17.51661011739571
1.4873848410178607,0.8327191822724368,701,20,21.55489153558629,17.51661011739571
1.4957099096883621,0.832710857038134,701,20,21.55489153558629,17.51661011739571
1.5040348951276512,0.8327025318870639,701,20,21.55489153558629,17.51661011739571
1.5123597973365674,0.8326942068192259,701,20,21.55489153558629,17.51661011739571
1.5206846163159498,0.8326858818346191,701,20,21.55489153558629,17.51661011739571
1.5290093520666364,0.8326775569332427,701,20,21.55489153558629,17.51661011739571
1.537334004589465,0.8326692321150958,701,20,21.55489153558629,17.51661011739571
1.5456585738852737,0.8326609073801776,701,20,21.55489153558629,17.51661011739571
1.5539830599548992,0.8326525827284873,701,20,21.55489153558629,17.51661011739571
1.5623074627991782,0.832644258160024,701,20,21.55489153558629,17.51661011739571
1.5706317824189466,0.8326359336747868,701,20,21.55489153558629,17.51661011739571
1.5789560188150407,0.832627609272775,701,20,21.55489153558629,17.51661011739571
1.5872801719882959,0.8326192849539876,701,20,21.55489153558629,17.51661011739571
1.5956042419395473,0.832610960718424,701,20,21.55489153558629,17.51661011739571
1.603928228669631,0.8326026365660832,701,20,21.55489153558629,17.51661011739571
1.612252132179381,0.8325943124969644,701,20,21.55489153558629,17.51661011739571
1.6205759524696315,0.8325859885110667,701,20,21.55489153558629,17.51661011739571
1.6288996895412178,0.8325776646083893,701,20,21.55489153558629,17.51661011739571
1.637223343394974,0.8325693407889315,701,20,21.55489153558629,17.51661011739571
1.6455469140317343,0.8325610170526923,701,20,21.55489153558629,17.51661011739571
1.6538704014523316,0.832552693399671,701,20,21.55489153558629,17.51661011739571
1.6621938056576004,0.8325443698298666,701,20,21.55489153558629,17.51661011739571
1.6705171266483738,0.8325360463432783,701,20,21.55489153558629,17.51661011739571
1.6788403644254861,0.8325277229399054,701,20,21.55489153558629,17.51661011739571
1.6871635189897698,0.832519399619747,701,20,21.55489153558629,17.51661011739571
1.6954865903420582,0.8325110763828022,701,20,21.55489153558629,17.51661011739571
1.7038095784831846,0.8325027532290703,701,20,21.55489153558629,17.51661011739571
1.7121324834139824,0.8324944301585503,701,20,21.55489153558629,17.51661011739571
1.7204553051352838,0.8324861071712415,701,20,21.55489153558629,17.51661011739571
1.7287780436479216,0.832477784267143,701,20,21.55489153558629,17.51661011739571
1.7371006989527296,0.832469461446254,701,20,21.55489153558629,17.51661011739571
1.745423271050539,0.8324611387085736,701,20,21.55489153558629,17.51661011739571
1.7537457599421833,0.8324528160541012,701,20,21.55489153558629,17.51661011739571
1.7620681656284949,0.8324444934828356,701,20,21.55489153558629,17.51661011739571
1.7703904881103063,0.8324361709947762,701,20,21.55489153558629,17.51661011739571
1.7787127273884495,0.8324278485899221,701,20,21.55489153558629,17.51661011739571
1.7870348834637575,0.8324195262682725,701,20,21.55489153558629,17.51661011739571
1.795356956337062,0.8324112040298267,701,20,21.55489153558629,17.51661011739571
1.803678946009196,0.8324028818745836,701,20,21.55489153558629,17.51661011739571
1.8120008524809907,0.8323945598025425,701,20,21.55489153558629,17.51661011739571
1.8203226757532793,0.8323862378137026,701,20,21.55489153558629,17.51661011739571
1.8286444158268933,0.832377915908063,701,20,21.55489153558629,17.51661011739571
1.836966072702665,0.8323695940856229,701,20,21.55489153558629,17.51661011739571
1.8452876463814267,0.8323612723463815,701,20,21.55489153558629,17.51661011739571
1.8536091368640106,0.8323529506903379,701,20,21.55489153558629,17.51661011739571
1.861930544151248,0.8323446291174913,701,20,21.55489153558629,17.51661011739571
1.8702518682439713,0.8323363076278409,701,20,21.55489153558629,17.51661011739571
1.8785731091430131,0.8323279862213858,701,20,21.55489153558629,17.51661011739571
1.8868942668492041,0.8323196648981253,701,20,21.55489153558629,17.51661011739571
1.895215341363377,0.8323113436580584,701,20,21.55489153558629,17.51661011739571
1.9035363326863637,0.8323030225011843,701,20,21.55489153558629,17.51661011739571
1.9118572408189956,0.8322947014275023,701,20,21.55489153558629,17.51661011739571
1.920178065762105,0.8322863804370114,701,20,21.55489153558629,17.51661011739571
1.9284988075165235,0.8322780595297109,701,20,21.55489153558629,17.51661011739571
1.9368194660830829,0.8322697387055998,701,20,21.55489153558629,17.51661011739571
1.9451400414626152,0.8322614179646776,701,20,21.55489153558629,17.51661011739571
1.9534605336559525,0.8322530973069431,701,20,21.55489153558629,17.51661011739571
1.9617809426639254,0.8322447767323956,701,20,21.55489153558629,17.51661011739571
1.9701012684873673,0.8322364562410343,701,20,21.55489153558629,17.51661011739571
1.9784215111271084,0.8322281358328584,701,20,21.55489153558629,17.51661011739571
1.986741670583981,0.832219815507867,701,20,21.55489153558629,17.51661011739571
1.9950617468588174,0.8322114952660593,701,20,21.55489153558629,17.51661011739571
2.0033817399524483,0.8322031751074345,701,20,21.55489153558629,17.51661011739571
2.0117016498657057,0.8321948550319916,701,20,21.55489153558629,17.51661011739571
2.0200214765994216,0.8321865350397301,701,20,21.55489153558629,17.51661011739571
