Vout,Iout,Irradiance,Temperature,MaxVoltage,MaxPower
0.003890512591225084,0.7781099999999999,701,-20,18.611427378967427,14.135633760005781
0.011671465834415216,0.7781099999999999,701,-20,18.611427378967427,14.135633760005781
0.01945226089277756,0.7781060316764087,701,-20,18.611427378967427,14.135633760005781
0.027232869506645007,0.7780982507231654,701,-20,18.611427378967427,14.135633760005781
0.03501328244026809,0.778090469928504,701,-20,18.611427378967427,14.135633760005781
0.04279350876608852,0.7780826893206682,701,-20,18.611427378967427,14.135633760005781
0.050573556858818466,0.7780749089085126,701,-20,18.611427378967427,14.135633760005781
0.058353434448952635,0.7780671286829648,701,-20,18.611427378967427,14.135633760005781
0.06613314867224915,0.7780593486356502,701,-20,18.611427378967427,14.135633760005781
0.0739127061154895,0.7780515687588381,701,-20,18.611427378967427,14.135633760005781
0.08169211285871772,0.7780437890453927,701,-20,18.611427378967427,14.135633760005781
0.08947137451422946,0.7780360094887275,701,-20,18.611427378967427,14.135633760005781
0.09725049626256137,0.7780282300827622,701,-20,18.611427378967427,14.135633760005781
0.10502948288571132,0.7780204508218846,701,-20,18.611427378967427,14.135633760005781
0.11280833879780251,0.7780126717009143,701,-20,18.611427378967427,14.135633760005781
0.12058706807338843,0.7780048927150691,701,-20,18.611427378967427,14.135633760005781
0.1283656744735798,0.7779971138599349,701,-20,18.611427378967427,14.135633760005781
0.1361441614701614,0.7779893351314372,701,-20,18.611427378967427,14.135633760005781
0.14392253226785323,0.7779815565258149,701,-20,18.611427378967427,14.135633760005781
0.15170078982485896,0.7779737780395962,701,-20,18.611427378967427,14.135633760005781
0.15947893687183318,0.7779659996695764,701,-20,18.611427378967427,14.135633760005781
0.16725697592938943,0.7779582214127972,701,-20,18.611427378967427,14.135633760005781
0.17503490932426116,0.7779504432665281,701,-20,18.611427378967427,14.135633760005781
0.182812739204219,0.7779426652282483,701,-20,18.611427378967427,14.135633760005781
0.19059046755184067,0.7779348872956313,701,-20,18.611427378967427,14.135633760005781
0.19836809619722087,0.7779271094665291,701,-20,18.611427378967427,14.135633760005781
0.206145626829704,0.7779193317389593,701,-20,18.611427378967427,14.135633760005781
0.21392306100871325,0.7779115541110917,701,-20,18.611427378967427,14.135633760005781
0.22170040017374715,0.777903776581237,701,-20,18.611427378967427,14.135633760005781
0.2294776456536069,0.7778959991478357,701,-20,18.611427378967427,14.135633760005781
0.23725479867491334,0.7778882218094485,701,-20,18.611427378967427,14.135633760005781
0.24503186036996893,0.7778804445647464,701,-20,18.611427378967427,14.135633760005781
0.252808831784015,0.7778726674125027,701,-20,18.611427378967427,14.135633760005781
0.26058571388192986,0.7778648903515855,701,-20,18.611427378967427,14.135633760005781
0.2683625075544127,0.7778571133809491,701,-20,18.611427378967427,14.135633760005781
0.2761392136236906,0.7778493364996288,701,-20,18.611427378967427,14.135633760005781
0.28391583284878685,0.7778415597067341,701,-20,18.611427378967427,14.135633760005781
0.2916923659303842,0.7778337830014426,701,-20,18.611427378967427,14.135633760005781
0.29946881351531374,0.7778260063829951,701,-20,18.611427378967427,14.135633760005781
0.30724517620069786,0.7778182298506912,701,-20,18.611427378967427,14.135633760005781
0.3150214545377754,0.7778104534038839,701,-20,18.611427378967427,14.135633760005781
0.3227976490354318,0.7778026770419761,701,-20,18.611427378967427,14.135633760005781
0.3305737601634577,0.7777949007644167,701,-20,18.611427378967427,14.135633760005781
0.3383497883555573,0.7777871245706968,701,-20,18.611427378967427,14.135633760005781
0.34612573401212465,0.7777793484603464,701,-20,18.611427378967427,14.135633760005781
0.3539015975028066,0.7777715724329318,701,-20,18.611427378967427,14.135633760005781
0.3616773791688685,0.7777637964880529,701,-20,18.611427378967427,14.135633760005781
0.3694530793253783,0.7777560206253398,701,-20,18.611427378967427,14.135633760005781
0.3772286982632217,0.7777482448444514,701,-20,18.611427378967427,14.135633760005781
0.3850042362509629,0.7777404691450724,701,-20,18.611427378967427,14.135633760005781
0.39277969353656234,0.7777326935269121,701,-20,18.611427378967427,14.135633760005781
0.4005550703489618,0.777724917989702,701,-20,18.611427378967427,14.135633760005781
0.4083303668995475,0.7777171425331939,701,-20,18.611427378967427,14.135633760005781
0.4161055833835013,0.7777093671571591,701,-20,18.611427378967427,14.135633760005781
0.42388071998104687,0.7777015918613861,701,-20,18.611427378967427,14.135633760005781
0.43165577685860157,0.7776938166456796,701,-20,18.611427378967427,14.135633760005781
0.43943075416983746,0.7776860415098596,701,-20,18.611427378967427,14.135633760005781
0.4472056520566632,0.7776782664537596,701,-20,18.611427378967427,14.135633760005781
0.45498047065012837,0.7776704914772259,701,-20,18.611427378967427,14.135633760005781
0.4627552100712589,0.7776627165801165,701,-20,18.611427378967427,14.135633760005781
0.47052987043182903,0.7776549417623005,701,-20,18.611427378967427,14.135633760005781
0.47830445183507225,0.777647167023657,701,-20,18.611427378967427,14.135633760005781
0.48607895437633925,0.7776393923640739,701,-20,18.611427378967427,14.135633760005781
0.49385337814370395,0.7776316177834481,701,-20,18.611427378967427,14.135633760005781
0.5016277232185233,0.7776238432816843,701,-20,18.611427378967427,14.135633760005781
0.5094019896759548,0.7776160688586944,701,-20,18.611427378967427,14.135633760005781
0.5171761775854324,0.7776082945143971,701,-20,18.611427378967427,14.135633760005781
0.5249502870111079,0.7776005202487171,701,-20,18.611427378967427,14.135633760005781
0.532724318012257,0.777592746061585,701,-20,18.611427378967427,14.135633760005781
0.5404982706436536,0.7775849719529367,701,-20,18.611427378967427,14.135633760005781
0.5482721449559183,0.777577197922713,701,-20,18.611427378967427,14.135633760005781
0.5560459409958356,0.777569423970859,701,-20,18.611427378967427,14.135633760005781
0.5638196588066504,0.7775616500973241,701,-20,18.611427378967427,14.135633760005781
0.5715932984283403,0.7775538763020616,701,-20,18.611427378967427,14.135633760005781
0.5793668598978665,0.7775461025850282,701,-20,18.611427378967427,14.135633760005781
0.587140343249406,0.7775383289461839,701,-20,18.611427378967427,14.135633760005781
0.5949137485145665,0.7775305553854918,701,-20,18.611427378967427,14.135633760005781
0.6026870757225826,0.7775227819029176,701,-20,18.611427378967427,14.135633760005781
0.6104603249005002,0.7775150084984298,701,-20,18.611427378967427,14.135633760005781
0.6182334960733437,0.777507235171999,701,-20,18.611427378967427,14.135633760005781
0.6260065892642717,0.7774994619235985,701,-20,18.611427378967427,14.135633760005781
0.6337796044947209,0.777491688753203,701,-20,18.611427378967427,14.135633760005781
0.6415525417845382,0.7774839156607894,701,-20,18.611427378967427,14.135633760005781
0.6493254011521037,0.7774761426463362,701,-20,18.611427378967427,14.135633760005781
0.6570981826144425,0.7774683697098238,701,-20,18.611427378967427,14.135633760005781
0.66487088618733,0.7774605968512335,701,-20,18.611427378967427,14.135633760005781
0.6726435118853872,0.7774528240705485,701,-20,18.611427378967427,14.135633760005781
0.6804160597221698,0.7774450513677529,701,-20,18.611427378967427,14.135633760005781
0.6881885297102509,0.7774372787428321,701,-20,18.611427378967427,14.135633760005781
0.6959609218612957,0.7774295061957726,701,-20,18.611427378967427,14.135633760005781
0.7037332361861312,0.7774217337265618,701,-20,18.611427378967427,14.135633760005781
0.7115054726948116,0.7774139613351879,701,-20,18.611427378967427,14.135633760005781
0.7192776313966771,0.7774061890216404,701,-20,18.611427378967427,14.135633760005781
0.7270497123004092,0.7773984167859089,701,-20,18.611427378967427,14.135633760005781
0.7348217154140809,0.7773906446279842,701,-20,18.611427378967427,14.135633760005781
0.7425936407452043,0.7773828725478578,701,-20,18.611427378967427,14.135633760005781
0.7503654883007723,0.7773751005455213,701,-20,18.611427378967427,14.135633760005781
0.7581372580873008,0.7773673286209674,701,-20,18.611427378967427,14.135633760005781
0.7659089501108631,0.777359556774189,701,-20,18.611427378967427,14.135633760005781
0.7736805643771257,0.7773517850051797,701,-20,18.611427378967427,14.135633760005781
0.7814521008913782,0.7773440133139333,701,-20,18.611427378967427,14.135633760005781
0.7892235596585633,0.7773362417004442,701,-20,18.611427378967427,14.135633760005781
0.7969949406833032,0.7773284701647072,701,-20,18.611427378967427,14.135633760005781
0.8047662439699244,0.7773206987067172,701,-20,18.611427378967427,14.135633760005781
0.8125374695224797,0.7773129273264695,701,-20,18.611427378967427,14.135633760005781
0.8203086173447707,0.7773051560239601,701,-20,18.611427378967427,14.135633760005781
0.828079687440365,0.7772973847991846,701,-20,18.611427378967427,14.135633760005781
0.8358506798126168,0.7772896136521394,701,-20,18.611427378967427,14.135633760005781
0.8436215944646811,0.777281842582821,701,-20,18.611427378967427,14.135633760005781
0.8513924313995304,0.7772740715912259,701,-20,18.611427378967427,14.135633760005781
0.8591631906199677,0.7772663006773509,701,-20,18.611427378967427,14.135633760005781
0.8669338721286404,0.7772585298411931,701,-20,18.611427378967427,14.135633760005781
0.8747044759280523,0.7772507590827499,701,-20,18.611427378967427,14.135633760005781
0.8824750020205738,0.7772429884020182,701,-20,18.611427378967427,14.135633760005781
0.8902454504084529,0.7772352177989958,701,-20,18.611427378967427,14.135633760005781
0.8980158210938244,0.7772274472736804,701,-20,18.611427378967427,14.135633760005781
0.9057861140787182,0.7772196768260696,701,-20,18.611427378967427,14.135633760005781
0.9135563293650684,0.7772119064561613,701,-20,18.611427378967427,14.135633760005781
0.9213264669547195,0.7772041361639535,701,-20,18.611427378967427,14.135633760005781
0.9290965268494348,0.7771963659494442,701,-20,18.611427378967427,14.135633760005781
0.9368665090508999,0.7771885958126316,701,-20,18.611427378967427,14.135633760005781
0.944636413560732,0.7771808257535139,701,-20,18.611427378967427,14.135633760005781
0.9524062403804833,0.7771730557720894,701,-20,18.611427378967427,14.135633760005781
0.9601759895116458,0.7771652858683565,701,-20,18.611427378967427,14.135633760005781
0.967945660955657,0.7771575160423138,701,-20,18.611427378967427,14.135633760005781
0.9757152547139034,0.7771497462939596,701,-20,18.611427378967427,14.135633760005781
0.9834847707877242,0.7771419766232925,701,-20,18.611427378967427,14.135633760005781
0.991254209178416,0.7771342070303113,701,-20,18.611427378967427,14.135633760005781
0.9990235698872348,0.7771264375150144,701,-20,18.611427378967427,14.135633760005781
1.0067928529153998,0.7771186680774007,701,-20,18.611427378967427,14.135633760005781
1.0145620582640962,0.7771108987174689,701,-20,18.611427378967427,14.135633760005781
1.022331185934478,0.7771031294352176,701,-20,18.611427378967427,14.135633760005781
1.0301002359276696,0.7770953602306458,701,-20,18.611427378967427,14.135633760005781
1.0378692082447694,0.7770875911037525,701,-20,18.611427378967427,14.135633760005781
1.0456381028868504,0.7770798220545362,701,-20,18.611427378967427,14.135633760005781
1.053406919854963,0.777072053082996,701,-20,18.611427378967427,14.135633760005781
1.061175659150136,0.7770642841891308,701,-20,18.611427378967427,14.135633760005781
1.0689443207733802,0.7770565153729396,701,-20,18.611427378967427,14.135633760005781
1.0767129047256867,0.7770487466344213,701,-20,18.611427378967427,14.135633760005781
1.0844814110080312,0.777040977973575,701,-20,18.611427378967427,14.135633760005781
1.0922498396213733,0.7770332093903995,701,-20,18.611427378967427,14.135633760005781
1.1000181905666595,0.777025440884894,701,-20,18.611427378967427,14.135633760005781
1.107786463844822,0.7770176724570576,701,-20,18.611427378967427,14.135633760005781
1.115554659456782,0.7770099041068891,701,-20,18.611427378967427,14.135633760005781
1.1233227774034487,0.7770021358343878,701,-20,18.611427378967427,14.135633760005781
1.1310908176857222,0.7769943676395527,701,-20,18.611427378967427,14.135633760005781
1.1388587803044918,0.7769865995223828,701,-20,18.611427378967427,14.135633760005781
1.1466266652606394,0.7769788314828774,701,-20,18.611427378967427,14.135633760005781
1.1543944725550375,0.7769710635210354,701,-20,18.611427378967427,14.135633760005781
1.162162202188552,0.7769632956368561,701,-20,18.611427378967427,14.135633760005781
1.1699298541620422,0.7769555278303385,701,-20,18.611427378967427,14.135633760005781
1.17769742847636,0.7769477601014817,701,-20,18.611427378967427,14.135633760005781
1.1854649251323521,0.776939992450285,701,-20,18.611427378967427,14.135633760005781
1.1932323441308597,0.7769322248767475,701,-20,18.611427378967427,14.135633760005781
1.200999685472719,0.7769244573808682,701,-20,18.611427378967427,14.135633760005781
1.2087669491587616,0.7769166899626465,701,-20,18.611427378967427,14.135633760005781
1.2165341351898151,0.7769089226220814,701,-20,18.611427378967427,14.135633760005781
1.2243012435667027,0.7769011553591721,701,-20,18.611427378967427,14.135633760005781
1.2320682742902442,0.7768933881739177,701,-20,18.611427378967427,14.135633760005781
1.239835227361256,0.7768856210663176,701,-20,18.611427378967427,14.135633760005781
1.2476021027805513,0.7768778540363708,701,-20,18.611427378967427,14.135633760005781
1.2553689005489408,0.7768700870840765,701,-20,18.611427378967427,14.135633760005781
1.2631356206672324,0.7768623202094339,701,-20,18.611427378967427,14.135633760005781
1.2709022631362314,0.7768545534124423,701,-20,18.611427378967427,14.135633760005781
1.278668827956741,0.7768467866931006,701,-20,18.611427378967427,14.135633760005781
1.2864353151295624,0.7768390200514083,701,-20,18.611427378967427,14.135633760005781
1.2942017246554944,0.7768312534873645,701,-20,18.611427378967427,14.135633760005781
1.3019680565353347,0.7768234870009683,701,-20,18.611427378967427,14.135633760005781
1.309734310769879,0.776815720592219,701,-20,18.611427378967427,14.135633760005781
1.3175004873599214,0.7768079542611158,701,-20,18.611427378967427,14.135633760005781
1.3252665863062552,0.7768001880076579,701,-20,18.611427378967427,14.135633760005781
1.333032607609672,0.7767924218318445,701,-20,18.611427378967427,14.135633760005781
1.340798551270962,0.7767846557336748,701,-20,18.611427378967427,14.135633760005781
1.3485644172909144,0.776776889713148,701,-20,18.611427378967427,14.135633760005781
1.3563302056703173,0.7767691237702633,701,-20,18.611427378967427,14.135633760005781
1.3640959164099586,0.77676135790502,701,-20,18.611427378967427,14.135633760005781
1.3718615495106243,0.7767535921174171,701,-20,18.611427378967427,14.135633760005781
1.3796271049731006,0.7767458264074542,701,-20,18.611427378967427,14.135633760005781
1.3873925827981721,0.77673806077513,701,-20,18.611427378967427,14.135633760005781
1.3951579829866232,0.7767302952204441,701,-20,18.611427378967427,14.135633760005781
1.4029233055392372,0.7767225297433956,701,-20,18.611427378967427,14.135633760005781
1.4106885504567972,0.7767147643439837,701,-20,18.611427378967427,14.135633760005781
1.4184537177400867,0.7767069990222076,701,-20,18.611427378967427,14.135633760005781
1.4262188073898874,0.7766992337780666,701,-20,18.611427378967427,14.135633760005781
1.4339838194069794,0.7766914686115599,701,-20,18.611427378967427,14.135633760005781
1.4417487537921452,0.7766837035226866,701,-20,18.611427378967427,14.135633760005781
1.4495136105461655,0.776675938511446,701,-20,18.611427378967427,14.135633760005781
1.4572783896698203,0.7766681735778374,701,-20,18.611427378967427,14.135633760005781
1.4650430911638899,0.7766604087218598,701,-20,18.611427378967427,14.135633760005781
1.4728077150291539,0.7766526439435126,701,-20,18.611427378967427,14.135633760005781
1.4805722612663916,0.7766448792427951,701,-20,18.611427378967427,14.135633760005781
1.4883367298763828,0.7766371146197063,701,-20,18.611427378967427,14.135633760005781
1.4961011208599058,0.7766293500742455,701,-20,18.611427378967427,14.135633760005781
1.5038654342177395,0.776621585606412,701,-20,18.611427378967427,14.135633760005781
1.5116296699506626,0.7766138212162049,701,-20,18.611427378967427,14.135633760005781
1.5193938280594537,0.7766060569036236,701,-20,18.611427378967427,14.135633760005781
1.52715790854489,0.7765982926686671,701,-20,18.611427378967427,14.135633760005781
1.5349219114077501,0.7765905285113347,701,-20,18.611427378967427,14.135633760005781
1.5426858366488119,0.7765827644316257,701,-20,18.611427378967427,14.135633760005781
1.5504496842688527,0.7765750004295393,701,-20,18.611427378967427,14.135633760005781
1.55821345426865,0.7765672365050746,701,-20,18.611427378967427,14.135633760005781
1.5659771466489814,0.776559472658231,701,-20,18.611427378967427,14.135633760005781
1.5737407614106245,0.7765517088890076,701,-20,18.611427378967427,14.135633760005781
1.581504298554356,0.7765439451974037,701,-20,18.611427378967427,14.135633760005781
1.5892677580809533,0.7765361815834183,701,-20,18.611427378967427,14.135633760005781
1.5970311399911932,0.776528418047051,701,-20,18.611427378967427,14.135633760005781
1.6047944442858526,0.7765206545883008,701,-20,18.611427378967427,14.135633760005781
1.6125576709657083,0.7765128912071668,701,-20,18.611427378967427,14.135633760005781
1.620320820031537,0.7765051279036486,701,-20,18.611427378967427,14.135633760005781
1.6280838914841158,0.776497364677745,701,-20,18.611427378967427,14.135633760005781
1.635846885324221,0.7764896015294556,701,-20,18.611427378967427,14.135633760005781
1.6436098015526288,0.7764818384587793,701,-20,18.611427378967427,14.135633760005781
1.6513726401701165,0.7764740754657155,701,-20,18.611427378967427,14.135633760005781
1.6591354011774602,0.7764663125502634,701,-20,18.611427378967427,14.135633760005781
1.6668980845754366,0.7764585497124222,701,-20,18.611427378967427,14.135633760005781
1.6746606903648216,0.7764507869521912,701,-20,18.611427378967427,14.135633760005781
1.6824232185463917,0.7764430242695695,701,-20,18.611427378967427,14.135633760005781
1.6901856691209234,0.7764352616645563,701,-20,18.611427378967427,14.135633760005781
1.6979480420891924,0.776427499137151,701,-20,18.611427378967427,14.135633760005781
1.7057103374519755,0.7764197366873528,701,-20,18.611427378967427,14.135633760005781
1.7134725552100485,0.7764119743151607,701,-20,18.611427378967427,14.135633760005781
1.7212346953641875,0.7764042120205742,701,-20,18.611427378967427,14.135633760005781
1.7289967579151686,0.7763964498035923,701,-20,18.611427378967427,14.135633760005781
1.7367587428637687,0.7763886876642144,701,-20,18.611427378967427,14.135633760005781
1.7445206502107626,0.7763809256024397,701,-20,18.611427378967427,14.135633760005781
1.752282479956927,0.7763731636182674,701,-20,18.611427378967427,14.135633760005781
1.760044232103038,0.7763654017116965,701,-20,18.611427378967427,14.135633760005781
1.767805906649872,0.7763576398827265,701,-20,18.611427378967427,14.135633760005781
1.7755675035982035,0.7763498781313567,701,-20,18.611427378967427,14.135633760005781
1.78332902294881,0.776342116457586,701,-20,18.611427378967427,14.135633760005781
1.7910904647024668,0.7763343548614139,701,-20,18.611427378967427,14.135633760005781
1.7988518288599493,0.7763265933428394,701,-20,18.611427378967427,14.135633760005781
1.8066131154220342,0.7763188319018619,701,-20,18.611427378967427,14.135633760005781
1.8143743243894974,0.7763110705384806,701,-20,18.611427378967427,14.135633760005781
