Vout,Iout,Irradiance,Temperature,MaxVoltage,MaxPower
0.007145881289602984,1.4291899999999997,1201,20,21.5615787759793,30.351294936567523
0.021437511734700595,1.4291899999999997,1201,20,21.5615787759793,30.351294936567523
0.03572885163453593,1.4291827111997102,1201,20,21.5615787759793,30.351294936567523
0.05001984908329411,1.429168419569265,1201,20,21.5615787759793,30.351294936567523
0.06431048711725432,1.4291541282300941,1201,20,21.5615787759793,30.351294936567523
0.07860078240018255,1.4291398372340745,1201,20,21.5615787759793,30.351294936567523
0.09289075031429331,1.4291255465974697,1201,20,21.5615787759793,30.351294936567523
0.1071804050585375,1.429111256303616,1201,20,21.5615787759793,30.351294936567523
0.1214697597394864,1.4290969663371307,1201,20,21.5615787759793,30.351294936567523
0.13575882645538093,1.4290826766838156,1201,20,21.5615787759793,30.351294936567523
0.15004761637371422,1.4290683873305636,1201,20,21.5615787759793,30.351294936567523
0.16433613980284484,1.4290540982652766,1201,20,21.5615787759793,30.351294936567523
0.1786244062580999,1.4290398094767873,1201,20,21.5615787759793,30.351294936567523
0.19291242452279217,1.429025520954787,1201,20,21.5615787759793,30.351294936567523
0.20720020270454234,1.4290112326897606,1201,20,21.5615787759793,30.351294936567523
0.22148774828726797,1.428996944672925,1201,20,21.5615787759793,30.351294936567523
0.23577506817917207,1.4289826568961719,1201,20,21.5615787759793,30.351294936567523
0.2500621687570395,1.428968369352018,1201,20,21.5615787759793,30.351294936567523
0.26434905590712526,1.428954082033555,1201,20,21.5615787759793,30.351294936567523
0.2786357350628963,1.4289397949344058,1201,20,21.5615787759793,30.351294936567523
0.2929222112398701,1.4289255080486845,1201,20,21.5615787759793,30.351294936567523
0.3072084890677721,1.4289112213709574,1201,20,21.5615787759793,30.351294936567523
0.3214945728202193,1.428896934896209,1201,20,21.5615787759793,30.351294936567523
0.3357804664421198,1.4288826486198098,1201,20,21.5615787759793,30.351294936567523
0.35006617357496395,1.428868362537486,1201,20,21.5615787759793,30.351294936567523
0.3643516975801702,1.4288540766452928,1201,20,21.5615787759793,30.351294936567523
0.3786370415606338,1.4288397909395885,1201,20,21.5615787759793,30.351294936567523
0.39292220838061837,1.4288255054170118,1201,20,21.5615787759793,30.351294936567523
0.4072072006841163,1.42881122007446,1201,20,21.5615787759793,30.351294936567523
0.42149202091179716,1.4287969349090686,1201,20,21.5615787759793,30.351294936567523
0.4357766713166511,1.4287826499181937,1201,20,21.5615787759793,30.351294936567523
0.45006115397842966,1.4287683650993945,1201,20,21.5615787759793,30.351294936567523
0.46434547081697486,1.4287540804504182,1201,20,21.5615787759793,30.351294936567523
0.47862962360452294,1.4287397959691848,1201,20,21.5615787759793,30.351294936567523
0.49291361397706124,1.4287255116537747,1201,20,21.5615787759793,30.351294936567523
0.5071974434448115,1.4287112275024156,1201,20,21.5615787759793,30.351294936567523
0.5214811134019066,1.4286969435134715,1201,20,21.5615787759793,30.351294936567523
0.5357646251353226,1.428682659685432,1201,20,21.5615787759793,30.351294936567523
0.5500479798331229,1.4286683760169034,1201,20,21.5615787759793,30.351294936567523
0.5643311785920698,1.4286540925065985,1201,20,21.5615787759793,30.351294936567523
0.5786142224246485,1.428639809153329,1201,20,21.5615787759793,30.351294936567523
0.5928971122655522,1.4286255259559983,1201,20,21.5615787759793,30.351294936567523
0.6071798489776667,1.4286112429135942,1201,20,21.5615787759793,30.351294936567523
0.621462433357596,1.4285969600251816,1201,20,21.5615787759793,30.351294936567523
0.6357448661407623,1.4285826772898977,1201,20,21.5615787759793,30.351294936567523
0.6500271480061124,1.428568394706946,1201,20,21.5615787759793,30.351294936567523
0.6643092795804646,1.4285541122755911,1201,20,21.5615787759793,30.351294936567523
0.6785912614425178,1.4285398299951542,1201,20,21.5615787759793,30.351294936567523
0.6928730941265553,1.428525547865008,1201,20,21.5615787759793,30.351294936567523
0.7071547781258611,1.4285112658845742,1201,20,21.5615787759793,30.351294936567523
0.7214363138958757,1.4284969840533184,1201,20,21.5615787759793,30.351294936567523
0.7357177018571062,1.4284827023707474,1201,20,21.5615787759793,30.351294936567523
0.7499989423978158,1.4284684208364054,1201,20,21.5615787759793,30.351294936567523
0.7642800358765037,1.4284541394498724,1201,20,21.5615787759793,30.351294936567523
0.7785609826241954,1.4284398582107598,1201,20,21.5615787759793,30.351294936567523
0.7928417829465564,1.4284255771187093,1201,20,21.5615787759793,30.351294936567523
0.8071224371258436,1.4284112961733897,1201,20,21.5615787759793,30.351294936567523
0.8214029454227074,1.4283970153744954,1201,20,21.5615787759793,30.351294936567523
0.8356833080778517,1.4283827347217444,1201,20,21.5615787759793,30.351294936567523
0.8499635253135711,1.4283684542148756,1201,20,21.5615787759793,30.351294936567523
0.8642435973351658,1.4283541738536485,1201,20,21.5615787759793,30.351294936567523
0.8785235243322499,1.4283398936378406,1201,20,21.5615787759793,30.351294936567523
0.8928033064799583,1.428325613567247,1201,20,21.5615787759793,30.351294936567523
0.9070829439400602,1.4283113336416782,1201,20,21.5615787759793,30.351294936567523
0.9213624368619878,1.4282970538609585,1201,20,21.5615787759793,30.351294936567523
0.9356417853837861,1.4282827742249262,1201,20,21.5615787759793,30.351294936567523
0.949920989632988,1.4282684947334323,1201,20,21.5615787759793,30.351294936567523
0.9642000497274235,1.4282542153863385,1201,20,21.5615787759793,30.351294936567523
0.9784789657759668,1.4282399361835172,1201,20,21.5615787759793,30.351294936567523
0.9927577378792246,1.4282256571248508,1201,20,21.5615787759793,30.351294936567523
1.007036366130173,1.4282113782102301,1201,20,21.5615787759793,30.351294936567523
1.021314850614744,1.4281970994395548,1201,20,21.5615787759793,30.351294936567523
1.0355931914123668,1.4281828208127318,1201,20,21.5615787759793,30.351294936567523
1.0498713885964706,1.428168542329675,1201,20,21.5615787759793,30.351294936567523
1.0641494422349433,1.4281542639903053,1201,20,21.5615787759793,30.351294936567523
1.07842735239056,1.428139985794549,1201,20,21.5615787759793,30.351294936567523
1.0927051191213752,1.4281257077423384,1201,20,21.5615787759793,30.351294936567523
1.1069827424810863,1.4281114298336106,1201,20,21.5615787759793,30.351294936567523
1.1212602225193686,1.4280971520683077,1201,20,21.5615787759793,30.351294936567523
1.1355375592821866,1.4280828744463756,1201,20,21.5615787759793,30.351294936567523
1.1498147528120761,1.4280685969677651,1201,20,21.5615787759793,30.351294936567523
1.164091803148411,1.42805431963243,1201,20,21.5615787759793,30.351294936567523
1.1783687103276457,1.428040042440328,1201,20,21.5615787759793,30.351294936567523
1.1926454743835389,1.4280257653914195,1201,20,21.5615787759793,30.351294936567523
1.2069220953473614,1.4280114884856678,1201,20,21.5615787759793,30.351294936567523
1.2211985732480888,1.4279972117230397,1201,20,21.5615787759793,30.351294936567523
1.235474908112576,1.4279829351035036,1201,20,21.5615787759793,30.351294936567523
1.249751099965722,1.4279686586270304,1201,20,21.5615787759793,30.351294936567523
1.2640271488306198,1.4279543822935936,1201,20,21.5615787759793,30.351294936567523
1.2783030547286955,1.4279401061031682,1201,20,21.5615787759793,30.351294936567523
1.2925788176798356,1.427925830055731,1201,20,21.5615787759793,30.351294936567523
1.306854437702507,1.4279115541512604,1201,20,21.5615787759793,30.351294936567523
1.321129914813866,1.4278972783897368,1201,20,21.5615787759793,30.351294936567523
1.3354052490298574,1.4278830027711418,1201,20,21.5615787759793,30.351294936567523
1.3496804403653095,1.427868727295458,1201,20,21.5615787759793,30.351294936567523
1.3639554888340197,1.4278544519626697,1201,20,21.5615787759793,30.351294936567523
1.378230394448833,1.4278401767727618,1201,20,21.5615787759793,30.351294936567523
1.3925051572217169,1.4278259017257204,1201,20,21.5615787759793,30.351294936567523
1.4067797771638266,1.4278116268215333,1201,20,21.5615787759793,30.351294936567523
1.42105425428557,1.4277973520601879,1201,20,21.5615787759793,30.351294936567523
1.4353285885966631,1.4277830774416733,1201,20,21.5615787759793,30.351294936567523
1.4496027801061835,1.427768802965979,1201,20,21.5615787759793,30.351294936567523
1.463876828822622,1.4277545286330953,1201,20,21.5615787759793,30.351294936567523
1.4781507347539249,1.4277402544430133,1201,20,21.5615787759793,30.351294936567523
1.4924244979075367,1.4277259803957243,1201,20,21.5615787759793,30.351294936567523
1.5066981182904382,1.4277117064912204,1201,20,21.5615787759793,30.351294936567523
1.520971595909185,1.4276974327294942,1201,20,21.5615787759793,30.351294936567523
1.5352449307699354,1.4276831591105386,1201,20,21.5615787759793,30.351294936567523
1.5495181228784856,1.4276688856343474,1201,20,21.5615787759793,30.351294936567523
1.563791172240294,1.427654612300914,1201,20,21.5615787759793,30.351294936567523
1.5780640788605107,1.4276403391102326,1201,20,21.5615787759793,30.351294936567523
1.592336842743998,1.4276260660622981,1201,20,21.5615787759793,30.351294936567523
1.6066094638953539,1.4276117931571053,1201,20,21.5615787759793,30.351294936567523
1.6208819423189327,1.4275975203946492,1201,20,21.5615787759793,30.351294936567523
1.6351542780188628,1.427583247774925,1201,20,21.5615787759793,30.351294936567523
1.6494264709990658,1.4275689752979288,1201,20,21.5615787759793,30.351294936567523
1.6636985212632707,1.4275547029636562,1201,20,21.5615787759793,30.351294936567523
1.6779704288150292,1.4275404307721031,1201,20,21.5615787759793,30.351294936567523
1.6922421936577292,1.4275261587232662,1201,20,21.5615787759793,30.351294936567523
1.7065138157946094,1.4275118868171417,1201,20,21.5615787759793,30.351294936567523
1.7207852952287666,1.4274976150537262,1201,20,21.5615787759793,30.351294936567523
1.7350566319631708,1.4274833434330165,1201,20,21.5615787759793,30.351294936567523
1.749327826000672,1.4274690719550094,1201,20,21.5615787759793,30.351294936567523
1.763598877344012,1.4274548006197023,1201,20,21.5615787759793,30.351294936567523
1.7778697859958303,1.4274405294270918,1201,20,21.5615787759793,30.351294936567523
1.7921405519586737,1.4274262583771757,1201,20,21.5615787759793,30.351294936567523
1.8064111752350025,1.427411987469951,1201,20,21.5615787759793,30.351294936567523
1.8206816558271972,1.4273977167054153,1201,20,21.5615787759793,30.351294936567523
1.8349519937375653,1.427383446083566,1201,20,21.5615787759793,30.351294936567523
1.8492221889683464,1.427369175604401,1201,20,21.5615787759793,30.351294936567523
1.8634922415217174,1.4273549052679175,1201,20,21.5615787759793,30.351294936567523
1.8777621513997975,1.4273406350741138,1201,20,21.5615787759793,30.351294936567523
1.8920319186046528,1.4273263650229875,1201,20,21.5615787759793,30.351294936567523
1.9063015431382992,1.4273120951145364,1201,20,21.5615787759793,30.351294936567523
1.9205710250027086,1.4272978253487585,1201,20,21.5615787759793,30.351294936567523
1.9348403641998102,1.427283555725652,1201,20,21.5615787759793,30.351294936567523
1.9491095607314943,1.4272692862452145,1201,20,21.5615787759793,30.351294936567523
1.963378614599616,1.4272550169074443,1201,20,21.5615787759793,30.351294936567523
1.977647525805997,1.4272407477123397,1201,20,21.5615787759793,30.351294936567523
1.9919162943524282,1.4272264786598985,1201,20,21.5615787759793,30.351294936567523
2.0061849202406736,1.427212209750119,1201,20,21.5615787759793,30.351294936567523
2.0204534034724704,1.4271979409829993,1201,20,21.5615787759793,30.351294936567523
2.034721744049532,1.427183672358538,1201,20,21.5615787759793,30.351294936567523
2.048989941973549,1.427169403876733,1201,20,21.5615787759793,30.351294936567523
2.0632579972461933,1.4271551355375829,1201,20,21.5615787759793,30.351294936567523
2.0775259098691152,1.4271408673410857,1201,20,21.5615787759793,30.351294936567523
2.091793679843952,1.42712659928724,1201,20,21.5615787759793,30.351294936567523
2.1060613071723195,1.4271123313760439,1201,20,21.5615787759793,30.351294936567523
2.120328791855823,1.427098063607496,1201,20,21.5615787759793,30.351294936567523
2.134596133896052,1.4270837959815943,1201,20,21.5615787759793,30.351294936567523
2.1488633332945843,1.4270695284983375,1201,20,21.5615787759793,30.351294936567523
2.1631303900529857,1.427055261157724,1201,20,21.5615787759793,30.351294936567523
2.1773973041728114,1.4270409939597524,1201,20,21.5615787759793,30.351294936567523
2.1916640756556056,1.4270267269044206,1201,20,21.5615787759793,30.351294936567523
2.205930704502905,1.4270124599917275,1201,20,21.5615787759793,30.351294936567523
2.220197190716236,1.4269981932216715,1201,20,21.5615787759793,30.351294936567523
2.2344635342971197,1.4269839265942508,1201,20,21.5615787759793,30.351294936567523
2.2487297352470677,1.4269696601094641,1201,20,21.5615787759793,30.351294936567523
2.262995793567585,1.42695539376731,1201,20,21.5615787759793,30.351294936567523
2.277261709260173,1.4269411275677866,1201,20,21.5615787759793,30.351294936567523
2.2915274823263236,1.4269268615108928,1201,20,21.5615787759793,30.351294936567523
2.3057931127675273,1.4269125955966269,1201,20,21.5615787759793,30.351294936567523
2.3200586005852664,1.4268983298249873,1201,20,21.5615787759793,30.351294936567523
2.3343239457810214,1.4268840641959726,1201,20,21.5615787759793,30.351294936567523
2.3485891483562664,1.4268697987095815,1201,20,21.5615787759793,30.351294936567523
2.3628542083124735,1.4268555333658124,1201,20,21.5615787759793,30.351294936567523
2.377119125651111,1.4268412681646636,1201,20,21.5615787759793,30.351294936567523
2.391383900373642,1.4268270031061339,1201,20,21.5615787759793,30.351294936567523
2.40564853248153,1.4268127381902218,1201,20,21.5615787759793,30.351294936567523
2.4199130219762326,1.426798473416926,1201,20,21.5615787759793,30.351294936567523
2.4341773688592068,1.4267842087862443,1201,20,21.5615787759793,30.351294936567523
2.4484415731319062,1.4267699442981763,1201,20,21.5615787759793,30.351294936567523
2.4627056347957823,1.4267556799527197,1201,20,21.5615787759793,30.351294936567523
2.476969553852286,1.4267414157498735,1201,20,21.5615787759793,30.351294936567523
2.4912333303028635,1.426727151689636,1201,20,21.5615787759793,30.351294936567523
2.5054969641489624,1.4267128877720059,1201,20,21.5615787759793,30.351294936567523
2.519760455392027,1.4266986239969817,1201,20,21.5615787759793,30.351294936567523
2.5340238040334997,1.426684360364562,1201,20,21.5615787759793,30.351294936567523
2.5482870100748225,1.4266700968747452,1201,20,21.5615787759793,30.351294936567523
2.5625500735174356,1.4266558335275301,1201,20,21.5615787759793,30.351294936567523
2.57681299436278,1.4266415703229152,1201,20,21.5615787759793,30.351294936567523
2.5910757726122924,1.426627307260899,1201,20,21.5615787759793,30.351294936567523
2.605338408267411,1.42661304434148,1201,20,21.5615787759793,30.351294936567523
2.6196009013295716,1.4265987815646568,1201,20,21.5615787759793,30.351294936567523
2.6338632518002094,1.4265845189304278,1201,20,21.5615787759793,30.351294936567523
2.6481254596807604,1.426570256438792,1201,20,21.5615787759793,30.351294936567523
2.6623875249726576,1.4265559940897476,1201,20,21.5615787759793,30.351294936567523
2.676649447677334,1.4265417318832934,1201,20,21.5615787759793,30.351294936567523
2.690911227796224,1.4265274698194277,1201,20,21.5615787759793,30.351294936567523
2.7051728653307583,1.4265132078981493,1201,20,21.5615787759793,30.351294936567523
2.71943436028237,1.4264989461194566,1201,20,21.5615787759793,30.351294936567523
2.7336957126524886,1.426484684483348,1201,20,21.5615787759793,30.351294936567523
2.7479569224425453,1.4264704229898229,1201,20,21.5615787759793,30.351294936567523
2.762217989653971,1.426456161638879,1201,20,21.5615787759793,30.351294936567523
2.776478914288196,1.4264419004305149,1201,20,21.5615787759793,30.351294936567523
2.790739696346649,1.4264276393647295,1201,20,21.5615787759793,30.351294936567523
2.8050003358307585,1.4264133784415216,1201,20,21.5615787759793,30.351294936567523
2.819260832741955,1.4263991176608892,1201,20,21.5615787759793,30.351294936567523
2.833521187081666,1.4263848570228312,1201,20,21.5615787759793,30.351294936567523
2.84778139885132,1.426370596527346,1201,20,21.5615787759793,30.351294936567523
2.8620414680523463,1.4263563361744325,1201,20,21.5615787759793,30.351294936567523
2.876301394686171,1.4263420759640888,1201,20,21.5615787759793,30.351294936567523
2.8905611787542247,1.4263278158963137,1201,20,21.5615787759793,30.351294936567523
2.9048208202579318,1.426313555971106,1201,20,21.5615787759793,30.351294936567523
2.91908031919872,1.426299296188464,1201,20,21.5615787759793,30.351294936567523
2.933339675578018,1.4262850365483861,1201,20,21.5615787759793,30.351294936567523
2.9475988893972516,1.4262707770508714,1201,20,21.5615787759793,30.351294936567523
2.961857960657849,1.426256517695918,1201,20,21.5615787759793,30.351294936567523
2.9761168893612346,1.4262422584835248,1201,20,21.5615787759793,30.351294936567523
2.990375675508837,1.4262279994136902,1201,20,21.5615787759793,30.351294936567523
3.0046343191020823,1.4262137404864126,1201,20,21.5615787759793,30.351294936567523
3.018892820142396,1.426199481701691,1201,20,21.5615787759793,30.351294936567523
3.033151178631205,1.4261852230595236,1201,20,21.5615787759793,30.351294936567523
3.0474093945699354,1.4261709645599092,1201,20,21.5615787759793,30.351294936567523
3.0616674679600133,1.4261567062028462,1201,20,21.5615787759793,30.351294936567523
3.0759253988028648,1.4261424479883333,1201,20,21.5615787759793,30.351294936567523
3.090183187099916,1.4261281899163691,1201,20,21.5615787759793,30.351294936567523
3.104440832852592,1.426113931986952,1201,20,21.5615787759793,30.351294936567523
3.118698336062319,1.4260996742000809,1201,20,21.5615787759793,30.351294936567523
3.132955696730522,1.426085416555754,1201,20,21.5615787759793,30.351294936567523
3.147212914858627,1.42607115905397,1201,20,21.5615787759793,30.351294936567523
3.161469990448061,1.4260569016947275,1201,20,21.5615787759793,30.351294936567523
3.1757269235002474,1.4260426444780252,1201,20,21.5615787759793,30.351294936567523
3.189983714016613,1.4260283874038615,1201,20,21.5615787759793,30.351294936567523
3.2042403619985826,1.4260141304722351,1201,20,21.5615787759793,30.351294936567523
3.2184968674475822,1.4259998736831443,1201,20,21.5615787759793,30.351294936567523
3.232753230365037,1.425985617036588,1201,20,21.5615787759793,30.351294936567523
3.2470094507523717,1.4259713605325648,1201,20,21.5615787759793,30.351294936567523
3.2612655286110117,1.425957104171073,1201,20,21.5615787759793,30.351294936567523
3.2755214639423826,1.4259428479521112,1201,20,21.5615787759793,30.351294936567523
3.28977725674791,1.4259285918756783,1201,20,21.5615787759793,30.351294936567523
3.3040329070290175,1.4259143359417725,1201,20,21.5615787759793,30.351294936567523
3.318288414787131,1.4259000801503927,1201,20,21.5615787759793,30.351294936567523
3.3325437800236766,1.4258858245015371,1201,20,21.5615787759793,30.351294936567523
3.3467990027400787,1.4258715689952046,1201,20,21.5615787759793,30.351294936567523
3.3610540829377618,1.4258573136313937,1201,20,21.5615787759793,30.351294936567523
3.3753090206181517,1.4258430584101027,1201,20,21.5615787759793,30.351294936567523
3.389563815782673,1.4258288033313307,1201,20,21.5615787759793,30.351294936567523
3.4038184684327497,1.4258145483950757,1201,20,21.5615787759793,30.351294936567523
3.4180729785698087,1.4258002936013368,1201,20,21.5615787759793,30.351294936567523
3.4323273461952737,1.4257860389501122,1201,20,21.5615787759793,30.351294936567523
