Vout,Iout,Irradiance,Temperature,MaxVoltage,MaxPower
0.0035458659051355273,0.7091799999999999,601,15,21.1851713558892,14.575578320815511
0.010637532148989966,0.7091799999999999,601,15,21.1851713558892,14.575578320815511
0.017729054221048424,0.7091763832160948,601,15,21.1851713558892,14.575578320815511
0.024820406365067296,0.709169291549851,601,15,21.1851713558892,14.575578320815511
0.03191158016345932,0.7091622000281406,601,15,21.1851713558892,14.575578320815511
0.03900258388497083,0.7091551086767057,601,15,21.1851713558892,14.575578320815511
0.04609342516242804,0.7091480175036164,601,15,21.1851713558892,14.575578320815511
0.05318411104150857,0.7091409265006041,601,15,21.1851713558892,14.575578320815511
0.06027464802583909,0.7091338356600357,601,15,21.1851713558892,14.575578320815511
0.06736504211870155,0.7091267449748657,601,15,21.1851713558892,14.575578320815511
0.07445529886153042,0.7091196544385905,601,15,21.1851713558892,14.575578320815511
0.08154542336944809,0.7091125640452067,601,15,21.1851713558892,14.575578320815511
0.08863542036406585,0.709105473789173,601,15,21.1851713558892,14.575578320815511
0.09572529420376136,0.709098383665374,601,15,21.1851713558892,14.575578320815511
0.10281504891162638,0.7090912936690885,601,15,21.1851713558892,14.575578320815511
0.10990468820126412,0.7090842037959578,601,15,21.1851713558892,14.575578320815511
0.11699421550060186,0.709077114041959,601,15,21.1851713558892,14.575578320815511
0.12408363397387136,0.7090700244033783,601,15,21.1851713558892,14.575578320815511
0.13117294654189787,0.709062934876788,601,15,21.1851713558892,14.575578320815511
0.13826215590082827,0.7090558454590236,601,15,21.1851713558892,14.575578320815511
0.14535126453941816,0.7090487561471646,601,15,21.1851713558892,14.575578320815511
0.15244027475498886,0.7090416669385146,601,15,21.1851713558892,14.575578320815511
0.15952918866815682,0.7090345778305849,601,15,21.1851713558892,14.575578320815511
0.16661800823642933,0.7090274888210782,601,15,21.1851713558892,14.575578320815511
0.17370673526675454,0.709020399907874,601,15,21.1851713558892,14.575578320815511
0.1807953714271056,0.7090133110890147,601,15,21.1851713558892,14.575578320815511
0.18788391825717385,0.7090062223626932,601,15,21.1851713558892,14.575578320815511
0.1949723771782387,0.7089991337272417,601,15,21.1851713558892,14.575578320815511
0.2020607495022787,0.7089920451811205,601,15,21.1851713558892,14.575578320815511
0.2091490364403812,0.7089849567229083,601,15,21.1851713558892,14.575578320815511
0.21623723911050505,0.7089778683512932,601,15,21.1851713558892,14.575578320815511
0.22332535854464616,0.7089707800650639,601,15,21.1851713558892,14.575578320815511
0.23041339569545147,0.7089636918631026,601,15,21.1851713558892,14.575578320815511
0.23750135144232443,0.7089566037443773,601,15,21.1851713558892,14.575578320815511
0.24458922659706012,0.7089495157079353,601,15,21.1851713558892,14.575578320815511
0.25167702190904745,0.7089424277528972,601,15,21.1851713558892,14.575578320815511
0.25876473807007067,0.7089353398784513,601,15,21.1851713558892,14.575578320815511
0.2658523757187415,0.7089282520838481,601,15,21.1851713558892,14.575578320815511
0.27293993544459033,0.7089211643683959,601,15,21.1851713558892,14.575578320815511
0.280027417791843,0.708914076731456,601,15,21.1851713558892,14.575578320815511
0.2871148232629057,0.7089069891724389,601,15,21.1851713558892,14.575578320815511
0.2942021523215837,0.7088999016908004,601,15,21.1851713558892,14.575578320815511
0.30128940539605054,0.7088928142860381,601,15,21.1851713558892,14.575578320815511
0.30837658288159014,0.7088857269576881,601,15,21.1851713558892,14.575578320815511
0.31546368514312695,0.7088786397053224,601,15,21.1851713558892,14.575578320815511
0.3225507125175622,0.7088715525285456,601,15,21.1851713558892,14.575578320815511
0.3296376653159298,0.7088644654269928,601,15,21.1851713558892,14.575578320815511
0.33672454382538686,0.7088573784003271,601,15,21.1851713558892,14.575578320815511
0.3438113483110505,0.7088502914482374,601,15,21.1851713558892,14.575578320815511
0.350898079017694,0.7088432045704367,601,15,21.1851713558892,14.575578320815511
0.35798473617131166,0.7088361177666598,601,15,21.1851713558892,14.575578320815511
0.3650713199805641,0.7088290310366617,601,15,21.1851713558892,14.575578320815511
0.37215783063811164,0.7088219443802168,601,15,21.1851713558892,14.575578320815511
0.3792442683218457,0.7088148577971163,601,15,21.1851713558892,14.575578320815511
0.38633063319602473,0.7088077712871673,601,15,21.1851713558892,14.575578320815511
0.3934169254123235,0.7088006848501923,601,15,21.1851713558892,14.575578320815511
0.40050314511080104,0.7087935984860267,601,15,21.1851713558892,14.575578320815511
0.40758929242079467,0.7087865121945192,601,15,21.1851713558892,14.575578320815511
0.41467536746174466,0.7087794259755292,601,15,21.1851713558892,14.575578320815511
0.42176137034395594,0.708772339828928,601,15,21.1851713558892,14.575578320815511
0.42884730116930087,0.7087652537545955,601,15,21.1851713558892,14.575578320815511
0.4359331600318678,0.708758167752422,601,15,21.1851713558892,14.575578320815511
0.4430189470185609,0.7087510818223053,601,15,21.1851713558892,14.575578320815511
0.45010466220965173,0.7087439959641513,601,15,21.1851713558892,14.575578320815511
0.45719030567929037,0.7087369101778732,601,15,21.1851713558892,14.575578320815511
0.46427587749597604,0.7087298244633907,601,15,21.1851713558892,14.575578320815511
0.4713613777229919,0.7087227388206296,601,15,21.1851713558892,14.575578320815511
0.4784468064188069,0.7087156532495215,601,15,21.1851713558892,14.575578320815511
0.48553216363744545,0.708708567750003,601,15,21.1851713558892,14.575578320815511
0.4926174494288296,0.7087014823220158,601,15,21.1851713558892,14.575578320815511
0.49970266383909523,0.7086943969655057,601,15,21.1851713558892,14.575578320815511
0.5067878069108828,0.7086873116804229,601,15,21.1851713558892,14.575578320815511
0.513872878683606,0.7086802264667211,601,15,21.1851713558892,14.575578320815511
0.5209578791937011,0.7086731413243579,601,15,21.1851713558892,14.575578320815511
0.5280428084748549,0.7086660562532937,601,15,21.1851713558892,14.575578320815511
0.5351276665582169,0.7086589712534921,601,15,21.1851713558892,14.575578320815511
0.5422124534725945,0.7086518863249195,601,15,21.1851713558892,14.575578320815511
0.5492971692446331,0.7086448014675446,601,15,21.1851713558892,14.575578320815511
0.5563818138989822,0.7086377166813387,601,15,21.1851713558892,14.575578320815511
0.5634663874584496,0.7086306319662752,601,15,21.1851713558892,14.575578320815511
0.5705508899441423,0.7086235473223292,601,15,21.1851713558892,14.575578320815511
0.5776353213755979,0.7086164627494783,601,15,21.1851713558892,14.575578320815511
0.5847196817709055,0.7086093782477011,601,15,21.1851713558892,14.575578320815511
0.5918039711468165,0.708602293816978,601,15,21.1851713558892,14.575578320815511
0.5988881895188479,0.7085952094572912,601,15,21.1851713558892,14.575578320815511
0.6059723369013778,0.7085881251686237,601,15,21.1851713558892,14.575578320815511
0.6130564133077316,0.7085810409509601,601,15,21.1851713558892,14.575578320815511
0.620140418750265,0.708573956804286,601,15,21.1851713558892,14.575578320815511
0.6272243532404365,0.7085668727285881,601,15,21.1851713558892,14.575578320815511
0.6343082167888782,0.708559788723854,601,15,21.1851713558892,14.575578320815511
0.6413920094054578,0.7085527047900723,601,15,21.1851713558892,14.575578320815511
0.6484757310993391,0.7085456209272322,601,15,21.1851713558892,14.575578320815511
0.6555593818790347,0.708538537135324,601,15,21.1851713558892,14.575578320815511
0.6626429617524572,0.7085314534143385,601,15,21.1851713558892,14.575578320815511
0.6697264707269643,0.7085243697642671,601,15,21.1851713558892,14.575578320815511
0.6768099088094026,0.7085172861851021,601,15,21.1851713558892,14.575578320815511
0.6838932760061457,0.708510202676836,601,15,21.1851713558892,14.575578320815511
0.6909765723231318,0.7085031192394619,601,15,21.1851713558892,14.575578320815511
0.6980597977658971,0.7084960358729735,601,15,21.1851713558892,14.575578320815511
0.7051429523396053,0.7084889525773649,601,15,21.1851713558892,14.575578320815511
0.7122260360490777,0.7084818693526305,601,15,21.1851713558892,14.575578320815511
0.7193090488988191,0.708474786198765,601,15,21.1851713558892,14.575578320815511
0.7263919908930425,0.7084677031157639,601,15,21.1851713558892,14.575578320815511
0.7334748620356908,0.7084606201036224,601,15,21.1851713558892,14.575578320815511
0.740557662330458,0.7084535371623366,601,15,21.1851713558892,14.575578320815511
0.7476403917808084,0.7084464542919022,601,15,21.1851713558892,14.575578320815511
0.7547230503899943,0.7084393714923157,601,15,21.1851713558892,14.575578320815511
0.7618056381610723,0.7084322887635737,601,15,21.1851713558892,14.575578320815511
0.7688881550969182,0.7084252061056728,601,15,21.1851713558892,14.575578320815511
0.7759706012002409,0.70841812351861,601,15,21.1851713558892,14.575578320815511
0.7830529764735953,0.7084110410023824,601,15,21.1851713558892,14.575578320815511
0.7901352809193942,0.7084039585569873,601,15,21.1851713558892,14.575578320815511
0.7972175145399193,0.7083968761824222,601,15,21.1851713558892,14.575578320815511
0.8042996773373315,0.7083897938786847,601,15,21.1851713558892,14.575578320815511
0.8113817693136794,0.7083827116457724,601,15,21.1851713558892,14.575578320815511
0.8184637904709089,0.7083756294836832,601,15,21.1851713558892,14.575578320815511
0.8255457408108698,0.7083685473924151,601,15,21.1851713558892,14.575578320815511
0.8326276203353249,0.7083614653719661,601,15,21.1851713558892,14.575578320815511
0.8397094290459557,0.7083543834223344,601,15,21.1851713558892,14.575578320815511
0.8467911669443684,0.7083473015435181,601,15,21.1851713558892,14.575578320815511
0.8538728340321003,0.7083402197355156,601,15,21.1851713558892,14.575578320815511
0.860954430310625,0.7083331379983254,601,15,21.1851713558892,14.575578320815511
0.8680359557813568,0.7083260563319459,601,15,21.1851713558892,14.575578320815511
0.875117410445656,0.7083189747363755,601,15,21.1851713558892,14.575578320815511
0.8821987943048327,0.7083118932116129,601,15,21.1851713558892,14.575578320815511
0.8892801073601504,0.7083048117576568,601,15,21.1851713558892,14.575578320815511
0.8963613496128298,0.7082977303745057,601,15,21.1851713558892,14.575578320815511
0.9034425210640521,0.7082906490621586,601,15,21.1851713558892,14.575578320815511
0.9105236217149628,0.7082835678206141,601,15,21.1851713558892,14.575578320815511
0.9176046515666726,0.708276486649871,601,15,21.1851713558892,14.575578320815511
0.9246856106202621,0.7082694055499281,601,15,21.1851713558892,14.575578320815511
0.9317664988767828,0.7082623245207846,601,15,21.1851713558892,14.575578320815511
0.9388473163372596,0.7082552435624391,601,15,21.1851713558892,14.575578320815511
0.9459280630026934,0.7082481626748907,601,15,21.1851713558892,14.575578320815511
0.9530087388740627,0.7082410818581383,601,15,21.1851713558892,14.575578320815511
0.9600893439523239,0.7082340011121809,601,15,21.1851713558892,14.575578320815511
0.9671698782384158,0.7082269204370176,601,15,21.1851713558892,14.575578320815511
0.9742503417332588,0.7082198398326475,601,15,21.1851713558892,14.575578320815511
0.9813307344377564,0.7082127592990695,601,15,21.1851713558892,14.575578320815511
0.9884110563527979,0.7082056788362827,601,15,21.1851713558892,14.575578320815511
0.9954913074792584,0.7081985984442862,601,15,21.1851713558892,14.575578320815511
1.0025714878179999,0.7081915181230792,601,15,21.1851713558892,14.575578320815511
1.0096515973698719,0.7081844378726608,601,15,21.1851713558892,14.575578320815511
1.0167316361357144,0.7081773576930301,601,15,21.1851713558892,14.575578320815511
1.0238116041163565,0.7081702775841863,601,15,21.1851713558892,14.575578320815511
1.0308915013126174,0.7081631975461284,601,15,21.1851713558892,14.575578320815511
1.0379713277253089,0.7081561175788558,601,15,21.1851713558892,14.575578320815511
1.0450510833552336,0.7081490376823676,601,15,21.1851713558892,14.575578320815511
1.0521307682031873,0.7081419578566629,601,15,21.1851713558892,14.575578320815511
1.0592103822699594,0.7081348781017409,601,15,21.1851713558892,14.575578320815511
1.0662899255563323,0.708127798417601,601,15,21.1851713558892,14.575578320815511
1.073369398063083,0.7081207188042421,601,15,21.1851713558892,14.575578320815511
1.080448799790983,0.7081136392616637,601,15,21.1851713558892,14.575578320815511
1.0875281307407993,0.7081065597898649,601,15,21.1851713558892,14.575578320815511
1.094607390913294,0.708099480388845,601,15,21.1851713558892,14.575578320815511
1.1016865803092248,0.7080924010586032,601,15,21.1851713558892,14.575578320815511
1.1087656989293462,0.7080853217991386,601,15,21.1851713558892,14.575578320815511
1.115844746774408,0.7080782426104506,601,15,21.1851713558892,14.575578320815511
1.1229237238451577,0.7080711634925384,601,15,21.1851713558892,14.575578320815511
1.1300026301423396,0.7080640844454013,601,15,21.1851713558892,14.575578320815511
1.1370814656666948,0.7080570054690384,601,15,21.1851713558892,14.575578320815511
1.1441602304189618,0.7080499265634491,601,15,21.1851713558892,14.575578320815511
1.151238924399877,0.7080428477286327,601,15,21.1851713558892,14.575578320815511
1.1583175476101746,0.7080357689645883,601,15,21.1851713558892,14.575578320815511
1.1653961000505866,0.7080286902713153,601,15,21.1851713558892,14.575578320815511
1.1724745817218432,0.7080216116488128,601,15,21.1851713558892,14.575578320815511
1.1795529926246724,0.7080145330970803,601,15,21.1851713558892,14.575578320815511
1.1866313327598013,0.7080074546161169,601,15,21.1851713558892,14.575578320815511
1.1937096021279552,0.7080003762059219,601,15,21.1851713558892,14.575578320815511
1.2007878007298578,0.7079932978664947,601,15,21.1851713558892,14.575578320815511
1.2078659285662319,0.7079862195978344,601,15,21.1851713558892,14.575578320815511
1.214943985637799,0.7079791413999402,601,15,21.1851713558892,14.575578320815511
1.2220219719452794,0.7079720632728117,601,15,21.1851713558892,14.575578320815511
1.2290998874893924,0.707964985216448,601,15,21.1851713558892,14.575578320815511
1.2361777322708565,0.7079579072308483,601,15,21.1851713558892,14.575578320815511
1.2432555062903898,0.707950829316012,601,15,21.1851713558892,14.575578320815511
1.2503332095487085,0.7079437514719383,601,15,21.1851713558892,14.575578320815511
1.2574108420465286,0.7079366736986266,601,15,21.1851713558892,14.575578320815511
1.2644884037845656,0.7079295959960761,601,15,21.1851713558892,14.575578320815511
1.2715658947635347,0.707922518364286,601,15,21.1851713558892,14.575578320815511
1.2786433149841503,0.7079154408032557,601,15,21.1851713558892,14.575578320815511
1.2857206644471253,0.7079083633129846,601,15,21.1851713558892,14.575578320815511
1.292797943153173,0.7079012858934717,601,15,21.1851713558892,14.575578320815511
1.299875151103007,0.7078942085447165,601,15,21.1851713558892,14.575578320815511
1.306952288297339,0.7078871312667182,601,15,21.1851713558892,14.575578320815511
1.3140293547368809,0.7078800540594761,601,15,21.1851713558892,14.575578320815511
1.3211063504223444,0.7078729769229894,601,15,21.1851713558892,14.575578320815511
1.3281832753544407,0.7078658998572577,601,15,21.1851713558892,14.575578320815511
1.335260129533881,0.7078588228622799,601,15,21.1851713558892,14.575578320815511
1.342336912961376,0.7078517459380554,601,15,21.1851713558892,14.575578320815511
1.3494136256376357,0.7078446690845838,601,15,21.1851713558892,14.575578320815511
1.3564902675633703,0.7078375923018639,601,15,21.1851713558892,14.575578320815511
1.3635668387392899,0.7078305155898954,601,15,21.1851713558892,14.575578320815511
1.3706433391661044,0.7078234389486773,601,15,21.1851713558892,14.575578320815511
1.377719768844523,0.7078163623782091,601,15,21.1851713558892,14.575578320815511
1.3847961277752552,0.7078092858784899,601,15,21.1851713558892,14.575578320815511
1.3918724159590103,0.7078022094495192,601,15,21.1851713558892,14.575578320815511
1.3989486333964976,0.707795133091296,601,15,21.1851713558892,14.575578320815511
1.4060247800884254,0.70778805680382,601,15,21.1851713558892,14.575578320815511
1.4131008560355027,0.7077809805870902,601,15,21.1851713558892,14.575578320815511
1.4201768612384384,0.7077739044411058,601,15,21.1851713558892,14.575578320815511
1.427252795697941,0.7077668283658664,601,15,21.1851713558892,14.575578320815511
1.4343286594147189,0.707759752361371,601,15,21.1851713558892,14.575578320815511
1.4414044523894798,0.7077526764276192,601,15,21.1851713558892,14.575578320815511
1.4484801746229328,0.70774560056461,601,15,21.1851713558892,14.575578320815511
1.4555558261157855,0.7077385247723428,601,15,21.1851713558892,14.575578320815511
1.4626314068687463,0.707731449050817,601,15,21.1851713558892,14.575578320815511
1.4697069168825236,0.7077243734000317,601,15,21.1851713558892,14.575578320815511
1.476782356157825,0.7077172978199863,601,15,21.1851713558892,14.575578320815511
1.4838577246953577,0.70771022231068,601,15,21.1851713558892,14.575578320815511
1.4909330224958306,0.7077031468721123,601,15,21.1851713558892,14.575578320815511
1.498008249559951,0.7076960715042824,601,15,21.1851713558892,14.575578320815511
1.5050834058884262,0.7076889962071894,601,15,21.1851713558892,14.575578320815511
1.5121584914819644,0.7076819209808328,601,15,21.1851713558892,14.575578320815511
1.519233506341273,0.7076748458252119,601,15,21.1851713558892,14.575578320815511
1.52630845046706,0.7076677707403258,601,15,21.1851713558892,14.575578320815511
1.5333833238600327,0.7076606957261741,601,15,21.1851713558892,14.575578320815511
1.5404581265208985,0.7076536207827557,601,15,21.1851713558892,14.575578320815511
1.5475328584503647,0.7076465459100704,601,15,21.1851713558892,14.575578320815511
1.554607519649139,0.707639471108117,601,15,21.1851713558892,14.575578320815511
1.5616821101179288,0.707632396376895,601,15,21.1851713558892,14.575578320815511
1.5687566298574418,0.7076253217164037,601,15,21.1851713558892,14.575578320815511
1.575831078868385,0.7076182471266423,601,15,21.1851713558892,14.575578320815511
1.5829054571514656,0.7076111726076103,601,15,21.1851713558892,14.575578320815511
1.5899797647073912,0.7076040981593068,601,15,21.1851713558892,14.575578320815511
1.5970540015368693,0.7075970237817312,601,15,21.1851713558892,14.575578320815511
1.6041281676406065,0.7075899494748827,601,15,21.1851713558892,14.575578320815511
1.6112022630193108,0.7075828752387606,601,15,21.1851713558892,14.575578320815511
1.618276287673689,0.7075758010733644,601,15,21.1851713558892,14.575578320815511
1.6253502416044483,0.7075687269786931,601,15,21.1851713558892,14.575578320815511
1.6324241248122957,0.7075616529547462,601,15,21.1851713558892,14.575578320815511
1.639497937297939,0.7075545790015227,601,15,21.1851713558892,14.575578320815511
1.6465716790620848,0.7075475051190223,601,15,21.1851713558892,14.575578320815511
1.6536453501054402,0.7075404313072441,601,15,21.1851713558892,14.575578320815511
1.660718950428713,0.7075333575661873,601,15,21.1851713558892,14.575578320815511
1.6677924800326094,0.7075262838958514,601,15,21.1851713558892,14.575578320815511
1.674865938917837,0.7075192102962354,601,15,21.1851713558892,14.575578320815511
1.681939327085103,0.7075121367673389,601,15,21.1851713558892,14.575578320815511
1.6890126445351148,0.7075050633091611,601,15,21.1851713558892,14.575578320815511
1.696085891268579,0.7074979899217011,601,15,21.1851713558892,14.575578320815511
1.7031590672862027,0.7074909166049584,601,15,21.1851713558892,14.575578320815511
1.7102321725886924,0.7074838433589323,601,15,21.1851713558892,14.575578320815511
1.7173052071767563,0.7074767701836221,601,15,21.1851713558892,14.575578320815511
