Vout,Iout,Irradiance,Temperature,MaxVoltage,MaxPower
5.949942789011644e-06,0.0011899999999999999,1,20,0.2156704710380127,0.0002101382892004594
1.7849718346961364e-05,0.0011899999999999999,1,20,0.2156704710380127,0.0002101382892004594
2.974925198545873e-05,0.0011899939310572108,1,20,0.2156704710380127,0.0002101382892004594
4.16485004856737e-05,0.0011899820312816529,1,20,0.2156704710380127,0.0002101382892004594
5.3547449722942806e-05,0.0011899701317486214,1,20,0.2156704710380127,0.0002101382892004594
6.544611357217532e-05,0.001189958232501311,1,20,0.2156704710380127,0.0002101382892004594
7.734450484121005e-05,0.0011899463335532637,1,20,0.2156704710380127,0.0002101382892004594
8.924263535265402e-05,0.0011899344348906043,1,20,0.2156704710380127,0.0002101382892004594
0.00010114051601955567,0.0011899225365005254,1,20,0.2156704710380127,0.0002101382892004594
0.0001130381569153879,0.0011899106383712037,1,20,0.2156704710380127,0.0002101382892004594
0.00012493556733864626,0.0011898987404917267,1,20,0.2156704710380127,0.0002101382892004594
0.00013683275587247692,0.0011898868428520206,1,20,0.2156704710380127,0.0002101382892004594
0.00014872973043971677,0.0011898749454427873,1,20,0.2156704710380127,0.0002101382892004594
0.00016062649835369862,0.001189863048255443,1,20,0.2156704710380127,0.0002101382892004594
0.0001725230663651476,0.0011898511512820657,1,20,0.2156704710380127,0.0002101382892004594
0.00018441944070546866,0.0011898392545153414,1,20,0.2156704710380127,0.0002101382892004594
0.00019631562712670437,0.0011898273579485196,1,20,0.2156704710380127,0.0002101382892004594
0.0002082116309384175,0.001189815461575369,1,20,0.2156704710380127,0.0002101382892004594
0.00022010745704173617,0.0011898035653901374,1,20,0.2156704710380127,0.0002101382892004594
0.00023200310996077952,0.0011897916693875152,1,20,0.2156704710380127,0.0002101382892004594
0.0002438985938716653,0.0011897797735626015,1,20,0.2156704710380127,0.0002101382892004594
0.00025579391262928566,0.0011897678779108722,1,20,0.2156704710380127,0.0002101382892004594
0.00026768906979202263,0.0011897559824281508,1,20,0.2156704710380127,0.0002101382892004594
0.0002795840686445626,0.0011897440871105828,1,20,0.2156704710380127,0.0002101382892004594
0.0002914789122189541,0.0011897321919546095,1,20,0.2156704710380127,0.0002101382892004594
0.00030337360331404674,0.0011897202969569467,1,20,0.2156704710380127,0.0002101382892004594
0.00031526814451343356,0.0011897084021145617,1,20,0.2156704710380127,0.0002101382892004594
0.0003271625382020136,0.0011896965074246562,1,20,0.2156704710380127,0.0002101382892004594
0.00033905678658127913,0.0011896846128846461,1,20,0.2156704710380127,0.0002101382892004594
0.000350950891683428,0.0011896727184921472,1,20,0.2156704710380127,0.0002101382892004594
0.0003628448553843888,0.0011896608242449574,1,20,0.2156704710380127,0.0002101382892004594
0.00037473867941584477,0.0011896489301410447,1,20,0.2156704710380127,0.0002101382892004594
0.000386632365376332,0.0011896370361785332,1,20,0.2156704710380127,0.0002101382892004594
0.00039852591474148443,0.001189625142355691,1,20,0.2156704710380127,0.0002101382892004594
0.0004104193288734896,0.00118961324867092,1,20,0.2156704710380127,0.0002101382892004594
0.000422312609029818,0.0011896013551227441,1,20,0.2156704710380127,0.0002101382892004594
0.0004342057563712794,0.0011895894617098015,1,20,0.2156704710380127,0.0002101382892004594
0.00044609877196946076,0.0011895775684308346,1,20,0.2156704710380127,0.0002101382892004594
0.0004579916568135909,0.0011895656752846824,1,20,0.2156704710380127,0.0002101382892004594
0.0004698844118168771,0.0011895537822702736,1,20,0.2156704710380127,0.0002101382892004594
0.00048177703782235486,0.0011895418893866187,1,20,0.2156704710380127,0.0002101382892004594
0.0004936695356082862,0.0011895299966328049,1,20,0.2156704710380127,0.0002101382892004594
0.0005055619058931442,0.0011895181040079885,1,20,0.2156704710380127,0.0002101382892004594
0.0005174541493402128,0.0011895062115113918,1,20,0.2156704710380127,0.0002101382892004594
0.0005293462665618334,0.0011894943191422963,1,20,0.2156704710380127,0.0002101382892004594
0.0005412382581233239,0.0011894824269000385,1,20,0.2156704710380127,0.0002101382892004594
0.0005531301245465978,0.0011894705347840061,1,20,0.2156704710380127,0.0002101382892004594
0.0005650218663135031,0.0011894586427936339,1,20,0.2156704710380127,0.0002101382892004594
0.0005769134838689048,0.0011894467509283998,1,20,0.2156704710380127,0.0002101382892004594
0.0005888049776235308,0.001189434859187822,1,20,0.2156704710380127,0.0002101382892004594
0.0006006963479565986,0.0011894229675714558,1,20,0.2156704710380127,0.0002101382892004594
0.0006125875952182394,0.0011894110760788904,1,20,0.2156704710380127,0.0002101382892004594
0.0006244787197317362,0.0011893991847097465,1,20,0.2156704710380127,0.0002101382892004594
0.0006363697217955896,0.001189387293463674,1,20,0.2156704710380127,0.0002101382892004594
0.0006482606016854245,0.0011893754023403497,1,20,0.2156704710380127,0.0002101382892004594
0.0006601513596557498,0.001189363511339475,1,20,0.2156704710380127,0.0002101382892004594
0.0006720419959415845,0.0011893516204607743,1,20,0.2156704710380127,0.0002101382892004594
0.0006839325107599556,0.001189339729703993,1,20,0.2156704710380127,0.0002101382892004594
0.0006958229043112831,0.0011893278390688962,1,20,0.2156704710380127,0.0002101382892004594
0.0007077131767806579,0.001189315948555267,1,20,0.2156704710380127,0.0002101382892004594
0.0007196033283390217,0.0011893040581629046,1,20,0.2156704710380127,0.0002101382892004594
0.0007314933591442543,0.0011892921678916244,1,20,0.2156704710380127,0.0002101382892004594
0.0007433832693421797,0.001189280277741255,1,20,0.2156704710380127,0.0002101382892004594
0.0007552730590674934,0.0011892683877116389,1,20,0.2156704710380127,0.0002101382892004594
0.0007671627284446189,0.00118925649780263,1,20,0.2156704710380127,0.0002101382892004594
0.0007790522775884975,0.0011892446080140936,1,20,0.2156704710380127,0.0002101382892004594
0.0007909417066053183,0.0011892327183459055,1,20,0.2156704710380127,0.0002101382892004594
0.0008028310155931913,0.0011892208287979506,1,20,0.2156704710380127,0.0002101382892004594
0.0008147202046427694,0.0011892089393701227,1,20,0.2156704710380127,0.0002101382892004594
0.0008266092738378218,0.0011891970500623238,1,20,0.2156704710380127,0.0002101382892004594
0.0008384982232557638,0.0011891851608744632,1,20,0.2156704710380127,0.0002101382892004594
0.0008503870529681458,0.001189173271806457,1,20,0.2156704710380127,0.0002101382892004594
0.0008622757630411043,0.001189161382858228,1,20,0.2156704710380127,0.0002101382892004594
0.0008741643535357785,0.0011891494940297045,1,20,0.2156704710380127,0.0002101382892004594
0.0008860528245086951,0.0011891376053208204,1,20,0.2156704710380127,0.0002101382892004594
0.0008979411760121227,0.0011891257167315147,1,20,0.2156704710380127,0.0002101382892004594
0.0009098294080944001,0.0011891138282617306,1,20,0.2156704710380127,0.0002101382892004594
0.0009217175208002377,0.001189101939911416,1,20,0.2156704710380127,0.0002101382892004594
0.0009336055141709977,0.0011890900516805226,1,20,0.2156704710380127,0.0002101382892004594
0.000945493388244951,0.0011890781635690057,1,20,0.2156704710380127,0.0002101382892004594
0.000957381143057515,0.0011890662755768236,1,20,0.2156704710380127,0.0002101382892004594
0.0009692687786414743,0.0011890543877039386,1,20,0.2156704710380127,0.0002101382892004594
0.0009811562950271817,0.0011890424999503148,1,20,0.2156704710380127,0.0002101382892004594
0.0009930436922427463,0.0011890306123159195,1,20,0.2156704710380127,0.0002101382892004594
0.0010049309703142053,0.0011890187248007227,1,20,0.2156704710380127,0.0002101382892004594
0.0010168181292656852,0.001189006837404696,1,20,0.2156704710380127,0.0002101382892004594
0.0010287051691195463,0.001188994950127813,1,20,0.2156704710380127,0.0002101382892004594
0.0010405920898965205,0.0011889830629700504,1,20,0.2156704710380127,0.0002101382892004594
0.0010524788916158362,0.0011889711759313854,1,20,0.2156704710380127,0.0002101382892004594
0.0010643655742953327,0.001188959289011797,1,20,0.2156704710380127,0.0002101382892004594
0.001076252137951569,0.0011889474022112663,1,20,0.2156704710380127,0.0002101382892004594
0.001088138582599922,0.0011889355155297757,1,20,0.2156704710380127,0.0002101382892004594
0.001100024908254675,0.001188923628967308,1,20,0.2156704710380127,0.0002101382892004594
0.0011119111149291057,0.0011889117425238484,1,20,0.2156704710380127,0.0002101382892004594
0.0011237972026355606,0.0011888998561993822,1,20,0.2156704710380127,0.0002101382892004594
0.0011356831713855273,0.0011888879699938964,1,20,0.2156704710380127,0.0002101382892004594
0.0011475690211897014,0.0011888760839073786,1,20,0.2156704710380127,0.0002101382892004594
0.0011594547520580476,0.0011888641979398173,1,20,0.2156704710380127,0.0002101382892004594
0.0011713403639998544,0.0011888523120912018,1,20,0.2156704710380127,0.0002101382892004594
0.0011832258570237876,0.001188840426361522,1,20,0.2156704710380127,0.0002101382892004594
0.0011951112311379363,0.0011888285407507689,1,20,0.2156704710380127,0.0002101382892004594
0.0012069964863498607,0.0011888166552589334,1,20,0.2156704710380127,0.0002101382892004594
0.001218881622666629,0.001188804769886008,1,20,0.2156704710380127,0.0002101382892004594
0.0012307666400948577,0.0011887928846319846,1,20,0.2156704710380127,0.0002101382892004594
0.001242651538640746,0.0011887809994968563,1,20,0.2156704710380127,0.0002101382892004594
0.0012545363183101065,0.0011887691144806165,1,20,0.2156704710380127,0.0002101382892004594
0.0012664209791083964,0.0011887572295832592,1,20,0.2156704710380127,0.0002101382892004594
0.0012783055210407448,0.0011887453448047782,1,20,0.2156704710380127,0.0002101382892004594
0.001290189944111977,0.0011887334601451685,1,20,0.2156704710380127,0.0002101382892004594
0.0013020742483266388,0.0011887215756044246,1,20,0.2156704710380127,0.0002101382892004594
0.0013139584336890177,0.0011887096911825418,1,20,0.2156704710380127,0.0002101382892004594
0.001325842500203162,0.0011886978068795157,1,20,0.2156704710380127,0.0002101382892004594
0.0013377264478729,0.0011886859226953417,1,20,0.2156704710380127,0.0002101382892004594
0.001349610276701858,0.001188674038630016,1,20,0.2156704710380127,0.0002101382892004594
0.0013614939866934737,0.0011886621546835347,1,20,0.2156704710380127,0.0002101382892004594
0.0013733775778510121,0.0011886502708558942,1,20,0.2156704710380127,0.0002101382892004594
0.0013852610501775778,0.001188638387147091,1,20,0.2156704710380127,0.0002101382892004594
0.0013971444036761278,0.0011886265035571217,1,20,0.2156704710380127,0.0002101382892004594
0.001409027638349484,0.0011886146200859836,1,20,0.2156704710380127,0.0002101382892004594
0.0014209107542003413,0.0011886027367336734,1,20,0.2156704710380127,0.0002101382892004594
0.0014327937512312802,0.0011885908535001883,1,20,0.2156704710380127,0.0002101382892004594
0.0014446766294447721,0.0011885789703855259,1,20,0.2156704710380127,0.0002101382892004594
0.0014565593888431914,0.0011885670873896833,1,20,0.2156704710380127,0.0002101382892004594
0.0014684420294288198,0.001188555204512658,1,20,0.2156704710380127,0.0002101382892004594
0.0014803245512038559,0.001188543321754448,1,20,0.2156704710380127,0.0002101382892004594
0.00149220695417042,0.0011885314391150506,1,20,0.2156704710380127,0.0002101382892004594
0.0015040892383305603,0.0011885195565944637,1,20,0.2156704710380127,0.0002101382892004594
0.0015159714036862596,0.0011885076741926855,1,20,0.2156704710380127,0.0002101382892004594
0.0015278534502394386,0.0011884957919097137,1,20,0.2156704710380127,0.0002101382892004594
0.0015397353779919624,0.0011884839097455462,1,20,0.2156704710380127,0.0002101382892004594
0.0015516171869456436,0.0011884720277001812,1,20,0.2156704710380127,0.0002101382892004594
0.0015634988771022463,0.0011884601457736168,1,20,0.2156704710380127,0.0002101382892004594
0.0015753804484634909,0.0011884482639658515,1,20,0.2156704710380127,0.0002101382892004594
0.0015872619010310566,0.001188436382276883,1,20,0.2156704710380127,0.0002101382892004594
0.0015991432348065847,0.00118842450070671,1,20,0.2156704710380127,0.0002101382892004594
0.0016110244497916817,0.0011884126192553306,1,20,0.2156704710380127,0.0002101382892004594
0.0016229055459879211,0.0011884007379227431,1,20,0.2156704710380127,0.0002101382892004594
0.0016347865233968487,0.0011883888567089463,1,20,0.2156704710380127,0.0002101382892004594
0.0016466673820199804,0.0011883769756139383,1,20,0.2156704710380127,0.0002101382892004594
0.001658548121858807,0.0011883650946377174,1,20,0.2156704710380127,0.0002101382892004594
0.0016704287429147988,0.0011883532137802824,1,20,0.2156704710380127,0.0002101382892004594
0.0016823092451894001,0.0011883413330416317,1,20,0.2156704710380127,0.0002101382892004594
0.001694189628684039,0.0011883294524217636,1,20,0.2156704710380127,0.0002101382892004594
0.0017060698934001234,0.0011883175719206772,1,20,0.2156704710380127,0.0002101382892004594
0.0017179500393390444,0.0011883056915383706,1,20,0.2156704710380127,0.0002101382892004594
0.0017298300665021774,0.0011882938112748426,1,20,0.2156704710380127,0.0002101382892004594
0.0017417099748908837,0.0011882819311300917,1,20,0.2156704710380127,0.0002101382892004594
0.0017535897645065102,0.0011882700511041165,1,20,0.2156704710380127,0.0002101382892004594
0.0017654694353503935,0.0011882581711969158,1,20,0.2156704710380127,0.0002101382892004594
0.0017773489874238566,0.0011882462914084883,1,20,0.2156704710380127,0.0002101382892004594
0.0017892284207282132,0.0011882344117388323,1,20,0.2156704710380127,0.0002101382892004594
0.0018011077352647672,0.0011882225321879468,1,20,0.2156704710380127,0.0002101382892004594
0.0018129869310348134,0.0011882106527558304,1,20,0.2156704710380127,0.0002101382892004594
0.001824866008039638,0.0011881987734424818,1,20,0.2156704710380127,0.0002101382892004594
0.00183674496628052,0.0011881868942478998,1,20,0.2156704710380127,0.0002101382892004594
0.001848623805758731,0.0011881750151720829,1,20,0.2156704710380127,0.0002101382892004594
0.0018605025264755368,0.0011881631362150298,1,20,0.2156704710380127,0.0002101382892004594
0.001872381128432196,0.0011881512573767396,1,20,0.2156704710380127,0.0002101382892004594
0.0018842596116299634,0.0011881393786572108,1,20,0.2156704710380127,0.0002101382892004594
0.001896137976070086,0.001188127500056442,1,20,0.2156704710380127,0.0002101382892004594
0.0019080162217538091,0.0011881156215744321,1,20,0.2156704710380127,0.0002101382892004594
0.0019198943486823715,0.0011881037432111797,1,20,0.2156704710380127,0.0002101382892004594
0.0019317723568570086,0.0011880918649666838,1,20,0.2156704710380127,0.0002101382892004594
0.0019436502462789526,0.0011880799868409433,1,20,0.2156704710380127,0.0002101382892004594
0.0019555280169494312,0.0011880681088339564,1,20,0.2156704710380127,0.0002101382892004594
0.0019674056688696703,0.0011880562309457222,1,20,0.2156704710380127,0.0002101382892004594
0.001979283202040892,0.0011880443531762396,1,20,0.2156704710380127,0.0002101382892004594
0.001991160616464316,0.001188032475525507,1,20,0.2156704710380127,0.0002101382892004594
0.0020030379121411582,0.0011880205979935238,1,20,0.2156704710380127,0.0002101382892004594
0.0020149150890726346,0.001188008720580288,1,20,0.2156704710380127,0.0002101382892004594
0.0020267921472599567,0.0011879968432857988,1,20,0.2156704710380127,0.0002101382892004594
0.0020386690867043363,0.0011879849661100552,1,20,0.2156704710380127,0.0002101382892004594
0.0020505459074069807,0.0011879730890530557,1,20,0.2156704710380127,0.0002101382892004594
0.002062422609369099,0.001187961212114799,1,20,0.2156704710380127,0.0002101382892004594
0.002074299192591894,0.001187949335295284,1,20,0.2156704710380127,0.0002101382892004594
0.002086175657076573,0.0011879374585945096,1,20,0.2156704710380127,0.0002101382892004594
0.002098052002824337,0.0011879255820124745,1,20,0.2156704710380127,0.0002101382892004594
0.0021099282298363874,0.0011879137055491775,1,20,0.2156704710380127,0.0002101382892004594
0.002121804338113925,0.0011879018292046174,1,20,0.2156704710380127,0.0002101382892004594
0.0021336803276581495,0.001187889952978793,1,20,0.2156704710380127,0.0002101382892004594
0.002145556198470259,0.001187878076871703,1,20,0.2156704710380127,0.0002101382892004594
0.0021574319505514522,0.0011878662008833465,1,20,0.2156704710380127,0.0002101382892004594
0.002169307583902925,0.001187854325013722,1,20,0.2156704710380127,0.0002101382892004594
0.002181183098525873,0.0011878424492628283,1,20,0.2156704710380127,0.0002101382892004594
0.002193058494421492,0.0011878305736306644,1,20,0.2156704710380127,0.0002101382892004594
0.002204933771590976,0.0011878186981172292,1,20,0.2156704710380127,0.0002101382892004594
0.00221680893003552,0.001187806822722521,1,20,0.2156704710380127,0.0002101382892004594
0.0022286839697563173,0.001187794947446539,1,20,0.2156704710380127,0.0002101382892004594
0.0022405588907545597,0.0011877830722892822,1,20,0.2156704710380127,0.0002101382892004594
0.0022524336930314407,0.0011877711972507487,1,20,0.2156704710380127,0.0002101382892004594
0.002264308376588153,0.001187759322330938,1,20,0.2156704710380127,0.0002101382892004594
0.0022761829414258876,0.0011877474475298487,1,20,0.2156704710380127,0.0002101382892004594
0.002288057387545835,0.0011877355728474794,1,20,0.2156704710380127,0.0002101382892004594
0.002299931714949187,0.0011877236982838293,1,20,0.2156704710380127,0.0002101382892004594
0.0023118059236371343,0.0011877118238388968,1,20,0.2156704710380127,0.0002101382892004594
0.002323680013610867,0.001187699949512681,1,20,0.2156704710380127,0.0002101382892004594
0.0023355539848715747,0.0011876880753051804,1,20,0.2156704710380127,0.0002101382892004594
0.0023474278374204477,0.001187676201216394,1,20,0.2156704710380127,0.0002101382892004594
0.0023593015712586748,0.0011876643272463207,1,20,0.2156704710380127,0.0002101382892004594
0.0023711751863874464,0.0011876524533949594,1,20,0.2156704710380127,0.0002101382892004594
0.002383048682807951,0.0011876405796623084,1,20,0.2156704710380127,0.0002101382892004594
0.0023949220605213773,0.0011876287060483672,1,20,0.2156704710380127,0.0002101382892004594
0.002406795319528915,0.001187616832553134,1,20,0.2156704710380127,0.0002101382892004594
0.0024186684598317514,0.0011876049591766078,1,20,0.2156704710380127,0.0002101382892004594
0.0024305414814310765,0.0011875930859187877,1,20,0.2156704710380127,0.0002101382892004594
0.002442414384328077,0.0011875812127796722,1,20,0.2156704710380127,0.0002101382892004594
0.0024542871685239425,0.0011875693397592603,1,20,0.2156704710380127,0.0002101382892004594
0.0024661598340198596,0.0011875574668575506,1,20,0.2156704710380127,0.0002101382892004594
0.002478032380817017,0.0011875455940745419,1,20,0.2156704710380127,0.0002101382892004594
0.0024899048089166037,0.0011875337214102334,1,20,0.2156704710380127,0.0002101382892004594
0.0025017771183198046,0.0011875218488646235,1,20,0.2156704710380127,0.0002101382892004594
0.0025136493090278096,0.001187509976437711,1,20,0.2156704710380127,0.0002101382892004594
0.002525521381041806,0.0011874981041294951,1,20,0.2156704710380127,0.0002101382892004594
0.00253739333436298,0.0011874862319399744,1,20,0.2156704710380127,0.0002101382892004594
0.0025492651689925207,0.0011874743598691477,1,20,0.2156704710380127,0.0002101382892004594
0.002561136884931615,0.0011874624879170137,1,20,0.2156704710380127,0.0002101382892004594
0.0025730084821814483,0.0011874506160835714,1,20,0.2156704710380127,0.0002101382892004594
0.002584879960743211,0.0011874387443688195,1,20,0.2156704710380127,0.0002101382892004594
0.0025967513206180868,0.0011874268727727567,1,20,0.2156704710380127,0.0002101382892004594
0.002608622561807265,0.0011874150012953822,1,20,0.2156704710380127,0.0002101382892004594
