Vout,Iout,Irradiance,Temperature,MaxVoltage,MaxPower
0.007740875568504149,1.5481899999999997,1301,20,21.572193046124287,32.9331492508025
0.023222483569396733,1.5481899999999997,1301,20,21.572193046124287,32.9331492508025
0.038703776833081814,1.5481821043054311,1301,20,21.572193046124287,32.9331492508025
0.05418469913186148,1.5481666226974304,1301,20,21.572193046124287,32.9331492508025
0.0696652320895486,1.5481511414049562,1301,20,21.572193046124287,32.9331492508025
0.0851453937574001,1.5481356604842056,1301,20,21.572193046124287,32.9331492508025
0.1006252007984143,1.548120179952796,1301,20,21.572193046124287,32.9331492508025
0.11610466859380289,1.5481046997926762,1301,20,21.572193046124287,32.9331492508025
0.13158381134144193,1.5480892199871834,1301,20,21.572193046124287,32.9331492508025
0.14706264214691964,1.548073740520936,1301,20,21.572193046124287,32.9331492508025
0.1625411731075788,1.5480582613797362,1301,20,21.572193046124287,32.9331492508025
0.17801941539009244,1.5480427825504788,1301,20,21.572193046124287,32.9331492508025
0.19349737930207148,1.548027304021066,1301,20,21.572193046124287,32.9331492508025
0.20897507435816187,1.5480118257803315,1301,20,21.572193046124287,32.9331492508025
0.22445250934105693,1.5479963478179672,1301,20,21.572193046124287,32.9331492508025
0.23992969235781467,1.547980870124459,1301,20,21.572193046124287,32.9331492508025
0.25540663089184235,1.547965392691024,1301,20,21.572193046124287,32.9331492508025
0.27088333185088115,1.5479499155095549,1301,20,21.572193046124287,32.9331492508025
0.2863598016112987,1.5479344385725686,1301,20,21.572193046124287,32.9331492508025
0.3018360460589741,1.5479189618731573,1301,20,21.572193046124287,32.9331492508025
0.3173120706270364,1.5479034854049445,1301,20,21.572193046124287,32.9331492508025
0.3327878803307005,1.5478880091620446,1301,20,21.572193046124287,32.9331492508025
0.34826347979942146,1.5478725331390242,1301,20,21.572193046124287,32.9331492508025
0.36373887330657595,1.547857057330868,1301,20,21.572193046124287,32.9331492508025
0.3792140647968592,1.547841581732947,1301,20,21.572193046124287,32.9331492508025
0.3946890579115747,1.5478261063409875,1301,20,21.572193046124287,32.9331492508025
0.410163856011977,1.5478106311510447,1301,20,21.572193046124287,32.9331492508025
0.4256384622008197,1.5477951561594776,1301,20,21.572193046124287,32.9331492508025
0.44111287934224425,1.5477796813629245,1301,20,21.572193046124287,32.9331492508025
0.4565871100801399,1.5477642067582833,1301,20,21.572193046124287,32.9331492508025
0.4720611568550899,1.5477487323426893,1301,20,21.572193046124287,32.9331492508025
0.4875350219200141,1.5477332581134988,1301,20,21.572193046124287,32.9331492508025
0.503008707354608,1.5477177840682714,1301,20,21.572193046124287,32.9331492508025
0.5184822150786713,1.547702310204754,1301,20,21.572193046124287,32.9331492508025
0.5339555468644102,1.5476868365208667,1301,20,21.572193046124287,32.9331492508025
0.5494287043477933,1.54767136301469,1301,20,21.572193046124287,32.9331492508025
0.5649016890390347,1.5476558896844517,1301,20,21.572193046124287,32.9331492508025
0.5803745023322688,1.5476404165285156,1301,20,21.572193046124287,32.9331492508025
0.595847145514482,1.5476249435453717,1301,20,21.572193046124287,32.9331492508025
0.6113196197737576,1.5476094707336259,1301,20,21.572193046124287,32.9331492508025
0.6267919262068841,1.5475939980919908,1301,20,21.572193046124287,32.9331492508025
0.6422640658263807,1.5475785256192789,1301,20,21.572193046124287,32.9331492508025
0.657736039566981,1.5475630533143931,1301,20,21.572193046124287,32.9331492508025
0.673207848291617,1.5475475811763209,1301,20,21.572193046124287,32.9331492508025
0.6886794927969454,1.5475321092041274,1301,20,21.572193046124287,32.9331492508025
0.7041509738184448,1.54751663739695,1301,20,21.572193046124287,32.9331492508025
0.7196222920351243,1.5475011657539919,1301,20,21.572193046124287,32.9331492508025
0.7350934480738678,1.5474856942745177,1301,20,21.572193046124287,32.9331492508025
0.7505644425134453,1.547470222957848,1301,20,21.572193046124287,32.9331492508025
0.7660352758882139,1.5474547518033563,1301,20,21.572193046124287,32.9331492508025
0.7815059486915349,1.547439280810464,1301,20,21.572193046124287,32.9331492508025
0.7969764613789295,1.5474238099786364,1301,20,21.572193046124287,32.9331492508025
0.8124468143709889,1.54740833930738,1301,20,21.572193046124287,32.9331492508025
0.8279170080560619,1.5473928687962397,1301,20,21.572193046124287,32.9331492508025
0.843387042792737,1.5473773984447947,1301,20,21.572193046124287,32.9331492508025
0.8588569189121307,1.5473619282526567,1301,20,21.572193046124287,32.9331492508025
0.8743266367200015,1.5473464582194671,1301,20,21.572193046124287,32.9331492508025
0.8897961964987022,1.5473309883448947,1301,20,21.572193046124287,32.9331492508025
0.9052655985089793,1.5473155186286338,1301,20,21.572193046124287,32.9331492508025
0.9207348429916362,1.5473000490704023,1301,20,21.572193046124287,32.9331492508025
0.9362039301690676,1.5472845796699388,1301,20,21.572193046124287,32.9331492508025
0.9516728602466751,1.547269110427003,1301,20,21.572193046124287,32.9331492508025
0.967141633414176,1.5472536413413727,1301,20,21.572193046124287,32.9331492508025
0.9826102498468094,1.5472381724128421,1301,20,21.572193046124287,32.9331492508025
0.9980787097064497,1.5472227036412214,1301,20,21.572193046124287,32.9331492508025
1.0135470131426358,1.5472072350263357,1301,20,21.572193046124287,32.9331492508025
1.0290151602935198,1.5471917665680228,1301,20,21.572193046124287,32.9331492508025
1.0444831512867425,1.5471762982661337,1301,20,21.572193046124287,32.9331492508025
1.0599509862402434,1.5471608301205295,1301,20,21.572193046124287,32.9331492508025
1.0754186652630067,1.5471453621310831,1301,20,21.572193046124287,32.9331492508025
1.0908861884557493,1.5471298942976766,1301,20,21.572193046124287,32.9331492508025
1.106353555911558,1.5471144266202006,1301,20,21.572193046124287,32.9331492508025
1.121820767716477,1.5470989590985547,1301,20,21.572193046124287,32.9331492508025
1.1372878239500481,1.5470834917326455,1301,20,21.572193046124287,32.9331492508025
1.1527547246858125,1.5470680245223873,1301,20,21.572193046124287,32.9331492508025
1.168221469991772,1.5470525574677005,1301,20,21.572193046124287,32.9331492508025
1.1836880599308148,1.5470370905685116,1301,20,21.572193046124287,32.9331492508025
1.1991544945611092,1.5470216238247523,1301,20,21.572193046124287,32.9331492508025
1.214620773936468,1.5470061572363598,1301,20,21.572193046124287,32.9331492508025
1.230086898106681,1.5469906908032762,1301,20,21.572193046124287,32.9331492508025
1.245552867117827,1.5469752245254476,1301,20,21.572193046124287,32.9331492508025
1.261018681012558,1.546959758402824,1301,20,21.572193046124287,32.9331492508025
1.2764843398303634,1.5469442924353594,1301,20,21.572193046124287,32.9331492508025
1.2919498436078127,1.5469288266230112,1301,20,21.572193046124287,32.9331492508025
1.3074151923787811,1.5469133609657402,1301,20,21.572193046124287,32.9331492508025
1.3228803861746565,1.5468978954635093,1301,20,21.572193046124287,32.9331492508025
1.3383454250245297,1.546882430116285,1301,20,21.572193046124287,32.9331492508025
1.3538103089553732,1.5468669649240356,1301,20,21.572193046124287,32.9331492508025
1.3692750379922023,1.5468514998867322,1301,20,21.572193046124287,32.9331492508025
1.3847396121582278,1.546836035004348,1301,20,21.572193046124287,32.9331492508025
1.4002040314749915,1.5468205702768576,1301,20,21.572193046124287,32.9331492508025
1.415668295962498,1.546805105704238,1301,20,21.572193046124287,32.9331492508025
1.431132405639332,1.5467896412864677,1301,20,21.572193046124287,32.9331492508025
1.4465963605227665,1.5467741770235266,1301,20,21.572193046124287,32.9331492508025
1.4620601606288635,1.5467587129153963,1301,20,21.572193046124287,32.9331492508025
1.4775238059725704,1.5467432489620592,1301,20,21.572193046124287,32.9331492508025
1.4929872965678013,1.5467277851634995,1301,20,21.572193046124287,32.9331492508025
1.50845063242752,1.5467123215197023,1301,20,21.572193046124287,32.9331492508025
1.5239138135638106,1.5466968580306535,1301,20,21.572193046124287,32.9331492508025
1.5393768399879473,1.54668139469634,1301,20,21.572193046124287,32.9331492508025
1.554839711710455,1.5466659315167501,1301,20,21.572193046124287,32.9331492508025
1.5703024287411682,1.5466504684918723,1301,20,21.572193046124287,32.9331492508025
1.585764991089284,1.5466350056216962,1301,20,21.572193046124287,32.9331492508025
1.6012273987634094,1.5466195429062117,1301,20,21.572193046124287,32.9331492508025
1.6166896517716096,1.54660408034541,1301,20,21.572193046124287,32.9331492508025
1.6321517501214473,1.546588617939282,1301,20,21.572193046124287,32.9331492508025
1.647613693820023,1.5465731556878202,1301,20,21.572193046124287,32.9331492508025
1.6630754828740077,1.5465576935910166,1301,20,21.572193046124287,32.9331492508025
1.6785371172896806,1.5465422316488642,1301,20,21.572193046124287,32.9331492508025
1.6939985970729556,1.5465267698613563,1301,20,21.572193046124287,32.9331492508025
1.7094599222294102,1.546511308228487,1301,20,21.572193046124287,32.9331492508025
1.7249210927643117,1.5464958467502499,1301,20,21.572193046124287,32.9331492508025
1.7403821086826412,1.5464803854266396,1301,20,21.572193046124287,32.9331492508025
1.7558429699891156,1.5464649242576507,1301,20,21.572193046124287,32.9331492508025
1.7713036766882075,1.5464494632432786,1301,20,21.572193046124287,32.9331492508025
1.7867642287841647,1.5464340023835181,1301,20,21.572193046124287,32.9331492508025
1.8022246262810262,1.5464185416783651,1301,20,21.572193046124287,32.9331492508025
1.8176848691826397,1.5464030811278153,1301,20,21.572193046124287,32.9331492508025
1.833144957492676,1.5463876207318645,1301,20,21.572193046124287,32.9331492508025
1.8486048912146413,1.546372160490509,1301,20,21.572193046124287,32.9331492508025
1.8640646703518928,1.546356700403745,1301,20,21.572193046124287,32.9331492508025
1.8795242949076456,1.546341240471569,1301,20,21.572193046124287,32.9331492508025
1.894983764884989,1.5463257806939779,1301,20,21.572193046124287,32.9331492508025
1.910443080286892,1.546310321070968,1301,20,21.572193046124287,32.9331492508025
1.9259022411162134,1.5462948616025367,1301,20,21.572193046124287,32.9331492508025
1.9413612473757134,1.5462794022886808,1301,20,21.572193046124287,32.9331492508025
1.956820099068056,1.5462639431293974,1301,20,21.572193046124287,32.9331492508025
1.9722787961958206,1.5462484841246837,1301,20,21.572193046124287,32.9331492508025
1.9877373387615065,1.5462330252745373,1301,20,21.572193046124287,32.9331492508025
2.00319572676754,1.5462175665789555,1301,20,21.572193046124287,32.9331492508025
2.0186539602162794,1.5462021080379358,1301,20,21.572193046124287,32.9331492508025
2.0341120391100196,1.5461866496514756,1301,20,21.572193046124287,32.9331492508025
2.049569963450999,1.5461711914195726,1301,20,21.572193046124287,32.9331492508025
2.0650277332414024,1.5461557333422247,1301,20,21.572193046124287,32.9331492508025
2.0804853484833643,1.5461402754194296,1301,20,21.572193046124287,32.9331492508025
2.095942809178976,1.546124817651185,1301,20,21.572193046124287,32.9331492508025
2.1114001153302837,1.546109360037489,1301,20,21.572193046124287,32.9331492508025
2.1268572669392976,1.546093902578339,1301,20,21.572193046124287,32.9331492508025
2.1423142640079913,1.5460784452737335,1301,20,21.572193046124287,32.9331492508025
2.157771106538305,1.5460629881236703,1301,20,21.572193046124287,32.9331492508025
2.17322779453215,1.5460475311281472,1301,20,21.572193046124287,32.9331492508025
2.1886843279914068,1.5460320742871627,1301,20,21.572193046124287,32.9331492508025
2.2041407069179324,1.5460166176007144,1301,20,21.572193046124287,32.9331492508025
2.219596931313558,1.546001161068801,1301,20,21.572193046124287,32.9331492508025
2.2350530011800935,1.54598570469142,1301,20,21.572193046124287,32.9331492508025
2.2505089165193293,1.54597024846857,1301,20,21.572193046124287,32.9331492508025
2.2659646773330357,1.5459547924002492,1301,20,21.572193046124287,32.9331492508025
2.2814202836229667,1.5459393364864555,1301,20,21.572193046124287,32.9331492508025
2.296875735390859,1.5459238807271876,1301,20,21.572193046124287,32.9331492508025
2.3123310326384345,1.545908425122443,1301,20,21.572193046124287,32.9331492508025
2.327786175367403,1.5458929696722208,1301,20,21.572193046124287,32.9331492508025
2.343241163579459,1.5458775143765189,1301,20,21.572193046124287,32.9331492508025
2.3586959972762895,1.5458620592353354,1301,20,21.572193046124287,32.9331492508025
2.374150676459567,1.545846604248669,1301,20,21.572193046124287,32.9331492508025
2.389605201130954,1.5458311494165176,1301,20,21.572193046124287,32.9331492508025
2.4050595712921066,1.5458156947388797,1301,20,21.572193046124287,32.9331492508025
2.4205137869446713,1.5458002402157538,1301,20,21.572193046124287,32.9331492508025
2.4359678480902844,1.545784785847138,1301,20,21.572193046124287,32.9331492508025
2.451421754730579,1.545769331633031,1301,20,21.572193046124287,32.9331492508025
2.466875506867179,1.545753877573431,1301,20,21.572193046124287,32.9331492508025
2.4823291045017015,1.545738423668336,1301,20,21.572193046124287,32.9331492508025
2.4977825476357616,1.5457229699177448,1301,20,21.572193046124287,32.9331492508025
2.513235836270965,1.5457075163216556,1301,20,21.572193046124287,32.9331492508025
2.528688970408914,1.545692062880067,1301,20,21.572193046124287,32.9331492508025
2.544141950051207,1.545676609592977,1301,20,21.572193046124287,32.9331492508025
2.559594775199438,1.5456611564603846,1301,20,21.572193046124287,32.9331492508025
2.5750474458551964,1.5456457034822875,1301,20,21.572193046124287,32.9331492508025
2.590499962020071,1.5456302506586848,1301,20,21.572193046124287,32.9331492508025
2.6059523236956426,1.5456147979895742,1301,20,21.572193046124287,32.9331492508025
2.621404530883493,1.5455993454749546,1301,20,21.572193046124287,32.9331492508025
2.636856583585199,1.5455838931148242,1301,20,21.572193046124287,32.9331492508025
2.6523084818023364,1.5455684409091817,1301,20,21.572193046124287,32.9331492508025
2.6677602255364774,1.5455529888580253,1301,20,21.572193046124287,32.9331492508025
2.6832118147891926,1.5455375369613533,1301,20,21.572193046124287,32.9331492508025
2.6986632495620495,1.5455220852191645,1301,20,21.572193046124287,32.9331492508025
2.714114529856616,1.545506633631457,1301,20,21.572193046124287,32.9331492508025
2.729565655674456,1.5454911821982291,1301,20,21.572193046124287,32.9331492508025
2.745016627017134,1.5454757309194798,1301,20,21.572193046124287,32.9331492508025
2.760467443886211,1.545460279795207,1301,20,21.572193046124287,32.9331492508025
2.7759181062832465,1.5454448288254095,1301,20,21.572193046124287,32.9331492508025
2.7913686142098024,1.5454293780100856,1301,20,21.572193046124287,32.9331492508025
2.806818967667434,1.5454139273492336,1301,20,21.572193046124287,32.9331492508025
2.8222691666576996,1.5453984768428521,1301,20,21.572193046124287,32.9331492508025
2.837719211182155,1.5453830264909396,1301,20,21.572193046124287,32.9331492508025
2.8531691012423552,1.5453675762934944,1301,20,21.572193046124287,32.9331492508025
2.868618836839855,1.545352126250515,1301,20,21.572193046124287,32.9331492508025
2.884068417976206,1.5453366763619998,1301,20,21.572193046124287,32.9331492508025
2.899517844652963,1.5453212266279472,1301,20,21.572193046124287,32.9331492508025
2.9149671168716766,1.5453057770483558,1301,20,21.572193046124287,32.9331492508025
2.9304162346339,1.5452903276232242,1301,20,21.572193046124287,32.9331492508025
2.9458651979411816,1.5452748783525503,1301,20,21.572193046124287,32.9331492508025
2.961314006795074,1.545259429236333,1301,20,21.572193046124287,32.9331492508025
2.976762661197126,1.5452439802745708,1301,20,21.572193046124287,32.9331492508025
2.9922111611488877,1.5452285314672618,1301,20,21.572193046124287,32.9331492508025
3.0076595066519074,1.5452130828144046,1301,20,21.572193046124287,32.9331492508025
3.023107697707733,1.5451976343159977,1301,20,21.572193046124287,32.9331492508025
3.0385557343179137,1.5451821859720396,1301,20,21.572193046124287,32.9331492508025
3.0540036164839974,1.5451667377825287,1301,20,21.572193046124287,32.9331492508025
3.0694513442075317,1.5451512897474633,1301,20,21.572193046124287,32.9331492508025
3.084898917490063,1.545135841866842,1301,20,21.572193046124287,32.9331492508025
3.1003463363331396,1.5451203941406633,1301,20,21.572193046124287,32.9331492508025
3.115793600738308,1.5451049465689255,1301,20,21.572193046124287,32.9331492508025
3.131240710707114,1.545089499151627,1301,20,21.572193046124287,32.9331492508025
3.1466876662411054,1.5450740518887667,1301,20,21.572193046124287,32.9331492508025
3.162134467341826,1.5450586047803427,1301,20,21.572193046124287,32.9331492508025
3.177581114010824,1.5450431578263535,1301,20,21.572193046124287,32.9331492508025
3.1930276062496454,1.5450277110267974,1301,20,21.572193046124287,32.9331492508025
3.2084739440598344,1.545012264381673,1301,20,21.572193046124287,32.9331492508025
3.223920127442937,1.544996817890979,1301,20,21.572193046124287,32.9331492508025
3.239366156400498,1.5449813715547134,1301,20,21.572193046124287,32.9331492508025
3.254812030934064,1.544965925372875,1301,20,21.572193046124287,32.9331492508025
3.2702577510451785,1.544950479345462,1301,20,21.572193046124287,32.9331492508025
3.285703316735386,1.5449350334724732,1301,20,21.572193046124287,32.9331492508025
3.301148728006235,1.5449195877539066,1301,20,21.572193046124287,32.9331492508025
3.316593984859267,1.544904142189761,1301,20,21.572193046124287,32.9331492508025
3.3320390872960286,1.5448886967800348,1301,20,21.572193046124287,32.9331492508025
3.347484035318062,1.5448732515247263,1301,20,21.572193046124287,32.9331492508025
3.3629288289269144,1.544857806423834,1301,20,21.572193046124287,32.9331492508025
3.378373468124129,1.5448423614773565,1301,20,21.572193046124287,32.9331492508025
3.3938179529112507,1.5448269166852922,1301,20,21.572193046124287,32.9331492508025
3.409262283289823,1.5448114720476394,1301,20,21.572193046124287,32.9331492508025
3.4247064592613907,1.5447960275643968,1301,20,21.572193046124287,32.9331492508025
3.4401504808274983,1.5447805832355628,1301,20,21.572193046124287,32.9331492508025
3.45559434798969,1.5447651390611357,1301,20,21.572193046124287,32.9331492508025
3.4710380607495086,1.544749695041114,1301,20,21.572193046124287,32.9331492508025
3.4864816191085,1.5447342511754962,1301,20,21.572193046124287,32.9331492508025
3.501925023068207,1.5447188074642808,1301,20,21.572193046124287,32.9331492508025
3.517368272630174,1.544703363907466,1301,20,21.572193046124287,32.9331492508025
3.5328113677959445,1.5446879205050508,1301,20,21.572193046124287,32.9331492508025
3.548254308567064,1.5446724772570333,1301,20,21.572193046124287,32.9331492508025
3.563697094945074,1.5446570341634118,1301,20,21.572193046124287,32.9331492508025
3.57913972693152,1.5446415912241849,1301,20,21.572193046124287,32.9331492508025
3.5945822045279443,1.5446261484393513,1301,20,21.572193046124287,32.9331492508025
3.610024527735892,1.5446107058089091,1301,20,21.572193046124287,32.9331492508025
3.625466696556907,1.544595263332857,1301,20,21.572193046124287,32.9331492508025
3.6409087109925324,1.5445798210111932,1301,20,21.572193046124287,32.9331492508025
3.6563505710443125,1.5445643788439165,1301,20,21.572193046124287,32.9331492508025
3.6717922767137896,1.544548936831025,1301,20,21.572193046124287,32.9331492508025
3.687233828002508,1.5445334949725176,1301,20,21.572193046124287,32.9331492508025
3.7026752249120114,1.5445180532683922,1301,20,21.572193046124287,32.9331492508025
3.718116467443843,1.5445026117186478,1301,20,21.572193046124287,32.9331492508025
