Vout,Iout,Irradiance,Temperature,MaxVoltage,MaxPower
0.00563119585388602,1.12625,901,50,22.886468236513455,25.213857802896623
0.016893483435517005,1.12625,901,50,22.886468236513455,25.213857802896623
0.028155542057666304,1.1262442561791461,901,50,22.886468236513455,25.213857802896623
0.03941733081679833,1.1262329938915645,901,50,22.886468236513455,25.213857802896623
0.05067883634492802,1.1262217318335166,901,50,22.886468236513455,25.213857802896623
0.06194007177366592,1.1262104700458837,901,50,22.886468236513455,25.213857802896623
0.07320104922471667,1.1261992085414818,901,50,22.886468236513455,25.213857802896623
0.08446177988733325,1.1261879473071792,901,50,22.886468236513455,25.213857802896623
0.09572227408993662,1.1261766863308544,901,50,22.886468236513455,25.213857802896623
0.10698254136634928,1.1261654256013178,901,50,22.886468236513455,25.213857802896623
0.11824259051693309,1.1261541651082414,901,50,22.886468236513455,25.213857802896623
0.12950242966502282,1.126142904842091,901,50,22.886468236513455,25.213857802896623
0.1407620663090177,1.1261316447940666,901,50,22.886468236513455,25.213857802896623
0.15202150737046483,1.1261203849560444,901,50,22.886468236513455,25.213857802896623
0.16328075923844326,1.1261091253205264,901,50,22.886468236513455,25.213857802896623
0.17453982781053287,1.126097865880591,901,50,22.886468236513455,25.213857802896623
0.18579871853063099,1.126086606629849,901,50,22.886468236513455,25.213857802896623
0.19705743642385948,1.1260753475624028,901,50,22.886468236513455,25.213857802896623
0.20831598612878602,1.1260640886728086,901,50,22.886468236513455,25.213857802896623
0.21957437192716628,1.1260528299560413,901,50,22.886468236513455,25.213857802896623
0.23083259777139745,1.1260415714074623,901,50,22.886468236513455,25.213857802896623
0.24209066730985954,1.1260303130227898,901,50,22.886468236513455,25.213857802896623
0.2533485839103071,1.1260190547980715,901,50,22.886468236513455,25.213857802896623
0.264606350681461,1.126007796729659,901,50,22.886468236513455,25.213857802896623
0.27586397049293865,1.1259965388141842,901,50,22.886468236513455,25.213857802896623
0.2871214459936513,1.125985281048539,901,50,22.886468236513455,25.213857802896623
0.29837877962878534,1.1259740234298532,901,50,22.886468236513455,25.213857802896623
0.30963597365547707,1.1259627659554783,901,50,22.886468236513455,25.213857802896623
0.32089303015728204,1.1259515086229688,901,50,22.886468236513455,25.213857802896623
0.33214995105753004,1.1259402514300678,901,50,22.886468236513455,25.213857802896623
0.34340673813165373,1.1259289943746917,901,50,22.886468236513455,25.213857802896623
0.3546633930185673,1.1259177374549174,901,50,22.886468236513455,25.213857802896623
0.3659199172311713,1.125906480668969,901,50,22.886468236513455,25.213857802896623
0.37717631216604774,1.1258952240152076,901,50,22.886468236513455,25.213857802896623
0.38843257911240986,1.1258839674921208,901,50,22.886468236513455,25.213857802896623
0.3996887192603634,1.1258727110983116,901,50,22.886468236513455,25.213857802896623
0.4109447337085323,1.1258614548324908,901,50,22.886468236513455,25.213857802896623
0.42220062347109677,1.1258501986934686,901,50,22.886468236513455,25.213857802896623
0.43345638948429144,1.125838942680146,901,50,22.886468236513455,25.213857802896623
0.4447120326124016,1.125827686791509,901,50,22.886468236513455,25.213857802896623
0.4559675536533002,1.1258164310266214,901,50,22.886468236513455,25.213857802896623
0.46722295334355674,1.125805175384619,901,50,22.886468236513455,25.213857802896623
0.4784782323631544,1.1257939198647036,901,50,22.886468236513455,25.213857802896623
0.4897333913398442,1.1257826644661388,901,50,22.886468236513455,25.213857802896623
0.5009884308531637,1.125771409188245,901,50,22.886468236513455,25.213857802896623
0.5122433514381458,1.1257601540303936,901,50,22.886468236513455,25.213857802896623
0.5234981535887444,1.125748898992006,901,50,22.886468236513455,25.213857802896623
0.534752837760994,1.1257376440725464,901,50,22.886468236513455,25.213857802896623
0.5460074043759277,1.1257263892715212,901,50,22.886468236513455,25.213857802896623
0.5572618538222702,1.1257151345884746,901,50,22.886468236513455,25.213857802896623
0.5685161864589239,1.125703880022985,901,50,22.886468236513455,25.213857802896623
0.5797704026172623,1.1256926255746642,901,50,22.886468236513455,25.213857802896623
0.5910245026032503,1.125681371243153,901,50,22.886468236513455,25.213857802896623
0.6022784866993973,1.1256701170281203,901,50,22.886468236513455,25.213857802896623
0.6135323551665625,1.1256588629292597,901,50,22.886468236513455,25.213857802896623
0.6247861082456204,1.1256476089462888,901,50,22.886468236513455,25.213857802896623
0.6360397461589997,1.1256363550789472,901,50,22.886468236513455,25.213857802896623
0.6472932691121008,1.1256251013269936,901,50,22.886468236513455,25.213857802896623
0.6585466772946073,1.1256138476902056,901,50,22.886468236513455,25.213857802896623
0.6697999708816943,1.1256025941683778,901,50,22.886468236513455,25.213857802896623
0.6810531500351457,1.1255913407613205,901,50,22.886468236513455,25.213857802896623
0.6923062149043836,1.1255800874688588,901,50,22.886468236513455,25.213857802896623
0.7035591656274202,1.1255688342908308,901,50,22.886468236513455,25.213857802896623
0.7148120023317348,1.1255575812270868,901,50,22.886468236513455,25.213857802896623
0.7260647251350857,1.1255463282774891,901,50,22.886468236513455,25.213857802896623
0.7373173341462567,1.1255350754419102,901,50,22.886468236513455,25.213857802896623
0.7485698294657477,1.125523822720232,901,50,22.886468236513455,25.213857802896623
0.7598222111864132,1.125512570112346,901,50,22.886468236513455,25.213857802896623
0.7710744793940497,1.1255013176181519,901,50,22.886468236513455,25.213857802896623
0.7823266341679387,1.1254900652375566,901,50,22.886468236513455,25.213857802896623
0.793578675581348,1.1254788129704743,901,50,22.886468236513455,25.213857802896623
0.8048306037019952,1.1254675608168254,901,50,22.886468236513455,25.213857802896623
0.8160824185924737,1.1254563087765372,901,50,22.886468236513455,25.213857802896623
0.8273341203106473,1.125445056849542,901,50,22.886468236513455,25.213857802896623
0.838585708910015,1.1254338050357766,901,50,22.886468236513455,25.213857802896623
0.8498371844400447,1.1254225533351836,901,50,22.886468236513455,25.213857802896623
0.8610885469464858,1.1254113017477094,901,50,22.886468236513455,25.213857802896623
0.8723397964716537,1.1254000502733046,901,50,22.886468236513455,25.213857802896623
0.8835909330546944,1.1253887989119233,901,50,22.886468236513455,25.213857802896623
0.8948419567318284,1.1253775476635233,901,50,22.886468236513455,25.213857802896623
0.9060928675365767,1.1253662965280653,901,50,22.886468236513455,25.213857802896623
0.9173436654999667,1.1253550455055135,901,50,22.886468236513455,25.213857802896623
0.9285943506507255,1.1253437945958338,901,50,22.886468236513455,25.213857802896623
0.9398449230154562,1.1253325437989954,901,50,22.886468236513455,25.213857802896623
0.9510953826188017,1.1253212931149699,901,50,22.886468236513455,25.213857802896623
0.9623457294835949,1.1253100425437301,901,50,22.886468236513455,25.213857802896623
0.9735959636309991,1.125298792085252,901,50,22.886468236513455,25.213857802896623
0.9848460850806353,1.125287541739512,901,50,22.886468236513455,25.213857802896623
0.9960960938507019,1.1252762915064898,901,50,22.886468236513455,25.213857802896623
1.0073459899580828,1.1252650413861651,901,50,22.886468236513455,25.213857802896623
1.0185957734184492,1.12525379137852,901,50,22.886468236513455,25.213857802896623
1.0298454442463547,1.1252425414835379,901,50,22.886468236513455,25.213857802896623
1.0410950024553176,1.1252312917012024,901,50,22.886468236513455,25.213857802896623
1.0523444480579038,1.1252200420314995,901,50,22.886468236513455,25.213857802896623
1.0635937810657983,1.1252087924744154,901,50,22.886468236513455,25.213857802896623
1.0748430014898742,1.125197543029938,901,50,22.886468236513455,25.213857802896623
1.0860921093402536,1.125186293698055,901,50,22.886468236513455,25.213857802896623
1.097341104626367,1.1251750444787558,901,50,22.886468236513455,25.213857802896623
1.1085899873570053,1.1251637953720304,901,50,22.886468236513455,25.213857802896623
1.1198387575403703,1.125152546377869,901,50,22.886468236513455,25.213857802896623
1.1310874151841184,1.1251412974962633,901,50,22.886468236513455,25.213857802896623
1.142335960295404,1.125130048727205,901,50,22.886468236513455,25.213857802896623
1.1535843928809166,1.1251188000706862,901,50,22.886468236513455,25.213857802896623
1.1648327129469191,1.1251075515266997,901,50,22.886468236513455,25.213857802896623
1.1760809204992775,1.125096303095239,901,50,22.886468236513455,25.213857802896623
1.1873290155434932,1.1250850547762978,901,50,22.886468236513455,25.213857802896623
1.1985769980847323,1.1250738065698704,901,50,22.886468236513455,25.213857802896623
1.2098248681278476,1.125062558475951,901,50,22.886468236513455,25.213857802896623
1.2210726256774067,1.1250513104945346,901,50,22.886468236513455,25.213857802896623
1.2323202707377114,1.1250400626256163,901,50,22.886468236513455,25.213857802896623
1.24356780331282,1.1250288148691916,901,50,22.886468236513455,25.213857802896623
1.2548152234065635,1.125017567225256,901,50,22.886468236513455,25.213857802896623
1.266062531022566,1.1250063196938056,901,50,22.886468236513455,25.213857802896623
1.2773097261642585,1.1249950722748367,901,50,22.886468236513455,25.213857802896623
1.2885568088348947,1.1249838249683455,901,50,22.886468236513455,25.213857802896623
1.2998037790375647,1.1249725777743285,901,50,22.886468236513455,25.213857802896623
1.3110506367752068,1.1249613306927826,901,50,22.886468236513455,25.213857802896623
1.3222973820506203,1.1249500837237045,901,50,22.886468236513455,25.213857802896623
1.333544014866475,1.1249388368670916,901,50,22.886468236513455,25.213857802896623
1.344790535225322,1.124927590122941,901,50,22.886468236513455,25.213857802896623
1.3560369431296035,1.12491634349125,901,50,22.886468236513455,25.213857802896623
1.3672832385816585,1.1249050969720156,901,50,22.886468236513455,25.213857802896623
1.378529421583734,1.124893850565236,901,50,22.886468236513455,25.213857802896623
1.3897754921379897,1.1248826042709086,901,50,22.886468236513455,25.213857802896623
1.401021450246506,1.1248713580890313,901,50,22.886468236513455,25.213857802896623
1.4122672959112899,1.1248601120196016,901,50,22.886468236513455,25.213857802896623
1.4235130291342797,1.1248488660626177,901,50,22.886468236513455,25.213857802896623
1.4347586499173521,1.1248376202180774,901,50,22.886468236513455,25.213857802896623
1.446004158262325,1.124826374485979,901,50,22.886468236513455,25.213857802896623
1.4572495541709634,1.1248151288663206,901,50,22.886468236513455,25.213857802896623
1.468494837644983,1.1248038833591003,901,50,22.886468236513455,25.213857802896623
1.4797400086860537,1.124792637964316,901,50,22.886468236513455,25.213857802896623
1.4909850672958034,1.1247813926819668,901,50,22.886468236513455,25.213857802896623
1.5022300134758209,1.1247701475120502,901,50,22.886468236513455,25.213857802896623
1.5134748472276605,1.124758902454565,901,50,22.886468236513455,25.213857802896623
1.5247195685528414,1.1247476575095094,901,50,22.886468236513455,25.213857802896623
1.535964177452854,1.124736412676882,901,50,22.886468236513455,25.213857802896623
1.5472086739291602,1.1247251679566814,901,50,22.886468236513455,25.213857802896623
1.5584530579831952,1.1247139233489059,901,50,22.886468236513455,25.213857802896623
1.5696973296163712,1.1247026788535541,901,50,22.886468236513455,25.213857802896623
1.580941488830077,1.1246914344706245,901,50,22.886468236513455,25.213857802896623
1.592185535625682,1.1246801902001158,901,50,22.886468236513455,25.213857802896623
1.603429470004537,1.1246689460420265,901,50,22.886468236513455,25.213857802896623
1.614673291967974,1.1246577019963553,901,50,22.886468236513455,25.213857802896623
1.6259170015173097,1.1246464580631008,901,50,22.886468236513455,25.213857802896623
1.6371605986538462,1.1246352142422618,901,50,22.886468236513455,25.213857802896623
1.6484040833788713,1.1246239705338368,901,50,22.886468236513455,25.213857802896623
1.6596474556936611,1.1246127269378248,901,50,22.886468236513455,25.213857802896623
1.6708907155994792,1.124601483454224,901,50,22.886468236513455,25.213857802896623
1.6821338630975782,1.1245902400830337,901,50,22.886468236513455,25.213857802896623
1.6933768981892012,1.124578996824252,901,50,22.886468236513455,25.213857802896623
1.7046198208755827,1.1245677536778784,901,50,22.886468236513455,25.213857802896623
1.715862631157948,1.124556510643911,901,50,22.886468236513455,25.213857802896623
1.727105329037514,1.124545267722349,901,50,22.886468236513455,25.213857802896623
1.7383479145154919,1.124534024913191,901,50,22.886468236513455,25.213857802896623
1.7495903875930843,1.1245227822164356,901,50,22.886468236513455,25.213857802896623
1.7608327482714898,1.124511539632082,901,50,22.886468236513455,25.213857802896623
1.7720749965518996,1.1245002971601286,901,50,22.886468236513455,25.213857802896623
1.7833171324355002,1.1244890548005746,901,50,22.886468236513455,25.213857802896623
1.794559155923474,1.1244778125534183,901,50,22.886468236513455,25.213857802896623
1.8058010670169977,1.124466570418659,901,50,22.886468236513455,25.213857802896623
1.8170428657172442,1.1244553283962953,901,50,22.886468236513455,25.213857802896623
1.8282845520253825,1.1244440864863259,901,50,22.886468236513455,25.213857802896623
1.83952612594258,1.12443284468875,901,50,22.886468236513455,25.213857802896623
1.8507675874699971,1.1244216030035659,901,50,22.886468236513455,25.213857802896623
1.862008936608795,1.124410361430773,901,50,22.886468236513455,25.213857802896623
1.8732501733601292,1.1243991199703696,901,50,22.886468236513455,25.213857802896623
1.884491297725155,1.1243878786223551,901,50,22.886468236513455,25.213857802896623
1.8957323097050234,1.1243766373867279,901,50,22.886468236513455,25.213857802896623
1.9069732093008847,1.124365396263487,901,50,22.886468236513455,25.213857802896623
1.918213996513886,1.1243541552526313,901,50,22.886468236513455,25.213857802896623
1.929454671345173,1.1243429143541595,901,50,22.886468236513455,25.213857802896623
1.9406952337958905,1.1243316735680706,901,50,22.886468236513455,25.213857802896623
1.9519356838671804,1.1243204328943635,901,50,22.886468236513455,25.213857802896623
1.9631760215601837,1.1243091923330368,901,50,22.886468236513455,25.213857802896623
1.9744162468760398,1.1242979518840894,901,50,22.886468236513455,25.213857802896623
1.9856563598158874,1.1242867115475206,901,50,22.886468236513455,25.213857802896623
1.9968963603808638,1.1242754713233287,901,50,22.886468236513455,25.213857802896623
2.008136248572105,1.124264231211513,901,50,22.886468236513455,25.213857802896623
2.019376024390746,1.124252991212072,901,50,22.886468236513455,25.213857802896623
2.030615687837922,1.1242417513250047,901,50,22.886468236513455,25.213857802896623
2.041855238914765,1.1242305115503102,901,50,22.886468236513455,25.213857802896623
2.0530946776224086,1.1242192718879869,901,50,22.886468236513455,25.213857802896623
2.064334003961984,1.1242080323380341,901,50,22.886468236513455,25.213857802896623
2.075573217934624,1.1241967929004504,901,50,22.886468236513455,25.213857802896623
2.086812319541457,1.1241855535752348,901,50,22.886468236513455,25.213857802896623
2.0980513087836146,1.1241743143623861,901,50,22.886468236513455,25.213857802896623
2.1092901856622266,1.1241630752619032,901,50,22.886468236513455,25.213857802896623
2.1205289501784206,1.124151836273785,901,50,22.886468236513455,25.213857802896623
2.131767602333326,1.1241405973980303,901,50,22.886468236513455,25.213857802896623
2.1430061421280713,1.124129358634638,901,50,22.886468236513455,25.213857802896623
2.154244569563784,1.124118119983607,901,50,22.886468236513455,25.213857802896623
2.165482884641592,1.124106881444936,901,50,22.886468236513455,25.213857802896623
2.1767210873626217,1.1240956430186242,901,50,22.886468236513455,25.213857802896623
2.1879591777280005,1.1240844047046703,901,50,22.886468236513455,25.213857802896623
2.1991971557388545,1.124073166503073,901,50,22.886468236513455,25.213857802896623
2.21043502139631,1.1240619284138316,901,50,22.886468236513455,25.213857802896623
2.2216727747014935,1.1240506904369445,901,50,22.886468236513455,25.213857802896623
2.23291041565553,1.124039452572411,901,50,22.886468236513455,25.213857802896623
2.244147944259546,1.1240282148202294,901,50,22.886468236513455,25.213857802896623
2.255385360514667,1.1240169771803992,901,50,22.886468236513455,25.213857802896623
2.2666226644220164,1.124005739652919,901,50,22.886468236513455,25.213857802896623
2.2778598559827214,1.1239945022377875,901,50,22.886468236513455,25.213857802896623
2.289096935197907,1.123983264935004,901,50,22.886468236513455,25.213857802896623
2.3003339020686964,1.123972027744567,901,50,22.886468236513455,25.213857802896623
2.311570756596215,1.1239607906664755,901,50,22.886468236513455,25.213857802896623
2.3228074987815868,1.1239495537007285,901,50,22.886468236513455,25.213857802896623
2.3340441286259375,1.1239383168473247,901,50,22.886468236513455,25.213857802896623
2.3452806461303903,1.123927080106263,901,50,22.886468236513455,25.213857802896623
2.3565170512960694,1.1239158434775423,901,50,22.886468236513455,25.213857802896623
2.3677533441241,1.1239046069611616,901,50,22.886468236513455,25.213857802896623
2.378989524615605,1.1238933705571195,901,50,22.886468236513455,25.213857802896623
2.390225592771708,1.1238821342654153,901,50,22.886468236513455,25.213857802896623
2.4014615485935344,1.1238708980860472,901,50,22.886468236513455,25.213857802896623
2.4126973920822063,1.1238596620190149,901,50,22.886468236513455,25.213857802896623
2.4239331232388484,1.1238484260643167,901,50,22.886468236513455,25.213857802896623
2.4351687420645844,1.1238371902219515,901,50,22.886468236513455,25.213857802896623
2.4464042485605373,1.1238259544919185,901,50,22.886468236513455,25.213857802896623
2.4576396427278313,1.1238147188742165,901,50,22.886468236513455,25.213857802896623
2.4688749245675896,1.123803483368844,901,50,22.886468236513455,25.213857802896623
2.4801100940809357,1.1237922479758002,901,50,22.886468236513455,25.213857802896623
2.491345151268993,1.123781012695084,901,50,22.886468236513455,25.213857802896623
2.5025800961328843,1.1237697775266942,901,50,22.886468236513455,25.213857802896623
2.513814928673734,1.1237585424706298,901,50,22.886468236513455,25.213857802896623
2.5250496488926646,1.1237473075268893,901,50,22.886468236513455,25.213857802896623
2.5362842567907995,1.123736072695472,901,50,22.886468236513455,25.213857802896623
2.547518752369262,1.1237248379763765,901,50,22.886468236513455,25.213857802896623
2.558753135629176,1.1237136033696018,901,50,22.886468236513455,25.213857802896623
2.5699874065716632,1.1237023688751469,901,50,22.886468236513455,25.213857802896623
2.581221565197847,1.1236911344930105,901,50,22.886468236513455,25.213857802896623
2.5924556115088517,1.1236799002231914,901,50,22.886468236513455,25.213857802896623
2.6036895455057993,1.1236686660656887,901,50,22.886468236513455,25.213857802896623
2.6149233671898138,1.123657432020501,901,50,22.886468236513455,25.213857802896623
2.6261570765620172,1.1236461980876276,901,50,22.886468236513455,25.213857802896623
2.6373906736235333,1.1236349642670669,901,50,22.886468236513455,25.213857802896623
2.648624158375484,1.1236237305588181,901,50,22.886468236513455,25.213857802896623
2.659857530818994,1.12361249696288,901,50,22.886468236513455,25.213857802896623
2.671090790955184,1.1236012634792514,901,50,22.886468236513455,25.213857802896623
