Vout,Iout,Irradiance,Temperature,MaxVoltage,MaxPower
0.0005857943673618524,0.11716,101,5,20.44199142962817,1.977148038038987
0.001757372270193272,0.11716,101,5,20.44199142962817,1.977148038038987
0.002928926355139786,0.11715940248963264,101,5,20.44199142962817,1.977148038038987
0.004100452367144144,0.1171582309117298,101,5,20.44199142962817,1.977148038038987
0.005271948915579815,0.11715705935770461,101,5,20.44199142962817,1.977148038038987
0.006443417366484086,0.11715588783180976,101,5,20.44199142962817,1.977148038038987
0.007614858980837122,0.11715471633537848,101,5,20.44199142962817,1.977148038038987
0.008786274922619283,0.11715354486704474,101,5,20.44199142962817,1.977148038038987
0.009957666266261468,0.11715237342554753,101,5,20.44199142962817,1.977148038038987
0.011129034003535168,0.1171512020097229,101,5,20.44199142962817,1.977148038038987
0.012300379049912437,0.1171500306184964,101,5,20.44199142962817,1.977148038038987
0.01347170225043647,0.11714885925087626,101,5,20.44199142962817,1.977148038038987
0.014643004385140521,0.11714768790594703,101,5,20.44199142962817,1.977148038038987
0.01581428617404986,0.11714651658286364,101,5,20.44199142962817,1.977148038038987
0.0169855482817989,0.11714534528084607,101,5,20.44199142962817,1.977148038038987
0.018156791321893035,0.11714417399917429,101,5,20.44199142962817,1.977148038038987
0.0193280158606426,0.11714300273718367,101,5,20.44199142962817,1.977148038038987
0.020499222420794123,0.1171418314942607,101,5,20.44199142962817,1.977148038038987
0.0216704114848822,0.11714066026983909,101,5,20.44199142962817,1.977148038038987
0.02284158349832348,0.11713948906339605,101,5,20.44199142962817,1.977148038038987
0.024012738872272527,0.11713831787444909,101,5,20.44199142962817,1.977148038038987
0.02518387798625807,0.11713714670255276,101,5,20.44199142962817,1.977148038038987
0.026355001190616283,0.11713597554729593,101,5,20.44199142962817,1.977148038038987
0.02752610880873694,0.11713480440829907,101,5,20.44199142962817,1.977148038038987
0.02869720113913669,0.11713363328521183,101,5,20.44199142962817,1.977148038038987
0.02986827845737287,0.11713246217771082,101,5,20.44199142962817,1.977148038038987
0.031039341017809977,0.11713129108549754,101,5,20.44199142962817,1.977148038038987
0.032210389055250345,0.11713012000829641,101,5,20.44199142962817,1.977148038038987
0.03338142278643921,0.11712894894585309,101,5,20.44199142962817,1.977148038038987
0.03455244241145415,0.11712777789793274,101,5,20.44199142962817,1.977148038038987
0.03572344811498739,0.11712660686431867,101,5,20.44199142962817,1.977148038038987
0.036894440067529725,0.11712543584481076,101,5,20.44199142962817,1.977148038038987
0.038065418426463084,0.11712426483922432,101,5,20.44199142962817,1.977148038038987
0.03923638333706918,0.11712309384738889,101,5,20.44199142962817,1.977148038038987
0.04040733493346055,0.11712192286914705,101,5,20.44199142962817,1.977148038038987
0.0415782733394399,0.11712075190435355,101,5,20.44199142962817,1.977148038038987
0.042749198669293366,0.11711958095287425,101,5,20.44199142962817,1.977148038038987
0.043920111028522724,0.11711841001458537,101,5,20.44199142962817,1.977148038038987
0.045091010514521294,0.11711723908937262,101,5,20.44199142962817,1.977148038038987
0.046261897217197784,0.11711606817713048,101,5,20.44199142962817,1.977148038038987
0.04743277121955222,0.11711489727776157,101,5,20.44199142962817,1.977148038038987
0.04860363259820745,0.11711372639117598,101,5,20.44199142962817,1.977148038038987
0.049774481423899855,0.11711255551729072,101,5,20.44199142962817,1.977148038038987
0.05094531776193224,0.11711138465602916,101,5,20.44199142962817,1.977148038038987
0.05211614167259196,0.11711021380732055,101,5,20.44199142962817,1.977148038038987
0.05328695321153671,0.1171090429710996,101,5,20.44199142962817,1.977148038038987
0.054457752430150816,0.11710787214730603,101,5,20.44199142962817,1.977148038038987
0.05562853937587403,0.11710670133588416,101,5,20.44199142962817,1.977148038038987
0.056799314092505,0.11710553053678263,101,5,20.44199142962817,1.977148038038987
0.05797007662048147,0.11710435974995399,101,5,20.44199142962817,1.977148038038987
0.05914082699713879,0.11710318897535445,101,5,20.44199142962817,1.977148038038987
0.06031156525694874,0.11710201821294354,101,5,20.44199142962817,1.977148038038987
0.06148229143173972,0.11710084746268397,101,5,20.44199142962817,1.977148038038987
0.06265300555090027,0.11709967672454123,101,5,20.44199142962817,1.977148038038987
0.06382370764156668,0.11709850599848351,101,5,20.44199142962817,1.977148038038987
0.06499439772879638,0.11709733528448142,101,5,20.44199142962817,1.977148038038987
0.0661650758357278,0.11709616458250784,101,5,20.44199142962817,1.977148038038987
0.0673357419837281,0.11709499389253768,101,5,20.44199142962817,1.977148038038987
0.06850639619252938,0.11709382321454781,101,5,20.44199142962817,1.977148038038987
0.06967703848035456,0.11709265254851688,101,5,20.44199142962817,1.977148038038987
0.07084766886403347,0.11709148189442516,101,5,20.44199142962817,1.977148038038987
0.07201828735910998,0.11709031125225439,101,5,20.44199142962817,1.977148038038987
0.07318889397994101,0.11708914062198778,101,5,20.44199142962817,1.977148038038987
0.07435948873978787,0.11708797000360976,101,5,20.44199142962817,1.977148038038987
0.0755300716509005,0.11708679939710599,101,5,20.44199142962817,1.977148038038987
0.0767006427245953,0.11708562880246322,101,5,20.44199142962817,1.977148038038987
0.077871201971327,0.11708445821966916,101,5,20.44199142962817,1.977148038038987
0.0790417494007549,0.11708328764871252,101,5,20.44199142962817,1.977148038038987
0.08021228502180411,0.11708211708958285,101,5,20.44199142962817,1.977148038038987
0.08138280884272205,0.11708094654227048,101,5,20.44199142962817,1.977148038038987
0.08255332087113051,0.11707977600676649,101,5,20.44199142962817,1.977148038038987
0.08372382111407395,0.11707860548306262,101,5,20.44199142962817,1.977148038038987
0.08489430957806372,0.11707743497115126,101,5,20.44199142962817,1.977148038038987
0.08606478626911919,0.11707626447102538,101,5,20.44199142962817,1.977148038038987
0.08723525119280567,0.11707509398267844,101,5,20.44199142962817,1.977148038038987
0.08840570435426919,0.11707392350610443,101,5,20.44199142962817,1.977148038038987
0.08957614575826887,0.1170727530412978,101,5,20.44199142962817,1.977148038038987
0.09074657540920662,0.11707158258825338,101,5,20.44199142962817,1.977148038038987
0.09191699331115473,0.11707041214696642,101,5,20.44199142962817,1.977148038038987
0.09308739946788107,0.11706924171743253,101,5,20.44199142962817,1.977148038038987
0.09425779388287266,0.11706807129964764,101,5,20.44199142962817,1.977148038038987
0.09542817655935726,0.11706690089360795,101,5,20.44199142962817,1.977148038038987
0.09659854750032319,0.11706573049931,101,5,20.44199142962817,1.977148038038987
0.09776890670853793,0.11706456011675055,101,5,20.44199142962817,1.977148038038987
0.09893925418656496,0.11706338974592663,101,5,20.44199142962817,1.977148038038987
0.10010958993677956,0.11706221938683545,101,5,20.44199142962817,1.977148038038987
0.10127991396138322,0.11706104903947447,101,5,20.44199142962817,1.977148038038987
0.10245022626241711,0.11705987870384128,101,5,20.44199142962817,1.977148038038987
0.10362052684177424,0.1170587083799337,101,5,20.44199142962817,1.977148038038987
0.10479081570121108,0.11705753806774971,101,5,20.44199142962817,1.977148038038987
0.10596109284235788,0.1170563677672874,101,5,20.44199142962817,1.977148038038987
0.10713135826672848,0.11705519747854498,101,5,20.44199142962817,1.977148038038987
0.10830161197572924,0.11705402720152086,101,5,20.44199142962817,1.977148038038987
0.10947185397066732,0.11705285693621352,101,5,20.44199142962817,1.977148038038987
0.11064208425275823,0.11705168668262154,101,5,20.44199142962817,1.977148038038987
0.11181230282313312,0.11705051644074364,101,5,20.44199142962817,1.977148038038987
0.11298250968284496,0.11704934621057857,101,5,20.44199142962817,1.977148038038987
0.11415270483287475,0.11704817599212522,101,5,20.44199142962817,1.977148038038987
0.11532288827413699,0.11704700578538253,101,5,20.44199142962817,1.977148038038987
0.11649306000748486,0.11704583559034952,101,5,20.44199142962817,1.977148038038987
0.11766322003371486,0.11704466540702528,101,5,20.44199142962817,1.977148038038987
0.11883336835357124,0.11704349523540895,101,5,20.44199142962817,1.977148038038987
0.12000350496774986,0.11704232507549975,101,5,20.44199142962817,1.977148038038987
0.12117362987690218,0.1170411549272969,101,5,20.44199142962817,1.977148038038987
0.12234374308163852,0.11703998479079974,101,5,20.44199142962817,1.977148038038987
0.12351384458253117,0.1170388146660076,101,5,20.44199142962817,1.977148038038987
0.12468393438011745,0.11703764455291989,101,5,20.44199142962817,1.977148038038987
0.12585401247490227,0.117036474451536,101,5,20.44199142962817,1.977148038038987
0.12702407886736075,0.11703530436185543,101,5,20.44199142962817,1.977148038038987
0.12819413355794038,0.11703413428387766,101,5,20.44199142962817,1.977148038038987
0.12936417654706328,0.1170329642176022,101,5,20.44199142962817,1.977148038038987
0.1305342078351281,0.11703179416302863,101,5,20.44199142962817,1.977148038038987
0.13170422742251175,0.11703062412015651,101,5,20.44199142962817,1.977148038038987
0.13287423530957118,0.11702945408898545,101,5,20.44199142962817,1.977148038038987
0.1340442314966449,0.11702828406951507,101,5,20.44199142962817,1.977148038038987
0.13521421598405428,0.11702711406174501,101,5,20.44199142962817,1.977148038038987
0.136384188772105,0.11702594406567494,101,5,20.44199142962817,1.977148038038987
0.13755414986108833,0.11702477408130454,101,5,20.44199142962817,1.977148038038987
0.13872409925128193,0.1170236041086335,101,5,20.44199142962817,1.977148038038987
0.13989403694295122,0.1170224341476615,101,5,20.44199142962817,1.977148038038987
0.14106396293635015,0.1170212641983883,101,5,20.44199142962817,1.977148038038987
0.1422338772317222,0.11702009426081364,101,5,20.44199142962817,1.977148038038987
0.14340377982930103,0.11701892433493723,101,5,20.44199142962817,1.977148038038987
0.14457367072931132,0.11701775442075885,101,5,20.44199142962817,1.977148038038987
0.14574354993196947,0.11701658451827826,101,5,20.44199142962817,1.977148038038987
0.14691341743748432,0.11701541462749525,101,5,20.44199142962817,1.977148038038987
0.1480832732460575,0.11701424474840957,101,5,20.44199142962817,1.977148038038987
0.14925311735788416,0.11701307488102106,101,5,20.44199142962817,1.977148038038987
0.15042294977315343,0.11701190502532947,101,5,20.44199142962817,1.977148038038987
0.151592770492049,0.11701073518133463,101,5,20.44199142962817,1.977148038038987
0.15276257951474922,0.11700956534903634,101,5,20.44199142962817,1.977148038038987
0.15393237684142788,0.11700839552843444,101,5,20.44199142962817,1.977148038038987
0.1551021624722543,0.11700722571952872,101,5,20.44199142962817,1.977148038038987
0.15627193640739384,0.11700605592231902,101,5,20.44199142962817,1.977148038038987
0.15744169864700802,0.11700488613680518,101,5,20.44199142962817,1.977148038038987
0.15861144919125506,0.11700371636298701,101,5,20.44199142962817,1.977148038038987
0.15978118804028987,0.11700254660086438,101,5,20.44199142962817,1.977148038038987
0.1609509151942646,0.11700137685043711,101,5,20.44199142962817,1.977148038038987
0.16212063065332855,0.11700020711170506,101,5,20.44199142962817,1.977148038038987
0.16329033441762852,0.11699903738466805,101,5,20.44199142962817,1.977148038038987
0.16446002648730915,0.11699786766932596,101,5,20.44199142962817,1.977148038038987
0.16562970686251277,0.11699669796567863,101,5,20.44199142962817,1.977148038038987
0.16679937554337998,0.11699552827372592,101,5,20.44199142962817,1.977148038038987
0.16796903253004924,0.11699435859346768,101,5,20.44199142962817,1.977148038038987
0.1691386778226576,0.11699318892490379,101,5,20.44199142962817,1.977148038038987
0.17030831142134048,0.1169920192680341,101,5,20.44199142962817,1.977148038038987
0.17147793332623196,0.11699084962285845,101,5,20.44199142962817,1.977148038038987
0.1726475435374646,0.11698967998937673,101,5,20.44199142962817,1.977148038038987
0.17381714205516988,0.11698851036758881,101,5,20.44199142962817,1.977148038038987
0.17498672887947828,0.11698734075749453,101,5,20.44199142962817,1.977148038038987
0.17615630401051896,0.1169861711590938,101,5,20.44199142962817,1.977148038038987
0.17732586744842038,0.11698500157238645,101,5,20.44199142962817,1.977148038038987
0.17849541919331,0.11698383199737236,101,5,20.44199142962817,1.977148038038987
0.17966495924531445,0.11698266243405142,101,5,20.44199142962817,1.977148038038987
0.18083448760455956,0.11698149288242349,101,5,20.44199142962817,1.977148038038987
0.1820040042711707,0.11698032334248844,101,5,20.44199142962817,1.977148038038987
0.18317350924527234,0.11697915381424616,101,5,20.44199142962817,1.977148038038987
0.18434300252698846,0.1169779842976965,101,5,20.44199142962817,1.977148038038987
0.18551248411644256,0.11697681479283935,101,5,20.44199142962817,1.977148038038987
0.1866819540137575,0.11697564529967458,101,5,20.44199142962817,1.977148038038987
0.18785141221905577,0.11697447581820208,101,5,20.44199142962817,1.977148038038987
0.18902085873245944,0.11697330634842171,101,5,20.44199142962817,1.977148038038987
0.19019029355409015,0.11697213689033337,101,5,20.44199142962817,1.977148038038987
0.19135971668406906,0.11697096744393691,101,5,20.44199142962817,1.977148038038987
0.19252912812251727,0.11696979800923223,101,5,20.44199142962817,1.977148038038987
0.19369852786955524,0.11696862858621919,101,5,20.44199142962817,1.977148038038987
0.19486791592530342,0.11696745917489768,101,5,20.44199142962817,1.977148038038987
0.19603729228988181,0.11696628977526759,101,5,20.44199142962817,1.977148038038987
0.19720665696341028,0.11696512038732879,101,5,20.44199142962817,1.977148038038987
0.19837600994600837,0.11696395101108115,101,5,20.44199142962817,1.977148038038987
0.19954535123779546,0.11696278164652456,101,5,20.44199142962817,1.977148038038987
0.20071468083889082,0.1169616122936589,101,5,20.44199142962817,1.977148038038987
0.2018839987494134,0.11696044295248403,101,5,20.44199142962817,1.977148038038987
0.20305330496948204,0.11695927362299988,101,5,20.44199142962817,1.977148038038987
0.20422259949921545,0.1169581043052063,101,5,20.44199142962817,1.977148038038987
0.20539188233873223,0.11695693499910316,101,5,20.44199142962817,1.977148038038987
0.2065611534881507,0.11695576570469035,101,5,20.44199142962817,1.977148038038987
0.20773041294758923,0.11695459642196777,101,5,20.44199142962817,1.977148038038987
0.208899660717166,0.11695342715093528,101,5,20.44199142962817,1.977148038038987
0.21006889679699908,0.11695225789159278,101,5,20.44199142962817,1.977148038038987
0.21123812118720647,0.11695108864394012,101,5,20.44199142962817,1.977148038038987
0.21240733388790617,0.11694991940797721,101,5,20.44199142962817,1.977148038038987
0.21357653489921583,0.11694875018370393,101,5,20.44199142962817,1.977148038038987
0.2147457242212533,0.11694758097112015,101,5,20.44199142962817,1.977148038038987
0.21591490185413628,0.11694641177022577,101,5,20.44199142962817,1.977148038038987
0.21708406779798226,0.11694524258102065,101,5,20.44199142962817,1.977148038038987
0.21825322205290898,0.11694407340350468,101,5,20.44199142962817,1.977148038038987
0.21942236461903383,0.11694290423767777,101,5,20.44199142962817,1.977148038038987
0.22059149549647428,0.11694173508353975,101,5,20.44199142962817,1.977148038038987
0.22176061468534772,0.11694056594109055,101,5,20.44199142962817,1.977148038038987
0.22292972218577156,0.11693939681033001,101,5,20.44199142962817,1.977148038038987
0.2240988179978631,0.11693822769125806,101,5,20.44199142962817,1.977148038038987
0.2252679021217396,0.11693705858387454,101,5,20.44199142962817,1.977148038038987
0.22643697455751838,0.11693588948817937,101,5,20.44199142962817,1.977148038038987
0.22760603530531665,0.1169347204041724,101,5,20.44199142962817,1.977148038038987
0.22877508436525149,0.11693355133185353,101,5,20.44199142962817,1.977148038038987
0.2299441217374402,0.11693238227122264,101,5,20.44199142962817,1.977148038038987
0.2311131474219998,0.11693121322227962,101,5,20.44199142962817,1.977148038038987
0.23228216141904748,0.11693004418502433,101,5,20.44199142962817,1.977148038038987
0.2334511637287003,0.11692887515945667,101,5,20.44199142962817,1.977148038038987
0.23462015435107536,0.11692770614557653,101,5,20.44199142962817,1.977148038038987
0.2357891332862897,0.11692653714338379,101,5,20.44199142962817,1.977148038038987
0.23695810053446034,0.11692536815287831,101,5,20.44199142962817,1.977148038038987
0.2381270560957043,0.11692419917406,101,5,20.44199142962817,1.977148038038987
0.23929599997013873,0.11692303020692872,101,5,20.44199142962817,1.977148038038987
0.2404649321578804,0.11692186125148438,101,5,20.44199142962817,1.977148038038987
0.2416338526590464,0.11692069230772684,101,5,20.44199142962817,1.977148038038987
0.24280276147375368,0.11691952337565599,101,5,20.44199142962817,1.977148038038987
0.2439716586021192,0.11691835445527173,101,5,20.44199142962817,1.977148038038987
0.24514054404425994,0.1169171855465739,101,5,20.44199142962817,1.977148038038987
0.24630941780029283,0.11691601664956243,101,5,20.44199142962817,1.977148038038987
0.24747827987033474,0.11691484776423719,101,5,20.44199142962817,1.977148038038987
0.2486471302545026,0.11691367889059805,101,5,20.44199142962817,1.977148038038987
0.24981596895291336,0.11691251002864489,101,5,20.44199142962817,1.977148038038987
0.25098479596568385,0.1169113411783776,101,5,20.44199142962817,1.977148038038987
0.25215361129293107,0.11691017233979609,101,5,20.44199142962817,1.977148038038987
0.25332241493477187,0.11690900351290019,101,5,20.44199142962817,1.977148038038987
0.2544912068913231,0.11690783469768984,101,5,20.44199142962817,1.977148038038987
0.2556599871627017,0.11690666589416487,101,5,20.44199142962817,1.977148038038987
0.2568287557490246,0.1169054971023252,101,5,20.44199142962817,1.977148038038987
0.2579975126504084,0.11690432832217071,101,5,20.44199142962817,1.977148038038987
0.2591662578669703,0.11690315955370127,101,5,20.44199142962817,1.977148038038987
0.26033499139882693,0.11690199079691677,101,5,20.44199142962817,1.977148038038987
0.26150371324609517,0.11690082205181708,101,5,20.44199142962817,1.977148038038987
0.262672423408892,0.11689965331840209,101,5,20.44199142962817,1.977148038038987
0.26384112188733416,0.1168984845966717,101,5,20.44199142962817,1.977148038038987
0.26500980868153856,0.11689731588662577,101,5,20.44199142962817,1.977148038038987
0.266178483791622,0.1168961471882642,101,5,20.44199142962817,1.977148038038987
0.26734714721770125,0.11689497850158688,101,5,20.44199142962817,1.977148038038987
0.26851579895989325,0.11689380982659366,101,5,20.44199142962817,1.977148038038987
0.2696844390183148,0.11689264116328445,101,5,20.44199142962817,1.977148038038987
0.27085306739308285,0.11689147251165913,101,5,20.44199142962817,1.977148038038987
0.272021684084314,0.11689030387171757,101,5,20.44199142962817,1.977148038038987
0.27319028909212517,0.11688913524345966,101,5,20.44199142962817,1.977148038038987
0.2743588824166332,0.1168879666268853,101,5,20.44199142962817,1.977148038038987
0.2755274640579549,0.11688679802199435,101,5,20.44199142962817,1.977148038038987
0.27669603401620707,0.1168856294287867,101,5,20.44199142962817,1.977148038038987
0.2778645922915066,0.11688446084726224,101,5,20.44199142962817,1.977148038038987
0.2790331388839702,0.11688329227742085,101,5,20.44199142962817,1.977148038038987
0.2802016737937147,0.1168821237192624,101,5,20.44199142962817,1.977148038038987
0.281370197020857,0.11688095517278681,101,5,20.44199142962817,1.977148038038987
