Vout,Iout,Irradiance,Temperature,MaxVoltage,MaxPower
0.008780765569561831,1.7561699999999998,1501,10,20.830595581918953,36.14887251979659
0.026342134344019445,1.7561699999999998,1501,10,20.830595581918953,36.14887251979659
0.04390314610025467,1.7561610436174302,1501,10,20.830595581918953,36.14887251979659
0.06146373705708032,1.7561434822486557,1501,10,20.830595581918953,36.14887251979659
0.07902388636969787,1.756125921237795,1501,10,20.830595581918953,36.14887251979659
0.09658361451432532,1.7561083606485945,1501,10,20.830595581918953,36.14887251979659
0.11414294039242677,1.756090800501038,1501,10,20.830595581918953,36.14887251979659
0.13170188145148773,1.7560732407746493,1501,10,20.830595581918953,36.14887251979659
0.14926045379669167,1.7560556814505273,1501,10,20.830595581918953,36.14887251979659
0.16681867229419897,1.7560381225112243,1501,10,20.830595581918953,36.14887251979659
0.18437655066647937,1.756020563940635,1501,10,20.830595581918953,36.14887251979659
0.20193410158030908,1.7560030057238933,1501,10,20.830595581918953,36.14887251979659
0.21949133672799778,1.755985447847277,1501,10,20.830595581918953,36.14887251979659
0.2370482669023655,1.7559678902981188,1501,10,20.830595581918953,36.14887251979659
0.25460490206595054,1.755950333064727,1501,10,20.830595581918953,36.14887251979659
0.2721612514148931,1.7559327761363084,1501,10,20.830595581918953,36.14887251979659
0.28971732343790285,1.7559152195029006,1501,10,20.830595581918953,36.14887251979659
0.30727312597068956,1.7558976631553074,1501,10,20.830595581918953,36.14887251979659
0.32482866624620654,1.7558801070850398,1501,10,20.830595581918953,36.14887251979659
0.34238395094102697,1.7558625512842627,1501,10,20.830595581918953,36.14887251979659
0.35993898621815323,1.755844995745743,1501,10,20.830595581918953,36.14887251979659
0.3774937777665314,1.7558274404628036,1501,10,20.830595581918953,36.14887251979659
0.3950483308375263,1.755809885429282,1501,10,20.830595581918953,36.14887251979659
0.41260265027858944,1.7557923306394891,1501,10,20.830595581918953,36.14887251979659
0.43015674056433656,1.7557747760881737,1501,10,20.830595581918953,36.14887251979659
0.4477106058252347,1.7557572217704882,1501,10,20.830595581918953,36.14887251979659
0.46526424987408105,1.7557396676819579,1501,10,20.830595581918953,36.14887251979659
0.48281767623044536,1.7557221138184524,1501,10,20.830595581918953,36.14887251979659
0.5003708881432309,1.755704560176159,1501,10,20.830595581918953,36.14887251979659
0.5179238886115006,1.755687006751558,1501,10,20.830595581918953,36.14887251979659
0.5354766804036992,1.7556694535414006,1501,10,20.830595581918953,36.14887251979659
0.5530292660753984,1.7556519005426876,1501,10,20.830595581918953,36.14887251979659
0.5705816479856748,1.7556343477526508,1501,10,20.830595581918953,36.14887251979659
0.5881338283122292,1.7556167951687343,1501,10,20.830595581918953,36.14887251979659
0.6056858090653415,1.7555992427885794,1501,10,20.830595581918953,36.14887251979659
0.6232375921007525,1.7555816906100081,1501,10,20.830595581918953,36.14887251979659
0.6407891791315544,1.7555641386310101,1501,10,20.830595581918953,36.14887251979659
0.6583405717391664,1.75554658684973,1501,10,20.830595581918953,36.14887251979659
0.6758917713834657,1.7555290352644544,1501,10,20.830595581918953,36.14887251979659
0.6934427794121388,1.755511483873602,1501,10,20.830595581918953,36.14887251979659
0.7109935970693152,1.7554939326757129,1501,10,20.830595581918953,36.14887251979659
0.7285442255035328,1.7554763816694392,1501,10,20.830595581918953,36.14887251979659
0.7460946657750949,1.7554588308535373,1501,10,20.830595581918953,36.14887251979659
0.7636449188628586,1.7554412802268582,1501,10,20.830595581918953,36.14887251979659
0.7811949856704998,1.7554237297883417,1501,10,20.830595581918953,36.14887251979659
0.7987448670323006,1.7554061795370088,1501,10,20.830595581918953,36.14887251979659
0.8162945637184864,1.7553886294719563,1501,10,20.830595581918953,36.14887251979659
0.8338440764401552,1.7553710795923496,1501,10,20.830595581918953,36.14887251979659
0.8513934058538273,1.7553535298974183,1501,10,20.830595581918953,36.14887251979659
0.8689425525656438,1.7553359803864517,1501,10,20.830595581918953,36.14887251979659
0.8864915171352434,1.755318431058793,1501,10,20.830595581918953,36.14887251979659
0.9040403000793407,1.755300881913836,1501,10,20.830595581918953,36.14887251979659
0.9215889018750277,1.7552833329510213,1501,10,20.830595581918953,36.14887251979659
0.9391373229628238,1.7552657841698323,1501,10,20.830595581918953,36.14887251979659
0.9566855637494885,1.7552482355697914,1501,10,20.830595581918953,36.14887251979659
0.9742336246106201,1.7552306871504586,1501,10,20.830595581918953,36.14887251979659
0.9917815058930523,1.7552131389114267,1501,10,20.830595581918953,36.14887251979659
1.009329207917068,1.7551955908523205,1501,10,20.830595581918953,36.14887251979659
1.026876730978442,1.7551780429727928,1501,10,20.830595581918953,36.14887251979659
1.044424075350326,1.7551604952725237,1501,10,20.830595581918953,36.14887251979659
1.061971241284991,1.755142947751217,1501,10,20.830595581918953,36.14887251979659
1.0795182290154324,1.7551254004085999,1501,10,20.830595581918953,36.14887251979659
1.0970650387568535,1.75510785324442,1501,10,20.830595581918953,36.14887251979659
1.1146116707080336,1.7550903062584444,1501,10,20.830595581918953,36.14887251979659
1.1321581250525936,1.7550727594504576,1501,10,20.830595581918953,36.14887251979659
1.1497044019601612,1.7550552128202612,1501,10,20.830595581918953,36.14887251979659
1.167250501587447,1.7550376663676712,1501,10,20.830595581918953,36.14887251979659
1.1847964240792395,1.7550201200925184,1501,10,20.830595581918953,36.14887251979659
1.2023421695693215,1.7550025739946458,1501,10,20.830595581918953,36.14887251979659
1.2198877381813173,1.7549850280739085,1501,10,20.830595581918953,36.14887251979659
1.2374331300294747,1.754967482330173,1501,10,20.830595581918953,36.14887251979659
1.2549783452193854,1.7549499367633157,1501,10,20.830595581918953,36.14887251979659
1.2725233838486523,1.754932391373222,1501,10,20.830595581918953,36.14887251979659
1.2900682460075028,1.7549148461597868,1501,10,20.830595581918953,36.14887251979659
1.3076129317793574,1.754897301122912,1501,10,20.830595581918953,36.14887251979659
1.3251574412413527,1.7548797562625076,1501,10,20.830595581918953,36.14887251979659
1.3427017744648257,1.7548622115784904,1501,10,20.830595581918953,36.14887251979659
1.3602459315157591,1.754844667070783,1501,10,20.830595581918953,36.14887251979659
1.3777899124551938,1.7548271227393137,1501,10,20.830595581918953,36.14887251979659
1.395333717339609,1.7548095785840174,1501,10,20.830595581918953,36.14887251979659
1.4128773462212736,1.7547920346048322,1501,10,20.830595581918953,36.14887251979659
1.4304207991485693,1.7547744908017022,1501,10,20.830595581918953,36.14887251979659
1.4479640761662902,1.754756947174575,1501,10,20.830595581918953,36.14887251979659
1.4655071773159187,1.754739403723402,1501,10,20.830595581918953,36.14887251979659
1.4830501026358807,1.7547218604481387,1501,10,20.830595581918953,36.14887251979659
1.5005928521617802,1.7547043173487435,1501,10,20.830595581918953,36.14887251979659
1.5181354259266164,1.754686774425178,1501,10,20.830595581918953,36.14887251979659
1.535677823960985,1.7546692316774062,1501,10,20.830595581918953,36.14887251979659
1.5532200462932624,1.7546516891053958,1501,10,20.830595581918953,36.14887251979659
1.570762092949776,1.7546341467091155,1501,10,20.830595581918953,36.14887251979659
1.5883039639549639,1.7546166044885376,1501,10,20.830595581918953,36.14887251979659
1.6058456593315162,1.7545990624436354,1501,10,20.830595581918953,36.14887251979659
1.623387179100515,1.7545815205743844,1501,10,20.830595581918953,36.14887251979659
1.6409285232815527,1.754563978880762,1501,10,20.830595581918953,36.14887251979659
1.6584696918928503,1.7545464373627473,1501,10,20.830595581918953,36.14887251979659
1.6760106849513625,1.7545288960203202,1501,10,20.830595581918953,36.14887251979659
1.6935515024728724,1.7545113548534632,1501,10,20.830595581918953,36.14887251979659
1.7110921444720852,1.7544938138621589,1501,10,20.830595581918953,36.14887251979659
1.72863261096271,1.7544762730463914,1501,10,20.830595581918953,36.14887251979659
1.7461729019575332,1.7544587324061462,1501,10,20.830595581918953,36.14887251979659
1.7637130174684958,1.7544411919414098,1501,10,20.830595581918953,36.14887251979659
1.781252957506752,1.754423651652169,1501,10,20.830595581918953,36.14887251979659
1.7987927220827344,1.7544061115384122,1501,10,20.830595581918953,36.14887251979659
1.816332311206207,1.754388571600128,1501,10,20.830595581918953,36.14887251979659
1.833871724886318,1.7543710318373058,1501,10,20.830595581918953,36.14887251979659
1.8514109631316462,1.7543534922499364,1501,10,20.830595581918953,36.14887251979659
1.8689500259502454,1.7543359528380102,1501,10,20.830595581918953,36.14887251979659
1.886488913349684,1.7543184136015189,1501,10,20.830595581918953,36.14887251979659
1.904027625337084,1.7543008745404542,1501,10,20.830595581918953,36.14887251979659
1.9215661619191535,1.7542833356548087,1501,10,20.830595581918953,36.14887251979659
1.9391045231022195,1.7542657969445752,1501,10,20.830595581918953,36.14887251979659
1.9566427088922567,1.754248258409747,1501,10,20.830595581918953,36.14887251979659
1.9741807192949161,1.7542307200503178,1501,10,20.830595581918953,36.14887251979659
1.9917185543155473,1.7542131818662816,1501,10,20.830595581918953,36.14887251979659
2.0092562139592243,1.754195643857633,1501,10,20.830595581918953,36.14887251979659
2.0267936982307653,1.754178106024366,1501,10,20.830595581918953,36.14887251979659
2.0443310071347516,1.7541605683664763,1501,10,20.830595581918953,36.14887251979659
2.061868140675549,1.7541430308839585,1501,10,20.830595581918953,36.14887251979659
2.0794050988573196,1.7541254935768082,1501,10,20.830595581918953,36.14887251979659
2.096941881684043,1.754107956445021,1501,10,20.830595581918953,36.14887251979659
2.114478489159525,1.7540904194885931,1501,10,20.830595581918953,36.14887251979659
2.1320149212874147,1.75407288270752,1501,10,20.830595581918953,36.14887251979659
2.1495511780712144,1.7540553461017983,1501,10,20.830595581918953,36.14887251979659
2.1670872595142927,1.7540378096714242,1501,10,20.830595581918953,36.14887251979659
2.184623165619894,1.7540202734163939,1501,10,20.830595581918953,36.14887251979659
2.2021588963911465,1.7540027373367044,1501,10,20.830595581918953,36.14887251979659
2.2196944518310744,1.7539852014323525,1501,10,20.830595581918953,36.14887251979659
2.2372298319426025,1.753967665703335,1501,10,20.830595581918953,36.14887251979659
2.2547650367285663,1.7539501301496485,1501,10,20.830595581918953,36.14887251979659
2.272300066191717,1.7539325947712907,1501,10,20.830595581918953,36.14887251979659
2.28983492033473,1.7539150595682582,1501,10,20.830595581918953,36.14887251979659
2.307369599160211,1.7538975245405486,1501,10,20.830595581918953,36.14887251979659
2.3249041026706956,1.7538799896881592,1501,10,20.830595581918953,36.14887251979659
2.342438430868664,1.753862455011087,1501,10,20.830595581918953,36.14887251979659
2.3599725837565373,1.75384492050933,1501,10,20.830595581918953,36.14887251979659
2.3775065613366873,1.7538273861828857,1501,10,20.830595581918953,36.14887251979659
2.395040363611435,1.753809852031751,1501,10,20.830595581918953,36.14887251979659
2.412573990583062,1.7537923180559245,1501,10,20.830595581918953,36.14887251979659
2.4301074422538056,1.7537747842554032,1501,10,20.830595581918953,36.14887251979659
2.447640718625867,1.7537572506301848,1501,10,20.830595581918953,36.14887251979659
2.4651738197014135,1.7537397171802676,1501,10,20.830595581918953,36.14887251979659
2.4827067454825786,1.753722183905649,1501,10,20.830595581918953,36.14887251979659
2.5002394959714693,1.7537046508063268,1501,10,20.830595581918953,36.14887251979659
2.5177720711701634,1.7536871178822988,1501,10,20.830595581918953,36.14887251979659
2.5353044710807136,1.7536695851335633,1501,10,20.830595581918953,36.14887251979659
2.5528366957051505,1.7536520525601178,1501,10,20.830595581918953,36.14887251979659
2.570368745045481,1.7536345201619605,1501,10,20.830595581918953,36.14887251979659
2.5879006191036957,1.7536169879390895,1501,10,20.830595581918953,36.14887251979659
2.605432317881765,1.7535994558915022,1501,10,20.830595581918953,36.14887251979659
2.6229638413816425,1.7535819240191972,1501,10,20.830595581918953,36.14887251979659
2.6404951896052657,1.7535643923221724,1501,10,20.830595581918953,36.14887251979659
2.6580263625545606,1.7535468608004257,1501,10,20.830595581918953,36.14887251979659
2.675557360231436,1.7535293294539553,1501,10,20.830595581918953,36.14887251979659
2.693088182637792,1.753511798282759,1501,10,20.830595581918953,36.14887251979659
2.7106188297755143,1.7534942672868354,1501,10,20.830595581918953,36.14887251979659
2.7281493016464813,1.753476736466182,1501,10,20.830595581918953,36.14887251979659
2.745679598252559,1.7534592058207976,1501,10,20.830595581918953,36.14887251979659
2.7632097195956065,1.7534416753506796,1501,10,20.830595581918953,36.14887251979659
2.780739665677473,1.7534241450558266,1501,10,20.830595581918953,36.14887251979659
2.798269436500003,1.7534066149362366,1501,10,20.830595581918953,36.14887251979659
2.8157990320650303,1.7533890849919078,1501,10,20.830595581918953,36.14887251979659
2.8333284523743867,1.7533715552228384,1501,10,20.830595581918953,36.14887251979659
2.850857697429894,1.7533540256290263,1501,10,20.830595581918953,36.14887251979659
2.868386767233368,1.7533364962104698,1501,10,20.830595581918953,36.14887251979659
2.885915661786624,1.7533189669671674,1501,10,20.830595581918953,36.14887251979659
2.90344438109147,1.7533014378991167,1501,10,20.830595581918953,36.14887251979659
2.9209729251497083,1.7532839090063164,1501,10,20.830595581918953,36.14887251979659
2.9385012939631396,1.7532663802887645,1501,10,20.830595581918953,36.14887251979659
2.95602948753356,1.7532488517464593,1501,10,20.830595581918953,36.14887251979659
2.9735575058627624,1.7532313233793986,1501,10,20.830595581918953,36.14887251979659
2.9910853489525353,1.753213795187581,1501,10,20.830595581918953,36.14887251979659
3.0086130168046656,1.7531962671710046,1501,10,20.830595581918953,36.14887251979659
3.0261405094209377,1.7531787393296678,1501,10,20.830595581918953,36.14887251979659
3.0436678268031327,1.7531612116635684,1501,10,20.830595581918953,36.14887251979659
3.0611949689530302,1.7531436841727048,1501,10,20.830595581918953,36.14887251979659
3.078721935872406,1.7531261568570755,1501,10,20.830595581918953,36.14887251979659
3.0962487275630366,1.7531086297166782,1501,10,20.830595581918953,36.14887251979659
3.113775344026694,1.7530911027515117,1501,10,20.830595581918953,36.14887251979659
3.1313017852651517,1.7530735759615739,1501,10,20.830595581918953,36.14887251979659
3.148828051280177,1.7530560493468628,1501,10,20.830595581918953,36.14887251979659
3.1663541420735415,1.753038522907377,1501,10,20.830595581918953,36.14887251979659
3.183880057647011,1.7530209966431147,1501,10,20.830595581918953,36.14887251979659
3.201405798002352,1.753003470554074,1501,10,20.830595581918953,36.14887251979659
3.218931363141329,1.7529859446402531,1501,10,20.830595581918953,36.14887251979659
3.236456753065706,1.7529684189016503,1501,10,20.830595581918953,36.14887251979659
3.2539819677772472,1.752950893338264,1501,10,20.830595581918953,36.14887251979659
3.2715070072777137,1.7529333679500922,1501,10,20.830595581918953,36.14887251979659
3.2890318715688664,1.7529158427371332,1501,10,20.830595581918953,36.14887251979659
3.3065565606524667,1.7528983176993853,1501,10,20.830595581918953,36.14887251979659
3.324081074530274,1.7528807928368466,1501,10,20.830595581918953,36.14887251979659
3.3416054132040487,1.7528632681495155,1501,10,20.830595581918953,36.14887251979659
3.3591295766755476,1.7528457436373903,1501,10,20.830595581918953,36.14887251979659
3.3766535649465297,1.752828219300469,1501,10,20.830595581918953,36.14887251979659
3.394177378018752,1.7528106951387499,1501,10,20.830595581918953,36.14887251979659
3.4117010158939722,1.7527931711522313,1501,10,20.830595581918953,36.14887251979659
3.429224478573947,1.7527756473409115,1501,10,20.830595581918953,36.14887251979659
3.4467477660604313,1.7527581237047887,1501,10,20.830595581918953,36.14887251979659
3.464270878355183,1.752740600243861,1501,10,20.830595581918953,36.14887251979659
3.481793815459956,1.752723076958127,1501,10,20.830595581918953,36.14887251979659
3.499316577376505,1.7527055538475846,1501,10,20.830595581918953,36.14887251979659
3.5168391641065875,1.7526880309122321,1501,10,20.830595581918953,36.14887251979659
3.5343615756519555,1.752670508152068,1501,10,20.830595581918953,36.14887251979659
3.5518838120143648,1.75265298556709,1501,10,20.830595581918953,36.14887251979659
3.56940587319557,1.7526354631572971,1501,10,20.830595581918953,36.14887251979659
3.586927759197323,1.752617940922687,1501,10,20.830595581918953,36.14887251979659
3.604449470021377,1.7526004188632578,1501,10,20.830595581918953,36.14887251979659
3.6219710056694883,1.7525828969790083,1501,10,20.830595581918953,36.14887251979659
3.6394923661434087,1.7525653752699366,1501,10,20.830595581918953,36.14887251979659
3.6570135514448916,1.7525478537360406,1501,10,20.830595581918953,36.14887251979659
3.6745345615756895,1.752530332377319,1501,10,20.830595581918953,36.14887251979659
3.692055396537556,1.7525128111937696,1501,10,20.830595581918953,36.14887251979659
3.709576056332242,1.752495290185391,1501,10,20.830595581918953,36.14887251979659
3.727096540961503,1.7524777693521811,1501,10,20.830595581918953,36.14887251979659
3.744616850427089,1.7524602486941385,1501,10,20.830595581918953,36.14887251979659
3.7621369847307524,1.7524427282112613,1501,10,20.830595581918953,36.14887251979659
3.7796569438742464,1.7524252079035478,1501,10,20.830595581918953,36.14887251979659
3.797176727859323,1.7524076877709962,1501,10,20.830595581918953,36.14887251979659
3.814696336687734,1.7523901678136047,1501,10,20.830595581918953,36.14887251979659
3.832215770361231,1.7523726480313717,1501,10,20.830595581918953,36.14887251979659
3.849735028881567,1.7523551284242953,1501,10,20.830595581918953,36.14887251979659
3.867254112250493,1.7523376089923737,1501,10,20.830595581918953,36.14887251979659
3.884773020469761,1.7523200897356053,1501,10,20.830595581918953,36.14887251979659
3.9022917535411223,1.7523025706539883,1501,10,20.830595581918953,36.14887251979659
3.9198103114663287,1.752285051747521,1501,10,20.830595581918953,36.14887251979659
3.9373286942471317,1.7522675330162016,1501,10,20.830595581918953,36.14887251979659
3.9548469018852823,1.7522500144600284,1501,10,20.830595581918953,36.14887251979659
3.9723649343825334,1.7522324960789994,1501,10,20.830595581918953,36.14887251979659
3.9898827917406363,1.752214977873113,1501,10,20.830595581918953,36.14887251979659
4.00740047396134,1.7521974598423677,1501,10,20.830595581918953,36.14887251979659
4.024917981046398,1.7521799419867614,1501,10,20.830595581918953,36.14887251979659
4.0424353129975605,1.7521624243062925,1501,10,20.830595581918953,36.14887251979659
4.059952469816579,1.7521449068009591,1501,10,20.830595581918953,36.14887251979659
4.077469451505206,1.7521273894707599,1501,10,20.830595581918953,36.14887251979659
4.09498625806519,1.7521098723156925,1501,10,20.830595581918953,36.14887251979659
4.112502889498284,1.7520923553357557,1501,10,20.830595581918953,36.14887251979659
4.130019345806238,1.7520748385309473,1501,10,20.830595581918953,36.14887251979659
4.147535626990805,1.752057321901266,1501,10,20.830595581918953,36.14887251979659
4.165051733053733,1.7520398054467097,1501,10,20.830595581918953,36.14887251979659
