Vout,Iout,Irradiance,Temperature,MaxVoltage,MaxPower
0.011076043499581736,2.21523,1801,40,22.90281932224271,50.1362599817725
0.03322792569221784,2.21523,1801,40,22.90281932224271,50.1362599817725
0.055379357542645176,2.2152187024335004,1801,40,22.90281932224271,50.1362599817725
0.07753025859737728,2.215196550551308,1801,40,22.90281932224271,50.1362599817725
0.099680602562819,2.215174399120587,1801,40,22.90281932224271,50.1362599817725
0.12183041526763863,2.2151522482217474,1801,40,22.90281932224271,50.1362599817725
0.14397972055411246,2.2151300978799973,1801,40,22.90281932224271,50.1362599817725
0.16612854043047046,2.2151079480695075,1801,40,22.90281932224271,50.1362599817725
0.18827689521176502,2.2150857987664363,1801,40,22.90281932224271,50.1362599817725
0.2104248036501469,2.2150636499487746,1801,40,22.90281932224271,50.1362599817725
0.23257228305511718,2.2150415015962084,1801,40,22.90281932224271,50.1362599817725
0.254719349404527,2.2150193536899847,1801,40,22.90281932224271,50.1362599817725
0.27686601744703676,2.2149972062127947,1801,40,22.90281932224271,50.1362599817725
0.2990123007966923,2.21497505914866,1801,40,22.90281932224271,50.1362599817725
0.3211582120202234,2.214952912482832,1801,40,22.90281932224271,50.1362599817725
0.3433037627176263,2.2149307662016975,1801,40,22.90281932224271,50.1362599817725
0.3654489635965456,2.2149086202926886,1801,40,22.90281932224271,50.1362599817725
0.3875938245409333,2.2148864747442056,1801,40,22.90281932224271,50.1362599817725
0.40973835467442454,2.2148643295455415,1801,40,22.90281932224271,50.1362599817725
0.43188256241883827,2.2148421846868116,1801,40,22.90281932224271,50.1362599817725
0.45402645554817556,2.2148200401588927,1801,40,22.90281932224271,50.1362599817725
0.4761700412384639,2.2147978959533625,1801,40,22.90281932224271,50.1362599817725
0.4983133261137665,2.214775752062448,1801,40,22.90281932224271,50.1362599817725
0.5204563162886505,2.214753608478972,1801,40,22.90281932224271,50.1362599817725
0.5425990174073895,2.2147314651963113,1801,40,22.90281932224271,50.1362599817725
0.5647414346801474,2.2147093222083507,1801,40,22.90281932224271,50.1362599817725
0.5868835729163808,2.214687179509446,1801,40,22.90281932224271,50.1362599817725
0.6090254365556691,2.2146650370943877,1801,40,22.90281932224271,50.1362599817725
0.6311670296961738,2.2146428949583656,1801,40,22.90281932224271,50.1362599817725
0.6533083561209077,2.214620753096941,1801,40,22.90281932224271,50.1362599817725
0.6754494193219829,2.2145986115060143,1801,40,22.90281932224271,50.1362599817725
0.697590222522993,2.214576470181804,1801,40,22.90281932224271,50.1362599817725
0.7197307686996738,2.214554329120817,1801,40,22.90281932224271,50.1362599817725
0.7418710605989736,2.21453218831983,1801,40,22.90281932224271,50.1362599817725
0.7640111007566559,2.2145100477758675,1801,40,22.90281932224271,50.1362599817725
0.7861508915135493,2.2144879074861823,1801,40,22.90281932224271,50.1362599817725
0.8082904350305455,2.2144657674482384,1801,40,22.90281932224271,50.1362599817725
0.8304297333024443,2.214443627659696,1801,40,22.90281932224271,50.1362599817725
0.852568788170732,2.2144214881183926,1801,40,22.90281932224271,50.1362599817725
0.8747076013353792,2.214399348822335,1801,40,22.90281932224271,50.1362599817725
0.8968461743657274,2.2143772097696806,1801,40,22.90281932224271,50.1362599817725
0.9189845087105414,2.21435507095873,1801,40,22.90281932224271,50.1362599817725
0.9411226057072859,2.2143329323879133,1801,40,22.90281932224271,50.1362599817725
0.9632604665906891,2.2143107940557822,1801,40,22.90281932224271,50.1362599817725
0.9853980925006472,2.2142886559609996,1801,40,22.90281932224271,50.1362599817725
1.0075354844895221,2.2142665181023298,1801,40,22.90281932224271,50.1362599817725
1.0296726435288743,2.214244380478634,1801,40,22.90281932224271,50.1362599817725
1.0518095705156825,2.2142222430888587,1801,40,22.90281932224271,50.1362599817725
1.0739462662780797,2.2142001059320333,1801,40,22.90281932224271,50.1362599817725
1.0960827315806512,2.21417796900726,1801,40,22.90281932224271,50.1362599817725
1.118218967129325,2.214155832313711,1801,40,22.90281932224271,50.1362599817725
1.1403549735758831,2.2141336958506224,1801,40,22.90281932224271,50.1362599817725
1.1624907515221299,2.2141115596172876,1801,40,22.90281932224271,50.1362599817725
1.1846263015237348,2.2140894236130544,1801,40,22.90281932224271,50.1362599817725
1.2067616240937842,2.214067287837322,1801,40,22.90281932224271,50.1362599817725
1.2288967197060567,2.214045152289534,1801,40,22.90281932224271,50.1362599817725
1.251031588798048,2.2140230169691772,1801,40,22.90281932224271,50.1362599817725
1.2731662317737624,2.2140008818757786,1801,40,22.90281932224271,50.1362599817725
1.2953006490062893,2.2139787470089,1801,40,22.90281932224271,50.1362599817725
1.317434840840183,2.213956612368138,1801,40,22.90281932224271,50.1362599817725
1.3395688075936572,2.213934477953119,1801,40,22.90281932224271,50.1362599817725
1.3617025495606108,2.2139123437634987,1801,40,22.90281932224271,50.1362599817725
1.383836067012502,2.213890209798959,1801,40,22.90281932224271,50.1362599817725
1.4059693602000711,2.213868076059205,1801,40,22.90281932224271,50.1362599817725
1.4281024293549365,2.2138459425439665,1801,40,22.90281932224271,50.1362599817725
1.450235274691066,2.2138238092529923,1801,40,22.90281932224271,50.1362599817725
1.4723678964061349,2.213801676186051,1801,40,22.90281932224271,50.1362599817725
1.4945002946827783,2.213779543342928,1801,40,22.90281932224271,50.1362599817725
1.5166324696897502,2.213757410723426,1801,40,22.90281932224271,50.1362599817725
1.5387644215829903,2.2137352783273627,1801,40,22.90281932224271,50.1362599817725
1.5608961505066103,2.213713146154569,1801,40,22.90281932224271,50.1362599817725
1.5830276565938035,2.213691014204889,1801,40,22.90281932224271,50.1362599817725
1.605158939967686,2.2136688824781787,1801,40,22.90281932224271,50.1362599817725
1.62729000074207,2.2136467509743047,1801,40,22.90281932224271,50.1362599817725
1.649420839022183,2.213624619693144,1801,40,22.90281932224271,50.1362599817725
1.671551454905324,2.213602488634583,1801,40,22.90281932224271,50.1362599817725
1.6936818484814777,2.213580357798516,1801,40,22.90281932224271,50.1362599817725
1.7158120198338747,2.213558227184846,1801,40,22.90281932224271,50.1362599817725
1.737941969039512,2.213536096793483,1801,40,22.90281932224271,50.1362599817725
1.7600716961696325,2.2135139666243435,1801,40,22.90281932224271,50.1362599817725
1.7822012012901676,2.213491836677351,1801,40,22.90281932224271,50.1362599817725
1.804330484462146,2.213469706952434,1801,40,22.90281932224271,50.1362599817725
1.8264595457420707,2.2134475774495264,1801,40,22.90281932224271,50.1362599817725
1.848588385182268,2.213425448168567,1801,40,22.90281932224271,50.1362599817725
1.870717002831208,2.2134033191095,1801,40,22.90281932224271,50.1362599817725
1.8928453987338014,2.213381190272273,1801,40,22.90281932224271,50.1362599817725
1.9149735729316746,2.213359061656837,1801,40,22.90281932224271,50.1362599817725
1.9371015254634198,2.213336933263147,1801,40,22.90281932224271,50.1362599817725
1.9592292563648306,2.213314805091162,1801,40,22.90281932224271,50.1362599817725
1.9813567656691176,2.2132926771408434,1801,40,22.90281932224271,50.1362599817725
2.003484053407105,2.2132705494121545,1801,40,22.90281932224271,50.1362599817725
2.025611119607416,2.213248421905063,1801,40,22.90281932224271,50.1362599817725
2.0477379642966422,2.213226294619538,1801,40,22.90281932224271,50.1362599817725
2.0698645874994988,2.2132041675555505,1801,40,22.90281932224271,50.1362599817725
2.0919909892389685,2.213182040713074,1801,40,22.90281932224271,50.1362599817725
2.114117169536439,2.213159914092084,1801,40,22.90281932224271,50.1362599817725
2.136243128411818,2.213137787692557,1801,40,22.90281932224271,50.1362599817725
2.1583688658836553,2.2131156615144723,1801,40,22.90281932224271,50.1362599817725
2.1804943819692424,2.2130935355578094,1801,40,22.90281932224271,50.1362599817725
2.2026196766847104,2.2130714098225504,1801,40,22.90281932224271,50.1362599817725
2.2247447500451187,2.2130492843086773,1801,40,22.90281932224271,50.1362599817725
2.2468696020645393,2.2130271590161743,1801,40,22.90281932224271,50.1362599817725
2.268994232756132,2.2130050339450267,1801,40,22.90281932224271,50.1362599817725
2.2911186421322114,2.2129829090952198,1801,40,22.90281932224271,50.1362599817725
2.313242830204319,2.2129607844667407,1801,40,22.90281932224271,50.1362599817725
2.3353667969832745,2.212938660059577,1801,40,22.90281932224271,50.1362599817725
2.357490542479238,2.2129165358737173,1801,40,22.90281932224271,50.1362599817725
2.3796140667017553,2.2128944119091507,1801,40,22.90281932224271,50.1362599817725
2.4017373696598106,2.212872288165867,1801,40,22.90281932224271,50.1362599817725
2.4238604513618656,2.212850164643857,1801,40,22.90281932224271,50.1362599817725
2.4459833118159007,2.2128280413431116,1801,40,22.90281932224271,50.1362599817725
2.4681059510294534,2.2128059182636215,1801,40,22.90281932224271,50.1362599817725
2.4902283690096505,2.21278379540538,1801,40,22.90281932224271,50.1362599817725
2.5123505657632417,2.2127616727683788,1801,40,22.90281932224271,50.1362599817725
2.534472541296625,2.212739550352611,1801,40,22.90281932224271,50.1362599817725
2.55659429561588,2.2127174281580695,1801,40,22.90281932224271,50.1362599817725
2.578715828726785,2.2126953061847483,1801,40,22.90281932224271,50.1362599817725
2.6008371406348463,2.2126731844326413,1801,40,22.90281932224271,50.1362599817725
2.6229582313453155,2.2126510629017426,1801,40,22.90281932224271,50.1362599817725
2.6450791008632106,2.2126289415920466,1801,40,22.90281932224271,50.1362599817725
2.6671997491933332,2.2126068205035483,1801,40,22.90281932224271,50.1362599817725
2.6893201763402863,2.212584699636243,1801,40,22.90281932224271,50.1362599817725
2.711440382308488,2.2125625789901244,1801,40,22.90281932224271,50.1362599817725
2.733560367102187,2.21254045856519,1801,40,22.90281932224271,50.1362599817725
2.7556801307254752,2.2125183383614337,1801,40,22.90281932224271,50.1362599817725
2.7777996731823,2.212496218378852,1801,40,22.90281932224271,50.1362599817725
2.799918994476475,2.2124740986174407,1801,40,22.90281932224271,50.1362599817725
2.8220380946116896,2.212451979077196,1801,40,22.90281932224271,50.1362599817725
2.8441569735915206,2.212429859758114,1801,40,22.90281932224271,50.1362599817725
2.8662756314194393,2.2124077406601903,1801,40,22.90281932224271,50.1362599817725
2.88839406809882,2.2123856217834224,1801,40,22.90281932224271,50.1362599817725
2.910512283632947,2.2123635031278064,1801,40,22.90281932224271,50.1362599817725
2.9326302780250235,2.212341384693339,1801,40,22.90281932224271,50.1362599817725
2.954748051278174,2.2123192664800166,1801,40,22.90281932224271,50.1362599817725
2.9768656033954537,2.2122971484878367,1801,40,22.90281932224271,50.1362599817725
2.9989829343798546,2.2122750307167953,1801,40,22.90281932224271,50.1362599817725
3.021100044234305,2.2122529131668895,1801,40,22.90281932224271,50.1362599817725
3.0432169329616823,2.212230795838117,1801,40,22.90281932224271,50.1362599817725
3.0653336005648075,2.2122086787304744,1801,40,22.90281932224271,50.1362599817725
3.0874500470464583,2.212186561843959,1801,40,22.90281932224271,50.1362599817725
3.1095662724093693,2.2121644451785674,1801,40,22.90281932224271,50.1362599817725
3.1316822766562313,2.212142328734297,1801,40,22.90281932224271,50.1362599817725
3.153798059789701,2.212120212511146,1801,40,22.90281932224271,50.1362599817725
3.1759136218123993,2.212098096509111,1801,40,22.90281932224271,50.1362599817725
3.1980289627269167,2.212075980728189,1801,40,22.90281932224271,50.1362599817725
3.220144082535814,2.212053865168378,1801,40,22.90281932224271,50.1362599817725
3.2422589812416245,2.212031749829675,1801,40,22.90281932224271,50.1362599817725
3.264373658846855,2.2120096347120777,1801,40,22.90281932224271,50.1362599817725
3.286488115353994,2.2119875198155836,1801,40,22.90281932224271,50.1362599817725
3.308602350765505,2.2119654051401896,1801,40,22.90281932224271,50.1362599817725
3.3307163650838336,2.2119432906858942,1801,40,22.90281932224271,50.1362599817725
3.3528301583114053,2.211921176452694,1801,40,22.90281932224271,50.1362599817725
3.3749437304506307,2.211899062440587,1801,40,22.90281932224271,50.1362599817725
3.397057081503907,2.211876948649571,1801,40,22.90281932224271,50.1362599817725
3.419170211473612,2.211854835079643,1801,40,22.90281932224271,50.1362599817725
3.4412831203621144,2.211832721730801,1801,40,22.90281932224271,50.1362599817725
3.4633958081717697,2.211810608603043,1801,40,22.90281932224271,50.1362599817725
3.4855082749049213,2.2117884956963656,1801,40,22.90281932224271,50.1362599817725
3.5076205205639033,2.2117663830107674,1801,40,22.90281932224271,50.1362599817725
3.529732545151041,2.2117442705462453,1801,40,22.90281932224271,50.1362599817725
3.5518443486686486,2.211722158302798,1801,40,22.90281932224271,50.1362599817725
3.573955931119034,2.2117000462804217,1801,40,22.90281932224271,50.1362599817725
3.5960672925044985,2.2116779344791158,1801,40,22.90281932224271,50.1362599817725
3.6181784328273325,2.2116558228988765,1801,40,22.90281932224271,50.1362599817725
3.640289352089825,2.2116337115397022,1801,40,22.90281932224271,50.1362599817725
3.6624000502942544,2.21161160040159,1801,40,22.90281932224271,50.1362599817725
3.684510527442897,2.211589489484539,1801,40,22.90281932224271,50.1362599817725
3.706620783538024,2.211567378788546,1801,40,22.90281932224271,50.1362599817725
3.728730818581899,2.2115452683136083,1801,40,22.90281932224271,50.1362599817725
3.750840632576784,2.211523158059724,1801,40,22.90281932224271,50.1362599817725
3.7729502255249363,2.2115010480268915,1801,40,22.90281932224271,50.1362599817725
3.795059597428611,2.2114789382151074,1801,40,22.90281932224271,50.1362599817725
3.8171687482900563,2.21145682862437,1801,40,22.90281932224271,50.1362599817725
3.8392776781115203,2.2114347192546777,1801,40,22.90281932224271,50.1362599817725
3.861386386895246,2.211412610106027,1801,40,22.90281932224271,50.1362599817725
3.8834948746434765,2.2113905011784167,1801,40,22.90281932224271,50.1362599817725
3.90560314135845,2.2113683924718437,1801,40,22.90281932224271,50.1362599817725
3.9277111870424033,2.2113462839863063,1801,40,22.90281932224271,50.1362599817725
3.9498190116975715,2.2113241757218023,1801,40,22.90281932224271,50.1362599817725
3.971926615326188,2.211302067678329,1801,40,22.90281932224271,50.1362599817725
3.994033997930483,2.2112799598558848,1801,40,22.90281932224271,50.1362599817725
4.016141159512685,2.2112578522544672,1801,40,22.90281932224271,50.1362599817725
4.038248100075023,2.2112357448740734,1801,40,22.90281932224271,50.1362599817725
4.060354819619723,2.2112136377147023,1801,40,22.90281932224271,50.1362599817725
4.082461318149011,2.2111915307763503,1801,40,22.90281932224271,50.1362599817725
4.104567595665109,2.2111694240590167,1801,40,22.90281932224271,50.1362599817725
4.126673652170239,2.211147317562698,1801,40,22.90281932224271,50.1362599817725
4.148779487666627,2.2111252112873925,1801,40,22.90281932224271,50.1362599817725
4.1708851021564906,2.211103105233098,1801,40,22.90281932224271,50.1362599817725
4.192990495642051,2.211080999399812,1801,40,22.90281932224271,50.1362599817725
4.215095668125526,2.211058893787533,1801,40,22.90281932224271,50.1362599817725
4.237200619609134,2.211036788396258,1801,40,22.90281932224271,50.1362599817725
4.259305350095095,2.211014683225985,1801,40,22.90281932224271,50.1362599817725
4.281409859585622,2.210992578276712,1801,40,22.90281932224271,50.1362599817725
4.303514148082934,2.2109704735484366,1801,40,22.90281932224271,50.1362599817725
4.3256182155892455,2.2109483690411564,1801,40,22.90281932224271,50.1362599817725
4.347722062106773,2.2109262647548698,1801,40,22.90281932224271,50.1362599817725
4.36982568763773,2.210904160689574,1801,40,22.90281932224271,50.1362599817725
4.391929092184332,2.210882056845267,1801,40,22.90281932224271,50.1362599817725
4.414032275748794,2.2108599532219464,1801,40,22.90281932224271,50.1362599817725
4.436135238333327,2.21083784981961,1801,40,22.90281932224271,50.1362599817725
4.458237979940145,2.210815746638256,1801,40,22.90281932224271,50.1362599817725
4.4803405005714625,2.210793643677882,1801,40,22.90281932224271,50.1362599817725
4.50244280022949,2.2107715409384854,1801,40,22.90281932224271,50.1362599817725
4.5245448789164415,2.210749438420064,1801,40,22.90281932224271,50.1362599817725
4.5466467366345285,2.2107273361226163,1801,40,22.90281932224271,50.1362599817725
4.568748373385962,2.2107052340461397,1801,40,22.90281932224271,50.1362599817725
4.590849789172954,2.2106831321906317,1801,40,22.90281932224271,50.1362599817725
4.612950983997717,2.2106610305560905,1801,40,22.90281932224271,50.1362599817725
4.635051957862461,2.210638929142514,1801,40,22.90281932224271,50.1362599817725
4.657152710769396,2.210616827949899,1801,40,22.90281932224271,50.1362599817725
4.679253242720736,2.2105947269782447,1801,40,22.90281932224271,50.1362599817725
4.70135355371869,2.210572626227548,1801,40,22.90281932224271,50.1362599817725
4.723453643765468,2.2105505256978066,1801,40,22.90281932224271,50.1362599817725
4.74555351286328,2.2105284253890187,1801,40,22.90281932224271,50.1362599817725
4.767653161014337,2.210506325301182,1801,40,22.90281932224271,50.1362599817725
4.78975258822085,2.210484225434294,1801,40,22.90281932224271,50.1362599817725
4.811851794485028,2.210462125788353,1801,40,22.90281932224271,50.1362599817725
4.83395077980908,2.2104400263633566,1801,40,22.90281932224271,50.1362599817725
4.856049544195218,2.2104179271593023,1801,40,22.90281932224271,50.1362599817725
4.87814808764565,2.210395828176188,1801,40,22.90281932224271,50.1362599817725
4.9002464101625876,2.210373729414012,1801,40,22.90281932224271,50.1362599817725
4.9223445117482365,2.2103516308727715,1801,40,22.90281932224271,50.1362599817725
4.94444239240481,2.2103295325524646,1801,40,22.90281932224271,50.1362599817725
4.966540052134517,2.210307434453089,1801,40,22.90281932224271,50.1362599817725
4.988637490939565,2.2102853365746418,1801,40,22.90281932224271,50.1362599817725
5.010734708822166,2.210263238917122,1801,40,22.90281932224271,50.1362599817725
5.032831705784527,2.2102411414805267,1801,40,22.90281932224271,50.1362599817725
5.0549284818288545,2.210219044264854,1801,40,22.90281932224271,50.1362599817725
5.077025036957363,2.2101969472701013,1801,40,22.90281932224271,50.1362599817725
5.099121371172259,2.2101748504962666,1801,40,22.90281932224271,50.1362599817725
5.1212174844757525,2.210152753943348,1801,40,22.90281932224271,50.1362599817725
5.143313376870052,2.2101306576113426,1801,40,22.90281932224271,50.1362599817725
5.165409048357364,2.210108561500249,1801,40,22.90281932224271,50.1362599817725
5.1875044989399,2.2100864656100643,1801,40,22.90281932224271,50.1362599817725
5.209599728619869,2.2100643699407865,1801,40,22.90281932224271,50.1362599817725
5.231694737399478,2.2100422744924137,1801,40,22.90281932224271,50.1362599817725
5.253789525280936,2.210020179264943,1801,40,22.90281932224271,50.1362599817725
5.275884092266453,2.2099980842583733,1801,40,22.90281932224271,50.1362599817725
5.297978438358239,2.209975989472701,1801,40,22.90281932224271,50.1362599817725
5.320072563558498,2.209953894907925,1801,40,22.90281932224271,50.1362599817725
5.342166467869442,2.2099318005640427,1801,40,22.90281932224271,50.1362599817725
5.364260151293279,2.209909706441052,1801,40,22.90281932224271,50.1362599817725
5.386353613832215,2.2098876125389504,1801,40,22.90281932224271,50.1362599817725
5.408446855488462,2.209865518857736,1801,40,22.90281932224271,50.1362599817725
5.430539876264226,2.2098434253974064,1801,40,22.90281932224271,50.1362599817725
