Vout,Iout,Irradiance,Temperature,MaxVoltage,MaxPower
6.09994134671782e-06,0.00122,1,35,0.22110754173645256,0.00022086705009954569
1.8299711246464592e-05,0.00122,1,35,0.22110754173645256,0.00022086705009954569
3.0499233127949288e-05,0.0012199937780586533,1,35,0.22110754173645256,0.00022086705009954569
4.2698462682791525e-05,0.0012199815782887534,1,35,0.22110754173645256,0.00022086705009954569
5.48973854302439e-05,0.0012199693787674941,1,35,0.22110754173645256,0.00022086705009954569
6.709601559500328e-05,0.0012199571795391594,1,35,0.22110754173645256,0.00022086705009954569
7.92943663077952e-05,0.0012199449806176317,1,35,0.22110754173645256,0.00022086705009954569
9.149244968927559e-05,0.001219932781988687,1,35,0.22110754173645256,0.00022086705009954569
0.00010369027692761173,0.001219920583639194,1,35,0.22110754173645256,0.00022086705009954569
0.00011588785835022966,0.0012199083855570325,1,35,0.22110754173645256,0.00022086705009954569
0.00012808520349004077,0.001219896187731014,1,35,0.22110754173645256,0.00022086705009954569
0.00014028232114657302,0.0012198839901508111,1,35,0.22110754173645256,0.00022086705009954569
0.00015247921944239876,0.001219871792806891,1,35,0.22110754173645256,0.00022086705009954569
0.00016467590587522054,0.0012198595956904544,1,35,0.22110754173645256,0.00022086705009954569
0.00017687238736594968,0.0012198473987933783,1,35,0.22110754173645256,0.00022086705009954569
0.0001890686703030856,0.0012198352021081651,1,35,0.22110754173645256,0.00022086705009954569
0.00020126476058368023,0.001219823005627894,1,35,0.22110754173645256,0.00022086705009954569
0.00021346066365115086,0.0012198108093461767,1,35,0.22110754173645256,0.00022086705009954569
0.00022565638453018343,0.0012197986132571157,1,35,0.22110754173645256,0.00022086705009954569
0.00023785192785895056,0.0012197864173552678,1,35,0.22110754173645256,0.00022086705009954569
0.0002500472979188502,0.0012197742216356084,1,35,0.22110754173645256,0.00022086705009954569
0.0002622424986619568,0.0012197620260934992,1,35,0.22110754173645256,0.00022086705009954569
0.0002744375337363595,0.001219749830724659,1,35,0.22110754173645256,0.00022086705009954569
0.0002866324065095517,0.0012197376355251354,1,35,0.22110754173645256,0.00022086705009954569
0.0002988271200900202,0.0012197254404912804,1,35,0.22110754173645256,0.00022086705009954569
0.00031102167734717404,0.001219713245619727,1,35,0.22110754173645256,0.00022086705009954569
0.0003232160809297387,0.001219701050907366,1,35,0.22110754173645256,0.00022086705009954569
0.00033541033328273666,0.0012196888563513282,1,35,0.22110754173645256,0.00022086705009954569
0.0003476044366631602,0.001219676661948965,1,35,0.22110754173645256,0.00022086705009954569
0.00035979839315443895,0.0012196644676978315,1,35,0.22110754173645256,0.00022086705009954569
0.00037199220467979376,0.0012196522735956705,1,35,0.22110754173645256,0.00022086705009954569
0.00038418587301456374,0.0012196400796403988,1,35,0.22110754173645256,0.00022086705009954569
0.0003963793997975842,0.0012196278858300927,1,35,0.22110754173645256,0.00022086705009954569
0.00040857278654169007,0.0012196156921629774,1,35,0.22110754173645256,0.00022086705009954569
0.0004207660346434097,0.0012196034986374138,1,35,0.22110754173645256,0.00022086705009954569
0.00043295914539191434,0.001219591305251889,1,35,0.22110754173645256,0.00022086705009954569
0.0004451521199772782,0.0012195791120050068,1,35,0.22110754173645256,0.00022086705009954569
0.0004573449594981027,0.0012195669188954776,1,35,0.22110754173645256,0.00022086705009954569
0.00046953766496855544,0.0012195547259221116,1,35,0.22110754173645256,0.00022086705009954569
0.0004817302373248658,0.00121954253308381,1,35,0.22110754173645256,0.00022086705009954569
0.0004939226774313219,0.0012195303403795589,1,35,0.22110754173645256,0.00022086705009954569
0.0005061149860858061,0.0012195181478084217,1,35,0.22110754173645256,0.00022086705009954569
0.0005183071640249043,0.0012195059553695346,1,35,0.22110754173645256,0.00022086705009954569
0.0005304992119286216,0.0012194937630620993,1,35,0.22110754173645256,0.00022086705009954569
0.0005426911304247368,0.0012194815708853795,1,35,0.22110754173645256,0.00022086705009954569
0.0005548829200928196,0.001219469378838695,1,35,0.22110754173645256,0.00022086705009954569
0.0005670745814679408,0.0012194571869214182,1,35,0.22110754173645256,0.00022086705009954569
0.0005792661150440959,0.0012194449951329692,1,35,0.22110754173645256,0.00022086705009954569
0.0005914575212773647,0.0012194328034728134,1,35,0.22110754173645256,0.00022086705009954569
0.0006036488005888301,0.0012194206119404563,1,35,0.22110754173645256,0.00022086705009954569
0.0006158399533672693,0.0012194084205354421,1,35,0.22110754173645256,0.00022086705009954569
0.0006280309799716406,0.0012193962292573498,1,35,0.22110754173645256,0.00022086705009954569
0.0006402218807333767,0.0012193840381057907,1,35,0.22110754173645256,0.00022086705009954569
0.0006524126559585037,0.0012193718470804053,1,35,0.22110754173645256,0.00022086705009954569
0.0006646033059295946,0.0012193596561808628,1,35,0.22110754173645256,0.00022086705009954569
0.0006767938309075756,0.0012193474654068567,1,35,0.22110754173645256,0.00022086705009954569
0.0006889842311333894,0.0012193352747581047,1,35,0.22110754173645256,0.00022086705009954569
0.0007011745068295346,0.0012193230842343459,1,35,0.22110754173645256,0.00022086705009954569
0.0007133646582014836,0.001219310893835339,1,35,0.22110754173645256,0.00022086705009954569
0.0007255546854389941,0.001219298703560862,1,35,0.22110754173645256,0.00022086705009954569
0.0007377445887173164,0.0012192865134107091,1,35,0.22110754173645256,0.00022086705009954569
0.0007499343681983111,0.0012192743233846906,1,35,0.22110754173645256,0.00022086705009954569
0.0007621240240314783,0.0012192621334826312,1,35,0.22110754173645256,0.00022086705009954569
0.0007743135563549093,0.0012192499437043694,1,35,0.22110754173645256,0.00022086705009954569
0.0007865029652961641,0.0012192377540497551,1,35,0.22110754173645256,0.00022086705009954569
0.0007986922509730817,0.0012192255645186506,1,35,0.22110754173645256,0.00022086705009954569
0.0008108814134945282,0.0012192133751109285,1,35,0.22110754173645256,0.00022086705009954569
0.0008230704529610869,0.0012192011858264704,1,35,0.22110754173645256,0.00022086705009954569
0.0008352593694656964,0.0012191889966651679,1,35,0.22110754173645256,0.00022086705009954569
0.0008474481630942375,0.0012191768076269202,1,35,0.22110754173645256,0.00022086705009954569
0.0008596368339260773,0.0012191646187116347,1,35,0.22110754173645256,0.00022086705009954569
0.0008718253820345697,0.001219152429919225,1,35,0.22110754173645256,0.00022086705009954569
0.0008840138074875186,0.001219140241249612,1,35,0.22110754173645256,0.00022086705009954569
0.0008962021103476048,0.0012191280527027225,1,35,0.22110754173645256,0.00022086705009954569
0.0009083902906727797,0.0012191158642784884,1,35,0.22110754173645256,0.00022086705009954569
0.00092057834851663,0.001219103675976847,1,35,0.22110754173645256,0.00022086705009954569
0.0009327662839287125,0.0012190914877977408,1,35,0.22110754173645256,0.00022086705009954569
0.0009449540969548654,0.0012190792997411157,1,35,0.22110754173645256,0.00022086705009954569
0.0009571417876374932,0.0012190671118069226,1,35,0.22110754173645256,0.00022086705009954569
0.0009693293560158317,0.001219054923995115,1,35,0.22110754173645256,0.00022086705009954569
0.0009815168021261918,0.0012190427363056513,1,35,0.22110754173645256,0.00022086705009954569
0.0009937041260021837,0.0012190305487384918,1,35,0.22110754173645256,0.00022086705009954569
0.0010058913276749257,0.0012190183612936002,1,35,0.22110754173645256,0.00022086705009954569
0.0010180784071732354,0.0012190061739709428,1,35,0.22110754173645256,0.00022086705009954569
0.0010302653645238072,0.001218993986770489,1,35,0.22110754173645256,0.00022086705009954569
0.0010424521997513749,0.0012189817996922092,1,35,0.22110754173645256,0.00022086705009954569
0.0010546389128788629,0.0012189696127360775,1,35,0.22110754173645256,0.00022086705009954569
0.0010668255039275251,0.0012189574259020685,1,35,0.22110754173645256,0.00022086705009954569
0.0010790119729170756,0.0012189452391901598,1,35,0.22110754173645256,0.00022086705009954569
0.001091198319865803,0.0012189330526003299,1,35,0.22110754173645256,0.00022086705009954569
0.0011033845447906846,0.001218920866132559,1,35,0.22110754173645256,0.00022086705009954569
0.001115570647707483,0.001218908679786829,1,35,0.22110754173645256,0.00022086705009954569
0.0011277566286308435,0.0012188964935631226,1,35,0.22110754173645256,0.00022086705009954569
0.0011399424875743773,0.0012188843074614245,1,35,0.22110754173645256,0.00022086705009954569
0.0011521282245507427,0.0012188721214817198,1,35,0.22110754173645256,0.00022086705009954569
0.0011643138395717172,0.0012188599356239948,1,35,0.22110754173645256,0.00022086705009954569
0.0011764993326482656,0.0012188477498882371,1,35,0.22110754173645256,0.00022086705009954569
0.0011886847037906039,0.0012188355642744346,1,35,0.22110754173645256,0.00022086705009954569
0.0012008699530082548,0.0012188233787825767,1,35,0.22110754173645256,0.00022086705009954569
0.0012130550803101019,0.0012188111934126528,1,35,0.22110754173645256,0.00022086705009954569
0.0012252400857044393,0.0012187990081646539,1,35,0.22110754173645256,0.00022086705009954569
0.001237424969199017,0.0012187868230385706,1,35,0.22110754173645256,0.00022086705009954569
0.0012496097308010825,0.0012187746380343948,1,35,0.22110754173645256,0.00022086705009954569
0.0012617943705174179,0.0012187624531521187,1,35,0.22110754173645256,0.00022086705009954569
0.0012739788883543788,0.001218750268391735,1,35,0.22110754173645256,0.00022086705009954569
0.0012861632843179248,0.0012187380837532372,1,35,0.22110754173645256,0.00022086705009954569
0.0012983475584136506,0.0012187258992366187,1,35,0.22110754173645256,0.00022086705009954569
0.0013105317106468144,0.0012187137148418736,1,35,0.22110754173645256,0.00022086705009954569
0.0013227157410223636,0.0012187015305689963,1,35,0.22110754173645256,0.00022086705009954569
0.0013348996495449578,0.0012186893464179816,1,35,0.22110754173645256,0.00022086705009954569
0.001347083436218993,0.0012186771623888244,1,35,0.22110754173645256,0.00022086705009954569
0.00135926710104862,0.0012186649784815204,1,35,0.22110754173645256,0.00022086705009954569
0.0013714506440377636,0.0012186527946960648,1,35,0.22110754173645256,0.00022086705009954569
0.001383634065190141,0.0012186406110324536,1,35,0.22110754173645256,0.00022086705009954569
0.0013958173645092769,0.0012186284274906826,1,35,0.22110754173645256,0.00022086705009954569
0.0014080005419985172,0.0012186162440707487,1,35,0.22110754173645256,0.00022086705009954569
0.0014201835976610465,0.0012186040607726478,1,35,0.22110754173645256,0.00022086705009954569
0.0014323665314998962,0.001218591877596377,1,35,0.22110754173645256,0.00022086705009954569
0.0014445493435179585,0.0012185796945419329,1,35,0.22110754173645256,0.00022086705009954569
0.0014567320337179974,0.0012185675116093123,1,35,0.22110754173645256,0.00022086705009954569
0.0014689146021026574,0.0012185553287985126,1,35,0.22110754173645256,0.00022086705009954569
0.0014810970486744729,0.0012185431461095308,1,35,0.22110754173645256,0.00022086705009954569
0.0014932793734358776,0.0012185309635423644,1,35,0.22110754173645256,0.00022086705009954569
0.0015054615763892107,0.0012185187810970109,1,35,0.22110754173645256,0.00022086705009954569
0.0015176436575367264,0.0012185065987734677,1,35,0.22110754173645256,0.00022086705009954569
0.0015298256168805992,0.0012184944165717327,1,35,0.22110754173645256,0.00022086705009954569
0.001542007454422928,0.0012184822344918033,1,35,0.22110754173645256,0.00022086705009954569
0.0015541891701657457,0.0012184700525336776,1,35,0.22110754173645256,0.00022086705009954569
0.0015663707641110217,0.0012184578706973537,1,35,0.22110754173645256,0.00022086705009954569
0.001578552236260668,0.001218445688982829,1,35,0.22110754173645256,0.00022086705009954569
0.0015907335866165427,0.0012184335073901018,1,35,0.22110754173645256,0.00022086705009954569
0.0016029148151804548,0.0012184213259191705,1,35,0.22110754173645256,0.00022086705009954569
0.0016150959219541675,0.0012184091445700328,1,35,0.22110754173645256,0.00022086705009954569
0.0016272769069394033,0.001218396963342687,1,35,0.22110754173645256,0.00022086705009954569
0.001639457770137844,0.0012183847822371313,1,35,0.22110754173645256,0.00022086705009954569
0.0016516385115511367,0.0012183726012533643,1,35,0.22110754173645256,0.00022086705009954569
0.0016638191311808951,0.001218360420391384,1,35,0.22110754173645256,0.00022086705009954569
0.0016759996290287027,0.0012183482396511886,1,35,0.22110754173645256,0.00022086705009954569
0.0016881800050961148,0.001218336059032777,1,35,0.22110754173645256,0.00022086705009954569
0.0017003602593846602,0.0012183238785361474,1,35,0.22110754173645256,0.00022086705009954569
0.0017125403918958444,0.001218311698161298,1,35,0.22110754173645256,0.00022086705009954569
0.0017247204026311505,0.0012182995179082275,1,35,0.22110754173645256,0.00022086705009954569
0.0017369002915920404,0.0012182873377769342,1,35,0.22110754173645256,0.00022086705009954569
0.0017490800587799593,0.001218275157767417,1,35,0.22110754173645256,0.00022086705009954569
0.0017612597041963315,0.001218262977879674,1,35,0.22110754173645256,0.00022086705009954569
0.001773439227842569,0.0012182507981137042,1,35,0.22110754173645256,0.00022086705009954569
0.0017856186297200657,0.0012182386184695058,1,35,0.22110754173645256,0.00022086705009954569
0.001797797909830204,0.0012182264389470777,1,35,0.22110754173645256,0.00022086705009954569
0.0018099770681743533,0.001218214259546418,1,35,0.22110754173645256,0.00022086705009954569
0.0018221561047538704,0.0012182020802675257,1,35,0.22110754173645256,0.00022086705009954569
0.001834335019570102,0.0012181899011103996,1,35,0.22110754173645256,0.00022086705009954569
0.0018465138126243844,0.001218177722075038,1,35,0.22110754173645256,0.00022086705009954569
0.0018586924839180449,0.0012181655431614397,1,35,0.22110754173645256,0.00022086705009954569
0.0018708710334524033,0.0012181533643696033,1,35,0.22110754173645256,0.00022086705009954569
0.0018830494612287693,0.0012181411856995276,1,35,0.22110754173645256,0.00022086705009954569
0.001895227767248448,0.0012181290071512111,1,35,0.22110754173645256,0.00022086705009954569
0.0019074059515127363,0.0012181168287246527,1,35,0.22110754173645256,0.00022086705009954569
0.0019195840140229248,0.0012181046504198508,1,35,0.22110754173645256,0.00022086705009954569
0.0019317619547802992,0.0012180924722368044,1,35,0.22110754173645256,0.00022086705009954569
0.0019439397737861393,0.001218080294175512,1,35,0.22110754173645256,0.00022086705009954569
0.0019561174710417207,0.0012180681162359723,1,35,0.22110754173645256,0.00022086705009954569
0.001968295046548314,0.0012180559384181843,1,35,0.22110754173645256,0.00022086705009954569
0.0019804725003071855,0.0012180437607221466,1,35,0.22110754173645256,0.00022086705009954569
0.0019926498323195995,0.0012180315831478578,1,35,0.22110754173645256,0.00022086705009954569
0.0020048270425868124,0.0012180194056953166,1,35,0.22110754173645256,0.00022086705009954569
0.002017004131110083,0.001218007228364522,1,35,0.22110754173645256,0.00022086705009954569
0.0020291810978906627,0.0012179950511554726,1,35,0.22110754173645256,0.00022086705009954569
0.002041357942929803,0.001217982874068167,1,35,0.22110754173645256,0.00022086705009954569
0.00205353466622875,0.0012179706971026042,1,35,0.22110754173645256,0.00022086705009954569
0.002065711267788751,0.0012179585202587828,1,35,0.22110754173645256,0.00022086705009954569
0.0020778877476110473,0.0012179463435367014,1,35,0.22110754173645256,0.00022086705009954569
0.0020900641056968814,0.0012179341669363592,1,35,0.22110754173645256,0.00022086705009954569
0.0021022403420474923,0.0012179219904577545,1,35,0.22110754173645256,0.00022086705009954569
0.0021144164566641167,0.0012179098141008864,1,35,0.22110754173645256,0.00022086705009954569
0.0021265924495479918,0.0012178976378657534,1,35,0.22110754173645256,0.00022086705009954569
0.002138768320700351,0.0012178854617523544,1,35,0.22110754173645256,0.00022086705009954569
0.002150944070122428,0.001217873285760688,1,35,0.22110754173645256,0.00022086705009954569
0.002163119697815455,0.0012178611098907534,1,35,0.22110754173645256,0.00022086705009954569
0.002175295203780662,0.001217848934142549,1,35,0.22110754173645256,0.00022086705009954569
0.0021874705880192786,0.0012178367585160734,1,35,0.22110754173645256,0.00022086705009954569
0.0021996458505325342,0.0012178245830113258,1,35,0.22110754173645256,0.00022086705009954569
0.0022118209913216565,0.0012178124076283048,1,35,0.22110754173645256,0.00022086705009954569
0.0022239960103878718,0.001217800232367009,1,35,0.22110754173645256,0.00022086705009954569
0.0022361709077324066,0.0012177880572274374,1,35,0.22110754173645256,0.00022086705009954569
0.0022483456833564865,0.0012177758822095887,1,35,0.22110754173645256,0.00022086705009954569
0.002260520337261336,0.0012177637073134619,1,35,0.22110754173645256,0.00022086705009954569
0.0022726948694481793,0.0012177515325390552,1,35,0.22110754173645256,0.00022086705009954569
0.0022848692799182398,0.001217739357886368,1,35,0.22110754173645256,0.00022086705009954569
0.002297043568672741,0.0012177271833553986,1,35,0.22110754173645256,0.00022086705009954569
0.0023092177357129052,0.001217715008946146,1,35,0.22110754173645256,0.00022086705009954569
0.0023213917810399544,0.001217702834658609,1,35,0.22110754173645256,0.00022086705009954569
0.0023335657046551104,0.0012176906604927861,1,35,0.22110754173645256,0.00022086705009954569
0.002345739506559595,0.0012176784864486765,1,35,0.22110754173645256,0.00022086705009954569
0.002357913186754628,0.0012176663125262788,1,35,0.22110754173645256,0.00022086705009954569
0.002370086745241431,0.0012176541387255916,1,35,0.22110754173645256,0.00022086705009954569
0.0023822601820212234,0.001217641965046614,1,35,0.22110754173645256,0.00022086705009954569
0.0023944334970952266,0.0012176297914893446,1,35,0.22110754173645256,0.00022086705009954569
0.0024066066904646593,0.0012176176180537822,1,35,0.22110754173645256,0.00022086705009954569
0.0024187797621307416,0.0012176054447399255,1,35,0.22110754173645256,0.00022086705009954569
0.0024309527120946924,0.0012175932715477735,1,35,0.22110754173645256,0.00022086705009954569
0.0024431255403577303,0.0012175810984773247,1,35,0.22110754173645256,0.00022086705009954569
0.0024552982469210755,0.001217568925528578,1,35,0.22110754173645256,0.00022086705009954569
0.002467470831785946,0.0012175567527015325,1,35,0.22110754173645256,0.00022086705009954569
0.0024796432949535595,0.0012175445799961864,1,35,0.22110754173645256,0.00022086705009954569
0.0024918156364251366,0.0012175324074125387,1,35,0.22110754173645256,0.00022086705009954569
0.0025039878562018937,0.0012175202349505884,1,35,0.22110754173645256,0.00022086705009954569
0.002516159954285049,0.001217508062610334,1,35,0.22110754173645256,0.00022086705009954569
0.0025283319306758215,0.0012174958903917745,1,35,0.22110754173645256,0.00022086705009954569
0.0025405037853754283,0.0012174837182949087,1,35,0.22110754173645256,0.00022086705009954569
0.002552675518385088,0.001217471546319735,1,35,0.22110754173645256,0.00022086705009954569
0.002564847129706017,0.0012174593744662527,1,35,0.22110754173645256,0.00022086705009954569
0.0025770186193394334,0.0012174472027344603,1,35,0.22110754173645256,0.00022086705009954569
0.002589189987286556,0.0012174350311243566,1,35,0.22110754173645256,0.00022086705009954569
0.0026013612335486,0.0012174228596359402,1,35,0.22110754173645256,0.00022086705009954569
0.0026135323581267847,0.0012174106882692102,1,35,0.22110754173645256,0.00022086705009954569
