Vout,Iout,Irradiance,Temperature,MaxVoltage,MaxPower
5.549946635128508e-06,0.0011099999999999999,1,-20,0.20117161584218396,0.0001828341120852271
1.6649737281619423e-05,0.0011099999999999999,1,-20,0.20117161584218396,0.0001828341120852271
2.7749302272150582e-05,0.0011099943390533648,1,-20,0.20117161584218396,0.0001828341120852271
3.884860129335951e-05,0.0011099832392627183,1,-20,0.20117161584218396,0.0001828341120852271
4.994762117013993e-05,0.0011099721396982938,1,-20,0.20117161584218396,0.0001828341120852271
6.104637484463412e-05,0.0011099610404003825,1,-20,0.20117161584218396,0.0001828341120852271
7.214487426364975e-05,0.0011099499413816157,1,-20,0.20117161584218396,0.0001828341120852271
8.324313045499662e-05,0.0011099388426290512,1,-20,0.20117161584218396,0.0001828341120852271
9.434115359807296e-05,0.0011099277441307422,1,-20,0.20117161584218396,0.0001828341120852271
0.00010543895308914336,0.0011099166458756605,1,-20,0.20117161584218396,0.0001828341120852271
0.00011653653760159446,0.0011099055478536275,1,-20,0.20117161584218396,0.0001828341120852271
0.00012763391514155416,0.001109894450055246,1,-20,0.20117161584218396,0.0001828341120852271
0.00013873109309923165,0.0011098833524718435,1,-20,0.20117161584218396,0.0001828341120852271
0.00014982807829630723,0.0011098722550954134,1,-20,0.20117161584218396,0.0001828341120852271
0.00016092487702967553,0.0011098611579185653,1,-20,0.20117161584218396,0.0001828341120852271
0.00017202149511182378,0.001109850060934478,1,-20,0.20117161584218396,0.0001828341120852271
0.00018311793790810248,0.0011098389641368545,1,-20,0.20117161584218396,0.0001828341120852271
0.000194214210371129,0.001109827867519882,1,-20,0.20117161584218396,0.0001828341120852271
0.00020531031707254395,0.0011098167710781954,1,-20,0.20117161584218396,0.0001828341120852271
0.00021640626223232384,0.001109805674806842,1,-20,0.20117161584218396,0.0001828341120852271
0.00022750204974583913,0.0011097945787012502,1,-20,0.20117161584218396,0.0001828341120852271
0.0002385976832088295,0.0011097834827572001,1,-20,0.20117161584218396,0.0001828341120852271
0.00024969316594045826,0.001109772386970796,1,-20,0.20117161584218396,0.0001828341120852271
0.00026078850100459206,0.0011097612913384429,1,-20,0.20117161584218396,0.0001828341120852271
0.00027188369122944467,0.0011097501958568206,1,-20,0.20117161584218396,0.0001828341120852271
0.00028297873922570753,0.001109739100522866,1,-20,0.20117161584218396,0.0001828341120852271
0.0002940736474032868,0.001109728005333751,1,-20,0.20117161584218396,0.0001828341120852271
0.0003051684179867522,0.001109716910286864,1,-20,0.20117161584218396,0.0001828341120852271
0.0003162630530295966,0.0011097058153797961,1,-20,0.20117161584218396,0.0001828341120852271
0.00032735755442739946,0.0011096947206103221,1,-20,0.20117161584218396,0.0001828341120852271
0.0003384519239299763,0.0011096836259763888,1,-20,0.20117161584218396,0.0001828341120852271
0.00034954616315259485,0.0011096725314761005,1,-20,0.20117161584218396,0.0001828341120852271
0.0003606402735863267,0.0011096614371077073,1,-20,0.20117161584218396,0.0001828341120852271
0.00037173425660760336,0.001109650342869594,1,-20,0.20117161584218396,0.0001828341120852271
0.00038282811348703676,0.00110963924876027,1,-20,0.20117161584218396,0.0001828341120852271
0.00039392184539756156,0.001109628154778358,1,-20,0.20117161584218396,0.0001828341120852271
0.00040501545342195,0.001109617060922588,1,-20,0.20117161584218396,0.0001828341120852271
0.0004161089385597494,0.0011096059671917868,1,-20,0.20117161584218396,0.0001828341120852271
0.0004272023017336859,0.0011095948735848717,1,-20,0.20117161584218396,0.0001828341120852271
0.0004382955437955749,0.0011095837801008434,1,-20,0.20117161584218396,0.0001828341120852271
0.0004493886655317767,0.0011095726867387788,1,-20,0.20117161584218396,0.0001828341120852271
0.00046048166766823374,0.0011095615934978262,1,-20,0.20117161584218396,0.0001828341120852271
0.0004715745508751181,0.0011095505003771995,1,-20,0.20117161584218396,0.0001828341120852271
0.00048266731577112327,0.0011095394073761724,1,-20,0.20117161584218396,0.0001828341120852271
0.0004937599629274246,0.0011095283144940747,1,-20,0.20117161584218396,0.0001828341120852271
0.000504852492871336,0.001109517221730288,1,-20,0.20117161584218396,0.0001828341120852271
0.0005159449060896841,0.001109506129084241,1,-20,0.20117161584218396,0.0001828341120852271
0.0005270372030319235,0.0011094950365554063,1,-20,0.20117161584218396,0.0001828341120852271
0.0005381293841130123,0.0011094839441432973,1,-20,0.20117161584218396,0.0001828341120852271
0.0005492214497160668,0.0011094728518474643,1,-20,0.20117161584218396,0.0001828341120852271
0.0005603134001948108,0.0011094617596674925,1,-20,0.20117161584218396,0.0001828341120852271
0.0005714052358758371,0.0011094506676029986,1,-20,0.20117161584218396,0.0001828341120852271
0.0005824969570606954,0.0011094395756536292,1,-20,0.20117161584218396,0.0001828341120852271
0.0005935885640278191,0.0011094284838190573,1,-20,0.20117161584218396,0.0001828341120852271
0.0006046800570343036,0.0011094173920989817,1,-20,0.20117161584218396,0.0001828341120852271
0.0006157714363175485,0.0011094063004931237,1,-20,0.20117161584218396,0.0001828341120852271
0.0006268627020967725,0.0011093952090012263,1,-20,0.20117161584218396,0.0001828341120852271
0.0006379538545744128,0.0011093841176230523,1,-20,0.20117161584218396,0.0001828341120852271
0.0006490448939374157,0.0011093730263583821,1,-20,0.20117161584218396,0.0001828341120852271
0.0006601358203584294,0.0011093619352070137,1,-20,0.20117161584218396,0.0001828341120852271
0.0006712266339969031,0.00110935084416876,1,-20,0.20117161584218396,0.0001828341120852271
0.0006823173350001031,0.0011093397532434479,1,-20,0.20117161584218396,0.0001828341120852271
0.0006934079235040504,0.0011093286624309186,1,-20,0.20117161584218396,0.0001828341120852271
0.0007044983996343852,0.0011093175717310244,1,-20,0.20117161584218396,0.0001828341120852271
0.000715588763507166,0.0011093064811436295,1,-20,0.20117161584218396,0.0001828341120852271
0.0007266790152296074,0.0011092953906686083,1,-20,0.20117161584218396,0.0001828341120852271
0.0007377691549007596,0.0011092843003058445,1,-20,0.20117161584218396,0.0001828341120852271
0.000748859182612137,0.0011092732100552313,1,-20,0.20117161584218396,0.0001828341120852271
0.000759949098448298,0.001109262119916669,1,-20,0.20117161584218396,0.0001828341120852271
0.0007710389024873805,0.0011092510298900667,1,-20,0.20117161584218396,0.0001828341120852271
0.0007821285948015954,0.0011092399399753397,1,-20,0.20117161584218396,0.0001828341120852271
0.0007932181754576828,0.0011092288501724095,1,-20,0.20117161584218396,0.0001828341120852271
0.0008043076445173331,0.0011092177604812043,1,-20,0.20117161584218396,0.0001828341120852271
0.0008153970020375757,0.001109206670901657,1,-20,0.20117161584218396,0.0001828341120852271
0.0008264862480711363,0.0011091955814337064,1,-20,0.20117161584218396,0.0001828341120852271
0.0008375753826667706,0.0011091844920772952,1,-20,0.20117161584218396,0.0001828341120852271
0.0008486644058695671,0.0011091734028323705,1,-20,0.20117161584218396,0.0001828341120852271
0.0008597533177212305,0.0011091623136988838,1,-20,0.20117161584218396,0.0001828341120852271
0.0008708421182603427,0.00110915122467679,1,-20,0.20117161584218396,0.0001828341120852271
0.0008819308075226016,0.0011091401357660473,1,-20,0.20117161584218396,0.0001828341120852271
0.0008930193855410436,0.0011091290469666172,1,-20,0.20117161584218396,0.0001828341120852271
0.0009041078523462495,0.0011091179582784637,1,-20,0.20117161584218396,0.0001828341120852271
0.0009151962079665312,0.0011091068697015542,1,-20,0.20117161584218396,0.0001828341120852271
0.0009262844524281083,0.0011090957812358577,1,-20,0.20117161584218396,0.0001828341120852271
0.0009373725857552677,0.0011090846928813465,1,-20,0.20117161584218396,0.0001828341120852271
0.0009484606079705136,0.0011090736046379937,1,-20,0.20117161584218396,0.0001828341120852271
0.0009595485190947037,0.0011090625165057753,1,-20,0.20117161584218396,0.0001828341120852271
0.0009706363191471756,0.001109051428484669,1,-20,0.20117161584218396,0.0001828341120852271
0.0009817240081458646,0.0011090403405746535,1,-20,0.20117161584218396,0.0001828341120852271
0.0009928115861074119,0.00110902925277571,1,-20,0.20117161584218396,0.0001828341120852271
0.001003899053047263,0.00110901816508782,1,-20,0.20117161584218396,0.0001828341120852271
0.0010149864089797598,0.0011090070775109672,1,-20,0.20117161584218396,0.0001828341120852271
0.001026073653918227,0.0011089959900451361,1,-20,0.20117161584218396,0.0001828341120852271
0.0010371607878750491,0.0011089849026903124,1,-20,0.20117161584218396,0.0001828341120852271
0.001048247810861742,0.0011089738154464826,1,-20,0.20117161584218396,0.0001828341120852271
0.001059334722889022,0.0011089627283136345,1,-20,0.20117161584218396,0.0001828341120852271
0.0010704215239668653,0.0011089516412917566,1,-20,0.20117161584218396,0.0001828341120852271
0.0010815082141045667,0.001108940554380838,1,-20,0.20117161584218396,0.0001828341120852271
0.0010925947933107898,0.0011089294675808688,1,-20,0.20117161584218396,0.0001828341120852271
0.0011036812615936177,0.00110891838089184,1,-20,0.20117161584218396,0.0001828341120852271
0.0011147676189605972,0.0011089072943137423,1,-20,0.20117161584218396,0.0001828341120852271
0.0011258538654187785,0.0011088962078465681,1,-20,0.20117161584218396,0.0001828341120852271
0.0011369400009747556,0.0011088851214903098,1,-20,0.20117161584218396,0.0001828341120852271
0.0011480260256347002,0.0011088740352449603,1,-20,0.20117161584218396,0.0001828341120852271
0.001159111939404394,0.001108862949110513,1,-20,0.20117161584218396,0.0001828341120852271
0.0011701977422892593,0.0011088518630869616,1,-20,0.20117161584218396,0.0001828341120852271
0.0011812834342943873,0.0011088407771743007,1,-20,0.20117161584218396,0.0001828341120852271
0.001192369015424561,0.0011088296913725243,1,-20,0.20117161584218396,0.0001828341120852271
0.0012034544856842817,0.0011088186056816278,1,-20,0.20117161584218396,0.0001828341120852271
0.0012145398450777898,0.0011088075201016062,1,-20,0.20117161584218396,0.0001828341120852271
0.001225625093609084,0.001108796434632455,1,-20,0.20117161584218396,0.0001828341120852271
0.001236710231281941,0.00110878534927417,1,-20,0.20117161584218396,0.0001828341120852271
0.0012477952580999324,0.0011087742640267474,1,-20,0.20117161584218396,0.0001828341120852271
0.0012588801740664392,0.001108763178890183,1,-20,0.20117161584218396,0.0001828341120852271
0.001269964979184669,0.0011087520938644734,1,-20,0.20117161584218396,0.0001828341120852271
0.0012810496734576668,0.0011087410089496155,1,-20,0.20117161584218396,0.0001828341120852271
0.0012921342568883284,0.0011087299241456059,1,-20,0.20117161584218396,0.0001828341120852271
0.0013032187294794127,0.0011087188394524412,1,-20,0.20117161584218396,0.0001828341120852271
0.0013143030912335517,0.0011087077548701191,1,-20,0.20117161584218396,0.0001828341120852271
0.0013253873421532592,0.0011086966703986365,1,-20,0.20117161584218396,0.0001828341120852271
0.0013364714822409413,0.0011086855860379908,1,-20,0.20117161584218396,0.0001828341120852271
0.0013475555114989047,0.0011086745017881796,1,-20,0.20117161584218396,0.0001828341120852271
0.0013586394299293628,0.0011086634176492003,1,-20,0.20117161584218396,0.0001828341120852271
0.001369723237534445,0.0011086523336210508,1,-20,0.20117161584218396,0.0001828341120852271
0.001380806934316201,0.0011086412497037287,1,-20,0.20117161584218396,0.0001828341120852271
0.0013918905202766098,0.0011086301658972321,1,-20,0.20117161584218396,0.0001828341120852271
0.0014029739954175813,0.0011086190822015586,1,-20,0.20117161584218396,0.0001828341120852271
0.0014140573597409645,0.0011086079986167066,1,-20,0.20117161584218396,0.0001828341120852271
0.001425140613248552,0.001108596915142674,1,-20,0.20117161584218396,0.0001828341120852271
0.0014362237559420827,0.0011085858317794592,1,-20,0.20117161584218396,0.0001828341120852271
0.0014473067878232472,0.0011085747485270598,1,-20,0.20117161584218396,0.0001828341120852271
0.001458389708893692,0.0011085636653854747,1,-20,0.20117161584218396,0.0001828341120852271
0.0014694725191550212,0.0011085525823547018,1,-20,0.20117161584218396,0.0001828341120852271
0.001480555218608801,0.0011085414994347397,1,-20,0.20117161584218396,0.0001828341120852271
0.0014916378072565627,0.0011085304166255866,1,-20,0.20117161584218396,0.0001828341120852271
0.0015027202850998044,0.0011085193339272412,1,-20,0.20117161584218396,0.0001828341120852271
0.0015138026521399949,0.0011085082513397017,1,-20,0.20117161584218396,0.0001828341120852271
0.0015248849083785738,0.0011084971688629667,1,-20,0.20117161584218396,0.0001828341120852271
0.0015359670538169566,0.0011084860864970347,1,-20,0.20117161584218396,0.0001828341120852271
0.001547049088456535,0.0011084750042419044,1,-20,0.20117161584218396,0.0001828341120852271
0.0015581310122986778,0.0011084639220975744,1,-20,0.20117161584218396,0.0001828341120852271
0.0015692128253447352,0.0011084528400640429,1,-20,0.20117161584218396,0.0001828341120852271
0.0015802945275960364,0.001108441758141309,1,-20,0.20117161584218396,0.0001828341120852271
0.0015913761190538965,0.001108430676329371,1,-20,0.20117161584218396,0.0001828341120852271
0.0016024575997196126,0.001108419594628228,1,-20,0.20117161584218396,0.0001828341120852271
0.001613538969594468,0.0011084085130378784,1,-20,0.20117161584218396,0.0001828341120852271
0.0016246202286797314,0.0011083974315583209,1,-20,0.20117161584218396,0.0001828341120852271
0.0016357013769766606,0.001108386350189554,1,-20,0.20117161584218396,0.0001828341120852271
0.001646782414486501,0.001108375268931577,1,-20,0.20117161584218396,0.0001828341120852271
0.0016578633412104875,0.0011083641877843882,1,-20,0.20117161584218396,0.0001828341120852271
0.0016689441571498456,0.0011083531067479864,1,-20,0.20117161584218396,0.0001828341120852271
0.0016800248623057912,0.0011083420258223705,1,-20,0.20117161584218396,0.0001828341120852271
0.0016911054566795317,0.0011083309450075393,1,-20,0.20117161584218396,0.0001828341120852271
0.0017021859402722669,0.0011083198643034916,1,-20,0.20117161584218396,0.0001828341120852271
0.0017132663130851903,0.0011083087837102257,1,-20,0.20117161584218396,0.0001828341120852271
0.001724346575119488,0.001108297703227741,1,-20,0.20117161584218396,0.0001828341120852271
0.0017354267263763401,0.0011082866228560363,1,-20,0.20117161584218396,0.0001828341120852271
0.0017465067668569216,0.00110827554259511,1,-20,0.20117161584218396,0.0001828341120852271
0.0017575866965624015,0.0011082644624449613,1,-20,0.20117161584218396,0.0001828341120852271
0.0017686665154939447,0.0011082533824055888,1,-20,0.20117161584218396,0.0001828341120852271
0.0017797462236527116,0.0011082423024769913,1,-20,0.20117161584218396,0.0001828341120852271
0.001790825821039858,0.0011082312226591677,1,-20,0.20117161584218396,0.0001828341120852271
0.0018019053076565364,0.001108220142952117,1,-20,0.20117161584218396,0.0001828341120852271
0.001812984683503896,0.0011082090633558377,1,-20,0.20117161584218396,0.0001828341120852271
0.0018240639485830824,0.001108197983870329,1,-20,0.20117161584218396,0.0001828341120852271
0.0018351431028952381,0.0011081869044955897,1,-20,0.20117161584218396,0.0001828341120852271
0.0018462221464415037,0.0011081758252316184,1,-20,0.20117161584218396,0.0001828341120852271
0.0018573010792230164,0.0011081647460784141,1,-20,0.20117161584218396,0.0001828341120852271
0.0018683799012409112,0.001108153667035976,1,-20,0.20117161584218396,0.0001828341120852271
0.0018794586124963213,0.0011081425881043023,1,-20,0.20117161584218396,0.0001828341120852271
0.0018905372129903782,0.0011081315092833922,1,-20,0.20117161584218396,0.0001828341120852271
0.001901615702724211,0.0011081204305732448,1,-20,0.20117161584218396,0.0001828341120852271
0.0019126940816989466,0.0011081093519738586,1,-20,0.20117161584218396,0.0001828341120852271
0.0019237723499157117,0.0011080982734852326,1,-20,0.20117161584218396,0.0001828341120852271
0.0019348505073756306,0.0011080871951073658,1,-20,0.20117161584218396,0.0001828341120852271
0.0019459285540798267,0.0011080761168402568,1,-20,0.20117161584218396,0.0001828341120852271
0.0019570064900294214,0.0011080650386839047,1,-20,0.20117161584218396,0.0001828341120852271
0.001968084315225536,0.0011080539606383084,1,-20,0.20117161584218396,0.0001828341120852271
0.0019791620296692896,0.0011080428827034666,1,-20,0.20117161584218396,0.0001828341120852271
0.001990239633361802,0.0011080318048793782,1,-20,0.20117161584218396,0.0001828341120852271
0.0020013171263041896,0.0011080207271660424,1,-20,0.20117161584218396,0.0001828341120852271
0.0020123945084975716,0.0011080096495634576,1,-20,0.20117161584218396,0.0001828341120852271
0.0020234717799430626,0.001107998572071623,1,-20,0.20117161584218396,0.0001828341120852271
0.0020345489406417786,0.0011079874946905374,1,-20,0.20117161584218396,0.0001828341120852271
0.0020456259905948346,0.0011079764174201996,1,-20,0.20117161584218396,0.0001828341120852271
0.0020567029298033455,0.0011079653402606086,1,-20,0.20117161584218396,0.0001828341120852271
0.0020677797582684247,0.0011079542632117633,1,-20,0.20117161584218396,0.0001828341120852271
0.0020788564759911844,0.0011079431862736624,1,-20,0.20117161584218396,0.0001828341120852271
0.002089933082972739,0.0011079321094463052,1,-20,0.20117161584218396,0.0001828341120852271
0.0021010095792141996,0.00110792103272969,1,-20,0.20117161584218396,0.0001828341120852271
0.002112085964716679,0.0011079099561238162,1,-20,0.20117161584218396,0.0001828341120852271
0.002123162239481288,0.0011078988796286823,1,-20,0.20117161584218396,0.0001828341120852271
0.0021342384035091385,0.0011078878032442876,1,-20,0.20117161584218396,0.0001828341120852271
0.002145314456801341,0.0011078767269706307,1,-20,0.20117161584218396,0.0001828341120852271
0.0021563903993590057,0.0011078656508077104,1,-20,0.20117161584218396,0.0001828341120852271
0.002167466231183243,0.0011078545747555259,1,-20,0.20117161584218396,0.0001828341120852271
0.0021785419522751637,0.0011078434988140758,1,-20,0.20117161584218396,0.0001828341120852271
0.002189617562635877,0.001107832422983359,1,-20,0.20117161584218396,0.0001828341120852271
0.002200693062266493,0.001107821347263375,1,-20,0.20117161584218396,0.0001828341120852271
0.00221176845116812,0.0011078102716541216,1,-20,0.20117161584218396,0.0001828341120852271
0.002222843729341868,0.0011077991961555987,1,-20,0.20117161584218396,0.0001828341120852271
0.002233918896788846,0.0011077881207678046,1,-20,0.20117161584218396,0.0001828341120852271
0.0022449939535101626,0.0011077770454907385,1,-20,0.20117161584218396,0.0001828341120852271
0.002256068899506926,0.0011077659703243989,1,-20,0.20117161584218396,0.0001828341120852271
0.0022671437347802454,0.0011077548952687852,1,-20,0.20117161584218396,0.0001828341120852271
0.00227821845933123,0.0011077438203238958,1,-20,0.20117161584218396,0.0001828341120852271
0.0022892930731609864,0.00110773274548973,1,-20,0.20117161584218396,0.0001828341120852271
0.0023003675762706234,0.0011077216707662866,1,-20,0.20117161584218396,0.0001828341120852271
0.0023114419686612493,0.0011077105961535643,1,-20,0.20117161584218396,0.0001828341120852271
0.0023225162503339725,0.0011076995216515622,1,-20,0.20117161584218396,0.0001828341120852271
0.0023335904212899,0.001107688447260279,1,-20,0.20117161584218396,0.0001828341120852271
0.0023446644815301393,0.0011076773729797138,1,-20,0.20117161584218396,0.0001828341120852271
0.0023557384310558,0.0011076662988098653,1,-20,0.20117161584218396,0.0001828341120852271
0.0023668122698679885,0.0011076552247507325,1,-20,0.20117161584218396,0.0001828341120852271
0.002377885997967812,0.0011076441508023143,1,-20,0.20117161584218396,0.0001828341120852271
