Vout,Iout,Irradiance,Temperature,MaxVoltage,MaxPower
0.011691037586177056,2.33823,1901,40,22.901714373713205,52.95864746721501
0.035072896580181076,2.33823,1901,40,22.901714373713205,52.95864746721501
0.05845428022685646,2.3382180751394137,1901,40,22.901714373713205,52.95864746721501
0.08183510360556036,2.33819469328042,1901,40,22.901714373713205,52.95864746721501
0.10521533896275345,2.3381713118979652,1901,40,22.901714373713205,52.95864746721501
0.12859501356123323,2.338147931076925,1901,40,22.901714373713205,52.95864746721501
0.1519741525671115,2.3381245508439057,1901,40,22.901714373713205,52.95864746721501
0.17535277921061873,2.3381011711716453,1901,40,22.901714373713205,52.95864746721501
0.19873091493479475,2.338077792034978,1901,40,22.901714373713205,52.95864746721501
0.22210857953299795,2.338054413410672,1901,40,22.901714373713205,52.95864746721501
0.24548579127583445,2.338031035277286,1901,40,22.901714373713205,52.95864746721501
0.26886256702832084,2.3380076576150253,1901,40,22.901714373713205,52.95864746721501
0.29223892235803284,2.3379842804056206,1901,40,22.901714373713205,52.95864746721501
0.31561487163493185,2.3379609036322058,1901,40,22.901714373713205,52.95864746721501
0.3389904281235119,2.337937527279214,1901,40,22.901714373713205,52.95864746721501
0.36236560406785556,2.3379141513322743,1901,40,22.901714373713205,52.95864746721501
0.3857404107701464,2.3378907757781238,1901,40,22.901714373713205,52.95864746721501
0.4091148586631397,2.337867400604517,1901,40,22.901714373713205,52.95864746721501
0.43248895737705795,2.3378440258001523,1901,40,22.901714373713205,52.95864746721501
0.4558627158013392,2.3378206513545967,1901,40,22.901714373713205,52.95864746721501
0.4792361421416337,2.33779727725822,1901,40,22.901714373713205,52.95864746721501
0.5026092439724156,2.3377739035021334,1901,40,22.901714373713205,52.95864746721501
0.5259820282855473,2.3377505300781305,1901,40,22.901714373713205,52.95864746721501
0.5493545015351057,2.337727156978637,1901,40,22.901714373713205,52.95864746721501
0.5727266696787606,2.3377037841966612,1901,40,22.901714373713205,52.95864746721501
0.5960985382159693,2.337680411725749,1901,40,22.901714373713205,52.95864746721501
0.6194701122232318,2.3376570395599425,1901,40,22.901714373713205,52.95864746721501
0.6428413963866338,2.337633667693743,1901,40,22.901714373713205,52.95864746721501
0.6662123950318861,2.337610296122073,1901,40,22.901714373713205,52.95864746721501
0.689583112152052,2.3375869248402465,1901,40,22.901714373713205,52.95864746721501
0.7129535514331427,2.337563553843938,1901,40,22.901714373713205,52.95864746721501
0.7363237162777402,2.337540183129155,1901,40,22.901714373713205,52.95864746721501
0.7596936098268074,2.3375168126922112,1901,40,22.901714373713205,52.95864746721501
0.7830632349798162,2.337493442529704,1901,40,22.901714373713205,52.95864746721501
0.8064325944133277,2.337470072638492,1901,40,22.901714373713205,52.95864746721501
0.8298016905981442,2.337446703015676,1901,40,22.901714373713205,52.95864746721501
0.8531705258151404,2.3374233336585792,1901,40,22.901714373713205,52.95864746721501
0.8765391021698762,2.337399964564731,1901,40,22.901714373713205,52.95864746721501
0.8999074216060868,2.3373765957318513,1901,40,22.901714373713205,52.95864746721501
0.9232754859181324,2.3373532271578337,1901,40,22.901714373713205,52.95864746721501
0.9466432967624921,2.337329858840734,1901,40,22.901714373713205,52.95864746721501
0.9700108556683731,2.337306490778759,1901,40,22.901714373713205,52.95864746721501
0.9933781640475021,2.3372831229702515,1901,40,22.901714373713205,52.95864746721501
1.0167452232031653,2.3372597554136822,1901,40,22.901714373713205,52.95864746721501
1.0401120343385517,2.33723638810764,1901,40,22.901714373713205,52.95864746721501
1.0634785985644541,2.3372130210508213,1901,40,22.901714373713205,52.95864746721501
1.0868449169063803,2.3371896542420223,1901,40,22.901714373713205,52.95864746721501
1.110210990311112,2.3371662876801333,1901,40,22.901714373713205,52.95864746721501
1.133576819652765,2.337142921364128,1901,40,22.901714373713205,52.95864746721501
1.156942405738378,2.33711955529306,1901,40,22.901714373713205,52.95864746721501
1.1803077493130747,2.3370961894660547,1901,40,22.901714373713205,52.95864746721501
1.2036728510648278,2.337072823882306,1901,40,22.901714373713205,52.95864746721501
1.227037711628856,2.3370494585410677,1901,40,22.901714373713205,52.95864746721501
1.2504023315916826,2.3370260934416525,1901,40,22.901714373713205,52.95864746721501
1.273766711494883,2.337002728583425,1901,40,22.901714373713205,52.95864746721501
1.297130851838542,2.3369793639657988,1901,40,22.901714373713205,52.95864746721501
1.3204947530844473,2.336955999588232,1901,40,22.901714373713205,52.95864746721501
1.3438584156590352,2.336932635450225,1901,40,22.901714373713205,52.95864746721501
1.3672218399561114,2.3369092715513156,1901,40,22.901714373713205,52.95864746721501
1.3905850263393604,2.336885907891077,1901,40,22.901714373713205,52.95864746721501
1.4139479751446653,2.3368625444691165,1901,40,22.901714373713205,52.95864746721501
1.4373106866822443,2.3368391812850695,1901,40,22.901714373713205,52.95864746721501
1.4606731612386263,2.3368158183386005,1901,40,22.901714373713205,52.95864746721501
1.4840353990784756,2.3367924556293995,1901,40,22.901714373713205,52.95864746721501
1.5073974004462707,2.336769093157179,1901,40,22.901714373713205,52.95864746721501
1.5307591655678603,2.3367457309216757,1901,40,22.901714373713205,52.95864746721501
1.5541206946518944,2.3367223689226444,1901,40,22.901714373713205,52.95864746721501
1.5774819878911506,2.336699007159859,1901,40,22.901714373713205,52.95864746721501
1.6008430454637512,2.336675645633111,1901,40,22.901714373713205,52.95864746721501
1.6242038675342951,2.336652284342208,1901,40,22.901714373713205,52.95864746721501
1.6475644542548957,2.3366289232869715,1901,40,22.901714373713205,52.95864746721501
1.670924805766142,2.3366055624672373,1901,40,22.901714373713205,52.95864746721501
1.6942849221979854,2.3365822018828526,1901,40,22.901714373713205,52.95864746721501
1.717644803670559,2.3365588415336775,1901,40,22.901714373713205,52.95864746721501
1.7410044502949311,2.3365354814195816,1901,40,22.901714373713205,52.95864746721501
1.764363862173805,2.336512121540445,1901,40,22.901714373713205,52.95864746721501
1.7877230394021602,2.336488761896157,1901,40,22.901714373713205,52.95864746721501
1.81108198206785,2.336465402486614,1901,40,22.901714373713205,52.95864746721501
1.8344406902521457,2.3364420433117217,1901,40,22.901714373713205,52.95864746721501
1.857799164030246,2.3364186843713917,1901,40,22.901714373713205,52.95864746721501
1.8811574034717433,2.3363953256655434,1901,40,22.901714373713205,52.95864746721501
1.9045154086410556,2.336371967194101,1901,40,22.901714373713205,52.95864746721501
1.9278731795978228,2.3363486089569956,1901,40,22.901714373713205,52.95864746721501
1.9512307163972757,2.336325250954162,1901,40,22.901714373713205,52.95864746721501
1.974588019090577,2.3363018931855413,1901,40,22.901714373713205,52.95864746721501
1.9979450877251306,2.3362785356510773,1901,40,22.901714373713205,52.95864746721501
2.021301922344873,2.33625517835072,1901,40,22.901714373713205,52.95864746721501
2.0446585229905403,2.336231821284421,1901,40,22.901714373713205,52.95864746721501
2.0680148896999144,2.3362084644521373,1901,40,22.901714373713205,52.95864746721501
2.0913710225080484,2.336185107853827,1901,40,22.901714373713205,52.95864746721501
2.114726921447479,2.3361617514894535,1901,40,22.901714373713205,52.95864746721501
2.1380825865484177,2.336138395358981,1901,40,22.901714373713205,52.95864746721501
2.1614380178389334,2.3361150394623773,1901,40,22.901714373713205,52.95864746721501
2.1847932153451137,2.3360916837996117,1901,40,22.901714373713205,52.95864746721501
2.2081481790912174,2.336068328370657,1901,40,22.901714373713205,52.95864746721501
2.2315029090998184,2.336044973175486,1901,40,22.901714373713205,52.95864746721501
2.254857405391932,2.3360216182140756,1901,40,22.901714373713205,52.95864746721501
2.278211667987136,2.3359982634864025,1901,40,22.901714373713205,52.95864746721501
2.3015656969036824,2.335974908992446,1901,40,22.901714373713205,52.95864746721501
2.3249194921585996,2.3359515547321865,1901,40,22.901714373713205,52.95864746721501
2.3482730537677816,2.335928200705605,1901,40,22.901714373713205,52.95864746721501
2.3716263817460814,2.3359048469126855,1901,40,22.901714373713205,52.95864746721501
2.3949794761073906,2.335881493353412,1901,40,22.901714373713205,52.95864746721501
2.4183323368647076,2.335858140027769,1901,40,22.901714373713205,52.95864746721501
2.441684964030214,2.335834786935743,1901,40,22.901714373713205,52.95864746721501
2.4650373576153304,2.3358114340773213,1901,40,22.901714373713205,52.95864746721501
2.48838951763078,2.335788081452491,1901,40,22.901714373713205,52.95864746721501
2.511741444086642,2.335764729061241,1901,40,22.901714373713205,52.95864746721501
2.535093136992396,2.335741376903561,1901,40,22.901714373713205,52.95864746721501
2.558444596356974,2.3357180249794403,1901,40,22.901714373713205,52.95864746721501
2.581795822188802,2.3356946732888697,1901,40,22.901714373713205,52.95864746721501
2.6051468144958334,2.3356713218318403,1901,40,22.901714373713205,52.95864746721501
2.6284975732855913,2.3356479706083437,1901,40,22.901714373713205,52.95864746721501
2.6518480985652007,2.335624619618372,1901,40,22.901714373713205,52.95864746721501
2.675198390341415,2.335601268861917,1901,40,22.901714373713205,52.95864746721501
2.69854844862065,2.3355779183389727,1901,40,22.901714373713205,52.95864746721501
2.7218982734090083,2.3355545680495315,1901,40,22.901714373713205,52.95864746721501
2.7452478647122973,2.335531217993587,1901,40,22.901714373713205,52.95864746721501
2.768597222536062,2.335507868171134,1901,40,22.901714373713205,52.95864746721501
2.791946346885602,2.3354845185821658,1901,40,22.901714373713205,52.95864746721501
2.815295237765981,2.335461169226677,1901,40,22.901714373713205,52.95864746721501
2.8386438951820603,2.335437820104662,1901,40,22.901714373713205,52.95864746721501
2.861992319138502,2.335414471216117,1901,40,22.901714373713205,52.95864746721501
2.885340509639792,2.3353911225610355,1901,40,22.901714373713205,52.95864746721501
2.908688466690248,2.335367774139414,1901,40,22.901714373713205,52.95864746721501
2.932036190294037,2.3353444259512477,1901,40,22.901714373713205,52.95864746721501
2.955383680455184,2.3353210779965323,1901,40,22.901714373713205,52.95864746721501
2.9787309371775845,2.335297730275263,1901,40,22.901714373713205,52.95864746721501
3.002077960465014,2.335274382787437,1901,40,22.901714373713205,52.95864746721501
3.0254247503211347,2.3352510355330494,1901,40,22.901714373713205,52.95864746721501
3.048771306749509,2.3352276885120964,1901,40,22.901714373713205,52.95864746721501
3.072117629753604,2.335204341724575,1901,40,22.901714373713205,52.95864746721501
3.0954637193367995,2.3351809951704814,1901,40,22.901714373713205,52.95864746721501
3.1188095755023957,2.3351576488498123,1901,40,22.901714373713205,52.95864746721501
3.142155198253617,2.3351343027625635,1901,40,22.901714373713205,52.95864746721501
3.1655005875936197,2.3351109569087325,1901,40,22.901714373713205,52.95864746721501
3.1888457435254978,2.335087611288316,1901,40,22.901714373713205,52.95864746721501
3.2121906660522836,2.3350642659013103,1901,40,22.901714373713205,52.95864746721501
3.2355353551769594,2.335040920747713,1901,40,22.901714373713205,52.95864746721501
3.258879810902456,2.335017575827521,1901,40,22.901714373713205,52.95864746721501
3.2822240332316577,2.3349942311407306,1901,40,22.901714373713205,52.95864746721501
3.3055680221674075,2.3349708866873398,1901,40,22.901714373713205,52.95864746721501
3.328911777712508,2.334947542467345,1901,40,22.901714373713205,52.95864746721501
3.3522552998697255,2.334924198480744,1901,40,22.901714373713205,52.95864746721501
3.375598588641795,2.334900854727533,1901,40,22.901714373713205,52.95864746721501
3.3989416440314186,2.33487751120771,1901,40,22.901714373713205,52.95864746721501
3.422284466041271,2.3348541679212724,1901,40,22.901714373713205,52.95864746721501
3.4456270546739995,2.3348308248682175,1901,40,22.901714373713205,52.95864746721501
3.4689694099322286,2.3348074820485416,1901,40,22.901714373713205,52.95864746721501
3.4923115318185594,2.3347841394622435,1901,40,22.901714373713205,52.95864746721501
3.5156534203355734,2.334760797109319,1901,40,22.901714373713205,52.95864746721501
3.5389950754858313,2.3347374549897673,1901,40,22.901714373713205,52.95864746721501
3.562336497271877,2.3347141131035847,1901,40,22.901714373713205,52.95864746721501
3.5856776856962393,2.3346907714507683,1901,40,22.901714373713205,52.95864746721501
3.6090186407614304,2.334667430031317,1901,40,22.901714373713205,52.95864746721501
3.632359362469949,2.3346440888452262,1901,40,22.901714373713205,52.95864746721501
3.6556998508242824,2.334620747892495,1901,40,22.901714373713205,52.95864746721501
3.6790401058269038,2.334597407173121,1901,40,22.901714373713205,52.95864746721501
3.7023801274802777,2.3345740666871007,1901,40,22.901714373713205,52.95864746721501
3.7257199157868555,2.3345507264344323,1901,40,22.901714373713205,52.95864746721501
3.749059470749083,2.334527386415113,1901,40,22.901714373713205,52.95864746721501
3.7723987923693962,2.3345040466291405,1901,40,22.901714373713205,52.95864746721501
3.795737880650221,2.334480707076512,1901,40,22.901714373713205,52.95864746721501
3.819076735593979,2.3344573677572256,1901,40,22.901714373713205,52.95864746721501
3.8424153572030826,2.334434028671279,1901,40,22.901714373713205,52.95864746721501
3.8657537454799407,2.334410689818669,1901,40,22.901714373713205,52.95864746721501
3.8890919004269535,2.334387351199394,1901,40,22.901714373713205,52.95864746721501
3.912429822046517,2.334364012813451,1901,40,22.901714373713205,52.95864746721501
3.9357675103410235,2.334340674660838,1901,40,22.901714373713205,52.95864746721501
3.9591049653128603,2.334317336741552,1901,40,22.901714373713205,52.95864746721501
3.9824421869644087,2.3342939990555913,1901,40,22.901714373713205,52.95864746721501
4.0057791752980485,2.3342706616029534,1901,40,22.901714373713205,52.95864746721501
4.029115930316152,2.3342473243836355,1901,40,22.901714373713205,52.95864746721501
4.052452452021096,2.334223987397636,1901,40,22.901714373713205,52.95864746721501
4.075788740415247,2.3342006506449513,1901,40,22.901714373713205,52.95864746721501
4.099124795500967,2.33417731412558,1901,40,22.901714373713205,52.95864746721501
4.122460617280626,2.3341539778395193,1901,40,22.901714373713205,52.95864746721501
4.145796205756581,2.3341306417867673,1901,40,22.901714373713205,52.95864746721501
4.169131560931193,2.334107305967321,1901,40,22.901714373713205,52.95864746721501
4.192466682806817,2.334083970381179,1901,40,22.901714373713205,52.95864746721501
4.215801571385809,2.334060635028338,1901,40,22.901714373713205,52.95864746721501
4.239136226670522,2.334037299908796,1901,40,22.901714373713205,52.95864746721501
4.262470648663306,2.3340139650225504,1901,40,22.901714373713205,52.95864746721501
4.285804837366513,2.333990630369599,1901,40,22.901714373713205,52.95864746721501
4.3091387927824885,2.33396729594994,1901,40,22.901714373713205,52.95864746721501
4.332472514913585,2.33394396176357,1901,40,22.901714373713205,52.95864746721501
4.355806003762144,2.3339206278104876,1901,40,22.901714373713205,52.95864746721501
4.379139259330513,2.33389729409069,1901,40,22.901714373713205,52.95864746721501
4.402472281621035,2.333873960604175,1901,40,22.901714373713205,52.95864746721501
4.425805070636054,2.33385062735094,1901,40,22.901714373713205,52.95864746721501
4.449137626377912,2.3338272943309826,1901,40,22.901714373713205,52.95864746721501
4.47246994884895,2.333803961544301,1901,40,22.901714373713205,52.95864746721501
4.495802038051508,2.3337806289908927,1901,40,22.901714373713205,52.95864746721501
4.519133893987928,2.3337572966707545,1901,40,22.901714373713205,52.95864746721501
4.542465516660549,2.3337339645838853,1901,40,22.901714373713205,52.95864746721501
4.565796906071709,2.3337106327302823,1901,40,22.901714373713205,52.95864746721501
4.589128062223746,2.3336873011099426,1901,40,22.901714373713205,52.95864746721501
4.612458985118999,2.3336639697228647,1901,40,22.901714373713205,52.95864746721501
4.635789674759804,2.333640638569046,1901,40,22.901714373713205,52.95864746721501
4.659120131148501,2.333617307648484,1901,40,22.901714373713205,52.95864746721501
4.682450354287422,2.333593976961176,1901,40,22.901714373713205,52.95864746721501
4.705780344178906,2.3335706465071206,1901,40,22.901714373713205,52.95864746721501
4.729110100825287,2.3335473162863147,1901,40,22.901714373713205,52.95864746721501
4.752439624228903,2.3335239862987565,1901,40,22.901714373713205,52.95864746721501
4.775768914392087,2.3335006565444427,1901,40,22.901714373713205,52.95864746721501
4.799097971317174,2.333477327023372,1901,40,22.901714373713205,52.95864746721501
4.822426795006501,2.333453997735542,1901,40,22.901714373713205,52.95864746721501
4.8457553854623985,2.33343066868095,1901,40,22.901714373713205,52.95864746721501
4.869083742687203,2.3334073398595936,1901,40,22.901714373713205,52.95864746721501
4.89241186668325,2.3333840112714705,1901,40,22.901714373713205,52.95864746721501
4.9157397574528705,2.3333606829165787,1901,40,22.901714373713205,52.95864746721501
4.939067414998398,2.3333373547949154,1901,40,22.901714373713205,52.95864746721501
4.962394839322167,2.3333140269064785,1901,40,22.901714373713205,52.95864746721501
4.985722030426512,2.333290699251266,1901,40,22.901714373713205,52.95864746721501
5.009048988313764,2.333267371829275,1901,40,22.901714373713205,52.95864746721501
5.032375712986258,2.3332440446405034,1901,40,22.901714373713205,52.95864746721501
5.055702204446325,2.3332207176849487,1901,40,22.901714373713205,52.95864746721501
5.079028462696298,2.333197390962609,1901,40,22.901714373713205,52.95864746721501
5.102354487738511,2.3331740644734817,1901,40,22.901714373713205,52.95864746721501
5.1256802795752945,2.3331507382175642,1901,40,22.901714373713205,52.95864746721501
5.149005838208982,2.333127412194855,1901,40,22.901714373713205,52.95864746721501
5.172331163641907,2.3331040864053505,1901,40,22.901714373713205,52.95864746721501
5.1956562558764,2.33308076084905,1901,40,22.901714373713205,52.95864746721501
5.218981114914793,2.3330574355259492,1901,40,22.901714373713205,52.95864746721501
5.242305740759419,2.3330341104360475,1901,40,22.901714373713205,52.95864746721501
5.26563013341261,2.3330107855793414,1901,40,22.901714373713205,52.95864746721501
5.288954292876697,2.332987460955829,1901,40,22.901714373713205,52.95864746721501
5.312278219154014,2.3329641365655087,1901,40,22.901714373713205,52.95864746721501
5.335601912246891,2.332940812408377,1901,40,22.901714373713205,52.95864746721501
5.358925372157658,2.332917488484432,1901,40,22.901714373713205,52.95864746721501
5.38224859888865,2.3328941647936716,1901,40,22.901714373713205,52.95864746721501
5.4055715924421985,2.3328708413360935,1901,40,22.901714373713205,52.95864746721501
5.428894352820633,2.3328475181116946,1901,40,22.901714373713205,52.95864746721501
5.4522168800262865,2.3328241951204736,1901,40,22.901714373713205,52.95864746721501
5.47553917406149,2.3328008723624274,1901,40,22.901714373713205,52.95864746721501
5.498861234928576,2.332777549837554,1901,40,22.901714373713205,52.95864746721501
5.522183062629874,2.332754227545851,1901,40,22.901714373713205,52.95864746721501
5.545504657167716,2.3327309054873164,1901,40,22.901714373713205,52.95864746721501
5.568826018544433,2.3327075836619473,1901,40,22.901714373713205,52.95864746721501
5.5921471467623585,2.3326842620697414,1901,40,22.901714373713205,52.95864746721501
