Vout,Iout,Irradiance,Temperature,MaxVoltage,MaxPower
0.005705645138027519,1.1411399999999998,1001,-5,19.718874406918616,22.113602287343017
0.017116829911303772,1.1411399999999998,1001,-5,19.718874406918616,22.113602287343017
0.028527782698055778,1.1411341802408619,1001,-5,19.718874406918616,22.113602287343017
0.039938462053967796,1.1411227690560886,1001,-5,19.718874406918616,22.113602287343017
0.05134885443431844,1.1411113581038836,1001,-5,19.718874406918616,22.113602287343017
0.06275897314432953,1.141099947425669,1001,-5,19.718874406918616,22.113602287343017
0.07416883046596509,1.1410885370344297,1001,-5,19.718874406918616,22.113602287343017
0.08557843773640976,1.1410771269168607,1001,-5,19.718874406918616,22.113602287343017
0.09698780542063509,1.1410657170606802,1001,-5,19.718874406918616,22.113602287343017
0.10839694317850904,1.1410543074545507,1001,-5,19.718874406918616,22.113602287343017
0.11980585992674186,1.1410428980880074,1001,-5,19.718874406918616,22.113602287343017
0.13121456389606584,1.1410314889513906,1001,-5,19.718874406918616,22.113602287343017
0.14262306268401548,1.1410200800357833,1001,-5,19.718874406918616,22.113602287343017
0.15403136330364678,1.1410086713329548,1001,-5,19.718874406918616,22.113602287343017
0.165439472228508,1.1409972628353078,1001,-5,19.718874406918616,22.113602287343017
0.17684739543414998,1.1409858545358291,1001,-5,19.718874406918616,22.113602287343017
0.1882551384364432,1.1409744464280451,1001,-5,19.718874406918616,22.113602287343017
0.199662706326946,1.1409630385059801,1001,-5,19.718874406918616,22.113602287343017
0.21107010380555194,1.1409516307641188,1001,-5,19.718874406918616,22.113602287343017
0.22247733521062513,1.140940223197369,1001,-5,19.718874406918616,22.113602287343017
0.23388440454681683,1.1409288158010311,1001,-5,19.718874406918616,22.113602287343017
0.2452913155107419,1.140917408570767,1001,-5,19.718874406918616,22.113602287343017
0.25669807151467955,1.1409060015025714,1001,-5,19.718874406918616,22.113602287343017
0.2681046757084505,1.1408945945927482,1001,-5,19.718874406918616,22.113602287343017
0.27951113099961106,1.140883187837885,1001,-5,19.718874406918616,22.113602287343017
0.2909174400720934,1.140871781234832,1001,-5,19.718874406918616,22.113602287343017
0.3023236054034113,1.1408603747806814,1001,-5,19.718874406918616,22.113602287343017
0.31372962928054254,1.1408489684727496,1001,-5,19.718874406918616,22.113602287343017
0.3251355138145889,1.140837562308559,1001,-5,19.718874406918616,22.113602287343017
0.3365412609543084,1.1408261562858224,1001,-5,19.718874406918616,22.113602287343017
0.3479468724986062,1.140814750402429,1001,-5,19.718874406918616,22.113602287343017
0.35935235010806477,1.1408033446564299,1001,-5,19.718874406918616,22.113602287343017
0.37075769531558606,1.1407919390460262,1001,-5,19.718874406918616,22.113602287343017
0.3821629095362164,1.1407805335695573,1001,-5,19.718874406918616,22.113602287343017
0.39356799407621346,1.1407691282254904,1001,-5,19.718874406918616,22.113602287343017
0.40497295014141715,1.1407577230124102,1001,-5,19.718874406918616,22.113602287343017
0.4163777788449763,1.1407463179290107,1001,-5,19.718874406918616,22.113602287343017
0.42778248121447937,1.140734912974086,1001,-5,19.718874406918616,22.113602287343017
0.43918705819853876,1.140723508146523,1001,-5,19.718874406918616,22.113602287343017
0.45059151067286657,1.140712103445294,1001,-5,19.718874406918616,22.113602287343017
0.4619958394458841,1.1407006988694504,1001,-5,19.718874406918616,22.113602287343017
0.473400045263899,1.1406892944181166,1001,-5,19.718874406918616,22.113602287343017
0.4848041288158845,1.1406778900904841,1001,-5,19.718874406918616,22.113602287343017
0.49620809073789107,1.1406664858858064,1001,-5,19.718874406918616,22.113602287343017
0.507611931617118,1.140655081803395,1001,-5,19.718874406918616,22.113602287343017
0.5190156519956721,1.1406436778426134,1001,-5,19.718874406918616,22.113602287343017
0.5304192523740375,1.1406322740028745,1001,-5,19.718874406918616,22.113602287343017
0.5418227332142781,1.1406208702836365,1001,-5,19.718874406918616,22.113602287343017
0.5532260949429935,1.1406094666843984,1001,-5,19.718874406918616,22.113602287343017
0.564629337954047,1.1405980632046986,1001,-5,19.718874406918616,22.113602287343017
0.5760324626110866,1.1405866598441101,1001,-5,19.718874406918616,22.113602287343017
0.5874354692498671,1.1405752566022394,1001,-5,19.718874406918616,22.113602287343017
0.5988383581803979,1.1405638534787228,1001,-5,19.718874406918616,22.113602287343017
0.6102411296889236,1.1405524504732243,1001,-5,19.718874406918616,22.113602287343017
0.6216437840397522,1.140541047585434,1001,-5,19.718874406918616,22.113602287343017
0.6330463214769432,1.140529644815066,1001,-5,19.718874406918616,22.113602287343017
0.6444487422258653,1.1405182421618554,1001,-5,19.718874406918616,22.113602287343017
0.6558510464946351,1.1405068396255584,1001,-5,19.718874406918616,22.113602287343017
0.6672532344754435,1.1404954372059497,1001,-5,19.718874406918616,22.113602287343017
0.6786553063457818,1.1404840349028211,1001,-5,19.718874406918616,22.113602287343017
0.6900572622695729,1.1404726327159806,1001,-5,19.718874406918616,22.113602287343017
0.7014591023982141,1.1404612306452506,1001,-5,19.718874406918616,22.113602287343017
0.7128608268715423,1.140449828690467,1001,-5,19.718874406918616,22.113602287343017
0.7242624358187226,1.1404384268514784,1001,-5,19.718874406918616,22.113602287343017
0.7356639293590697,1.1404270251281454,1001,-5,19.718874406918616,22.113602287343017
0.7470653076028055,1.1404156235203384,1001,-5,19.718874406918616,22.113602287343017
0.7584665706517592,1.1404042220279382,1001,-5,19.718874406918616,22.113602287343017
0.7698677186000125,1.1403928206508347,1001,-5,19.718874406918616,22.113602287343017
0.7812687515344962,1.140381419388926,1001,-5,19.718874406918616,22.113602287343017
0.7926696695355401,1.1403700182421177,1001,-5,19.718874406918616,22.113602287343017
0.8040704726773806,1.1403586172103233,1001,-5,19.718874406918616,22.113602287343017
0.8154711610286306,1.1403472162934625,1001,-5,19.718874406918616,22.113602287343017
0.8268717346527112,1.1403358154914607,1001,-5,19.718874406918616,22.113602287343017
0.8382721936082512,1.1403244148042495,1001,-5,19.718874406918616,22.113602287343017
0.8496725379494561,1.1403130142317655,1001,-5,19.718874406918616,22.113602287343017
0.8610727677264489,1.1403016137739501,1001,-5,19.718874406918616,22.113602287343017
0.8724728829855832,1.1402902134307489,1001,-5,19.718874406918616,22.113602287343017
0.8838728837697342,1.140278813202112,1001,-5,19.718874406918616,22.113602287343017
0.895272770118565,1.1402674130879928,1001,-5,19.718874406918616,22.113602287343017
0.9066725420687762,1.1402560130883488,1001,-5,19.718874406918616,22.113602287343017
0.9180721996543303,1.1402446132031399,1001,-5,19.718874406918616,22.113602287343017
0.9294717429066658,1.1402332134323296,1001,-5,19.718874406918616,22.113602287343017
0.9408711718548896,1.1402218137758842,1001,-5,19.718874406918616,22.113602287343017
0.9522704865259563,1.140210414233772,1001,-5,19.718874406918616,22.113602287343017
0.9636696869448343,1.1401990148059635,1001,-5,19.718874406918616,22.113602287343017
0.9750687731346592,1.1401876154924324,1001,-5,19.718874406918616,22.113602287343017
0.9864677451168735,1.1401762162931535,1001,-5,19.718874406918616,22.113602287343017
0.9978666029113579,1.1401648172081036,1001,-5,19.718874406918616,22.113602287343017
1.0092653465365506,1.1401534182372612,1001,-5,19.718874406918616,22.113602287343017
1.0206639760095597,1.1401420193806067,1001,-5,19.718874406918616,22.113602287343017
1.032062491346264,1.1401306206381214,1001,-5,19.718874406918616,22.113602287343017
1.0434608925614075,1.1401192220097882,1001,-5,19.718874406918616,22.113602287343017
1.0548591796686893,1.1401078234955915,1001,-5,19.718874406918616,22.113602287343017
1.0662573526808403,1.1400964250955161,1001,-5,19.718874406918616,22.113602287343017
1.0776554116097006,1.1400850268095488,1001,-5,19.718874406918616,22.113602287343017
1.0890533564662863,1.1400736286376765,1001,-5,19.718874406918616,22.113602287343017
1.100451187260854,1.1400622305798875,1001,-5,19.718874406918616,22.113602287343017
1.1118489040029584,1.1400508326361707,1001,-5,19.718874406918616,22.113602287343017
1.1232465067015076,1.140039434806516,1001,-5,19.718874406918616,22.113602287343017
1.1346439953648106,1.1400280370909135,1001,-5,19.718874406918616,22.113602287343017
1.1460413700006258,1.140016639489355,1001,-5,19.718874406918616,22.113602287343017
1.157438630616202,1.1400052420018314,1001,-5,19.718874406918616,22.113602287343017
1.168835777218317,1.1399938446283353,1001,-5,19.718874406918616,22.113602287343017
1.1802328098133164,1.1399824473688593,1001,-5,19.718874406918616,22.113602287343017
1.1916297284071438,1.139971050223397,1001,-5,19.718874406918616,22.113602287343017
1.2030265330053742,1.1399596531919418,1001,-5,19.718874406918616,22.113602287343017
1.21442322361324,1.1399482562744876,1001,-5,19.718874406918616,22.113602287343017
1.2258198002356604,1.139936859471029,1001,-5,19.718874406918616,22.113602287343017
1.2372162628772618,1.139925462781561,1001,-5,19.718874406918616,22.113602287343017
1.2486126115424039,1.1399140662060783,1001,-5,19.718874406918616,22.113602287343017
1.260008846235198,1.1399026697445762,1001,-5,19.718874406918616,22.113602287343017
1.271404966959526,1.1398912733970508,1001,-5,19.718874406918616,22.113602287343017
1.28280097371906,1.1398798771634977,1001,-5,19.718874406918616,22.113602287343017
1.294196866517276,1.139868481043913,1001,-5,19.718874406918616,22.113602287343017
1.3055926453574713,1.139857085038293,1001,-5,19.718874406918616,22.113602287343017
1.3169883102427764,1.1398456891466344,1001,-5,19.718874406918616,22.113602287343017
1.3283838611761687,1.1398342933689338,1001,-5,19.718874406918616,22.113602287343017
1.3397792981604844,1.139822897705188,1001,-5,19.718874406918616,22.113602287343017
1.3511746211984283,1.1398115021553943,1001,-5,19.718874406918616,22.113602287343017
1.362569830292586,1.1398001067195496,1001,-5,19.718874406918616,22.113602287343017
1.373964925445431,1.1397887113976513,1001,-5,19.718874406918616,22.113602287343017
1.3853599066593336,1.1397773161896965,1001,-5,19.718874406918616,22.113602287343017
1.3967547739365707,1.1397659210956832,1001,-5,19.718874406918616,22.113602287343017
1.4081495272793303,1.1397545261156088,1001,-5,19.718874406918616,22.113602287343017
1.4195441666897208,1.1397431312494712,1001,-5,19.718874406918616,22.113602287343017
1.4309386921697753,1.1397317364972679,1001,-5,19.718874406918616,22.113602287343017
1.4423331037214582,1.139720341858997,1001,-5,19.718874406918616,22.113602287343017
1.4537274013466706,1.1397089473346564,1001,-5,19.718874406918616,22.113602287343017
1.4651215850472548,1.1396975529242441,1001,-5,19.718874406918616,22.113602287343017
1.4765156548249987,1.1396861586277585,1001,-5,19.718874406918616,22.113602287343017
1.4879096106816403,1.1396747644451972,1001,-5,19.718874406918616,22.113602287343017
1.499303452618872,1.1396633703765588,1001,-5,19.718874406918616,22.113602287343017
1.5106971806383431,1.1396519764218418,1001,-5,19.718874406918616,22.113602287343017
1.522090794741664,1.1396405825810438,1001,-5,19.718874406918616,22.113602287343017
1.5334842949304086,1.1396291888541639,1001,-5,19.718874406918616,22.113602287343017
1.5448776812061178,1.1396177952411999,1001,-5,19.718874406918616,22.113602287343017
1.5562709535703003,1.1396064017421506,1001,-5,19.718874406918616,22.113602287343017
1.5676641120244377,1.139595008357014,1001,-5,19.718874406918616,22.113602287343017
1.5790571565699838,1.1395836150857894,1001,-5,19.718874406918616,22.113602287343017
1.5904500872083696,1.1395722219284745,1001,-5,19.718874406918616,22.113602287343017
1.6018429039410031,1.1395608288850683,1001,-5,19.718874406918616,22.113602287343017
1.613235606769271,1.1395494359555693,1001,-5,19.718874406918616,22.113602287343017
1.6246281956945419,1.139538043139976,1001,-5,19.718874406918616,22.113602287343017
1.636020670718166,1.139526650438287,1001,-5,19.718874406918616,22.113602287343017
1.6474130318414768,1.139515257850501,1001,-5,19.718874406918616,22.113602287343017
1.6588052790657941,1.1395038653766165,1001,-5,19.718874406918616,22.113602287343017
1.6701974123924228,1.1394924730166325,1001,-5,19.718874406918616,22.113602287343017
1.681589431822655,1.1394810807705475,1001,-5,19.718874406918616,22.113602287343017
1.6929813373577718,1.1394696886383602,1001,-5,19.718874406918616,22.113602287343017
1.7043731289990425,1.139458296620069,1001,-5,19.718874406918616,22.113602287343017
1.7157648067477262,1.1394469047156732,1001,-5,19.718874406918616,22.113602287343017
1.7271563706050737,1.1394355129251712,1001,-5,19.718874406918616,22.113602287343017
1.7385478205723262,1.1394241212485616,1001,-5,19.718874406918616,22.113602287343017
1.7499391566507174,1.1394127296858434,1001,-5,19.718874406918616,22.113602287343017
1.7613303788414738,1.1394013382370154,1001,-5,19.718874406918616,22.113602287343017
1.7727214871458148,1.139389946902076,1001,-5,19.718874406918616,22.113602287343017
1.7841124815649538,1.1393785556810245,1001,-5,19.718874406918616,22.113602287343017
1.7955033621000986,1.1393671645738592,1001,-5,19.718874406918616,22.113602287343017
1.8068941287524514,1.1393557735805793,1001,-5,19.718874406918616,22.113602287343017
1.8182847815232093,1.1393443827011833,1001,-5,19.718874406918616,22.113602287343017
1.829675320413565,1.13933299193567,1001,-5,19.718874406918616,22.113602287343017
1.8410657454247072,1.1393216012840384,1001,-5,19.718874406918616,22.113602287343017
1.8524560565578214,1.1393102107462871,1001,-5,19.718874406918616,22.113602287343017
1.8638462538140879,1.139298820322415,1001,-5,19.718874406918616,22.113602287343017
1.875236337194685,1.139287430012421,1001,-5,19.718874406918616,22.113602287343017
1.8866263067007873,1.1392760398163038,1001,-5,19.718874406918616,22.113602287343017
1.8980161623335667,1.1392646497340622,1001,-5,19.718874406918616,22.113602287343017
1.9094059040941935,1.139253259765695,1001,-5,19.718874406918616,22.113602287343017
1.9207955319838337,1.1392418699112012,1001,-5,19.718874406918616,22.113602287343017
1.9321850460036527,1.1392304801705797,1001,-5,19.718874406918616,22.113602287343017
1.943574446154813,1.139219090543829,1001,-5,19.718874406918616,22.113602287343017
1.9549637324384759,1.1392077010309483,1001,-5,19.718874406918616,22.113602287343017
1.9663529048558004,1.139196311631936,1001,-5,19.718874406918616,22.113602287343017
1.9777419634079438,1.1391849223467911,1001,-5,19.718874406918616,22.113602287343017
1.9891309080960626,1.1391735331755128,1001,-5,19.718874406918616,22.113602287343017
2.0005197389213114,1.1391621441180997,1001,-5,19.718874406918616,22.113602287343017
2.011908455884844,1.1391507551745503,1001,-5,19.718874406918616,22.113602287343017
2.023297058987812,1.1391393663448641,1001,-5,19.718874406918616,22.113602287343017
2.0346855482313657,1.1391279776290395,1001,-5,19.718874406918616,22.113602287343017
2.0460739236166567,1.1391165890270754,1001,-5,19.718874406918616,22.113602287343017
2.0574621851448343,1.1391052005389708,1001,-5,19.718874406918616,22.113602287343017
2.0688503328170462,1.1390938121647243,1001,-5,19.718874406918616,22.113602287343017
2.08023836663444,1.139082423904335,1001,-5,19.718874406918616,22.113602287343017
2.0916262865981636,1.1390710357578016,1001,-5,19.718874406918616,22.113602287343017
2.103014092709363,1.139059647725123,1001,-5,19.718874406918616,22.113602287343017
2.1144017849691816,1.139048259806298,1001,-5,19.718874406918616,22.113602287343017
2.1257893633787677,1.1390368720013258,1001,-5,19.718874406918616,22.113602287343017
2.1371768279392636,1.1390254843102046,1001,-5,19.718874406918616,22.113602287343017
2.1485641786518137,1.1390140967329339,1001,-5,19.718874406918616,22.113602287343017
2.159951415517562,1.139002709269512,1001,-5,19.718874406918616,22.113602287343017
2.171338538537652,1.1389913219199383,1001,-5,19.718874406918616,22.113602287343017
2.1827255477132246,1.1389799346842113,1001,-5,19.718874406918616,22.113602287343017
2.1941124430454235,1.13896854756233,1001,-5,19.718874406918616,22.113602287343017
2.2054992245353913,1.1389571605542932,1001,-5,19.718874406918616,22.113602287343017
2.2168858921842687,1.1389457736600996,1001,-5,19.718874406918616,22.113602287343017
2.228272445993197,1.1389343868797484,1001,-5,19.718874406918616,22.113602287343017
2.239658885963318,1.1389230002132382,1001,-5,19.718874406918616,22.113602287343017
2.251045212095773,1.138911613660568,1001,-5,19.718874406918616,22.113602287343017
2.262431424391701,1.1389002272217366,1001,-5,19.718874406918616,22.113602287343017
2.2738175228522444,1.1388888408967426,1001,-5,19.718874406918616,22.113602287343017
2.285203507478542,1.1388774546855853,1001,-5,19.718874406918616,22.113602287343017
2.2965893782717357,1.1388660685882634,1001,-5,19.718874406918616,22.113602287343017
2.3079751352329634,1.1388546826047758,1001,-5,19.718874406918616,22.113602287343017
2.319360778363366,1.1388432967351212,1001,-5,19.718874406918616,22.113602287343017
2.330746307664083,1.1388319109792986,1001,-5,19.718874406918616,22.113602287343017
2.3421317231362537,1.1388205253373067,1001,-5,19.718874406918616,22.113602287343017
2.3535170247810187,1.1388091398091447,1001,-5,19.718874406918616,22.113602287343017
2.364902212599515,1.1387977543948111,1001,-5,19.718874406918616,22.113602287343017
2.3762872865928837,1.1387863690943048,1001,-5,19.718874406918616,22.113602287343017
2.387672246762263,1.1387749839076249,1001,-5,19.718874406918616,22.113602287343017
2.399057093108792,1.13876359883477,1001,-5,19.718874406918616,22.113602287343017
2.410441825633609,1.138752213875739,1001,-5,19.718874406918616,22.113602287343017
2.4218264443378543,1.1387408290305312,1001,-5,19.718874406918616,22.113602287343017
2.4332109492226652,1.138729444299145,1001,-5,19.718874406918616,22.113602287343017
2.4445953402891805,1.1387180596815791,1001,-5,19.718874406918616,22.113602287343017
2.45597961753854,1.1387066751778328,1001,-5,19.718874406918616,22.113602287343017
2.4673637809718807,1.1386952907879047,1001,-5,19.718874406918616,22.113602287343017
2.4787478305903416,1.1386839065117937,1001,-5,19.718874406918616,22.113602287343017
2.490131766395062,1.138672522349499,1001,-5,19.718874406918616,22.113602287343017
2.5015155883871785,1.1386611383010188,1001,-5,19.718874406918616,22.113602287343017
2.512899296567831,1.1386497543663525,1001,-5,19.718874406918616,22.113602287343017
2.524282890938157,1.1386383705454988,1001,-5,19.718874406918616,22.113602287343017
2.5356663714992944,1.1386269868384566,1001,-5,19.718874406918616,22.113602287343017
2.547049738252382,1.1386156032452246,1001,-5,19.718874406918616,22.113602287343017
2.5584329911985577,1.138604219765802,1001,-5,19.718874406918616,22.113602287343017
2.5698161303389595,1.1385928364001872,1001,-5,19.718874406918616,22.113602287343017
2.5811991556747262,1.1385814531483793,1001,-5,19.718874406918616,22.113602287343017
2.592582067206995,1.1385700700103771,1001,-5,19.718874406918616,22.113602287343017
2.603964864936904,1.1385586869861797,1001,-5,19.718874406918616,22.113602287343017
2.615347548865592,1.1385473040757859,1001,-5,19.718874406918616,22.113602287343017
2.626730118994196,1.1385359212791941,1001,-5,19.718874406918616,22.113602287343017
2.638112575323853,1.1385245385964038,1001,-5,19.718874406918616,22.113602287343017
2.649494917855703,1.1385131560274135,1001,-5,19.718874406918616,22.113602287343017
2.6608771465908827,1.138501773572222,1001,-5,19.718874406918616,22.113602287343017
2.6722592615305305,1.1384903912308286,1001,-5,19.718874406918616,22.113602287343017
