Vout,Iout,Irradiance,Temperature,MaxVoltage,MaxPower
0.003335517927712233,0.6671099999999999,601,-20,18.613613800905025,12.07110144095216
0.010006492106253272,0.6671099999999999,601,-20,18.613613800905025,12.07110144095216
0.0166773306655625,0.6671065977710722,601,-20,18.613613800905025,12.07110144095216
0.02334800937730906,0.6670999267968937,601,-20,18.613613800905025,12.07110144095216
0.030018520323254097,0.6670932559586745,601,-20,18.613613800905025,12.07110144095216
0.03668887128162511,0.6670865852806299,601,-20,18.613613800905025,12.07110144095216
0.04335906943245349,0.667079914770351,601,-20,18.613613800905025,12.07110144095216
0.050029121403452975,0.6670732444200597,601,-20,18.613613800905025,12.07110144095216
0.056699033312441846,0.667066574222576,601,-20,18.613613800905025,12.07110144095216
0.06336881080657515,0.6670599041712719,601,-20,18.613613800905025,12.07110144095216
0.07003845909855826,0.66705323426003,601,-20,18.613613800905025,12.07110144095216
0.07670798300007402,0.6670465644832029,601,-20,18.613613800905025,12.07110144095216
0.0833773869526382,0.6670398948355779,601,-20,18.613613800905025,12.07110144095216
0.0900466750560806,0.6670332253123433,601,-20,18.613613800905025,12.07110144095216
0.09671585109483496,0.6670265559090578,601,-20,18.613613800905025,12.07110144095216
0.10338491856220604,0.6670198866216213,601,-20,18.613613800905025,12.07110144095216
0.11005388068276954,0.6670132174462494,601,-20,18.613613800905025,12.07110144095216
0.11672274043304846,0.667006548379449,601,-20,18.613613800905025,12.07110144095216
0.12339150056059883,0.6669998794179953,601,-20,18.613613800905025,12.07110144095216
0.13006016360162656,0.666993210558912,601,-20,18.613613800905025,12.07110144095216
0.1367287318972492,0.6669865417994514,601,-20,18.613613800905025,12.07110144095216
0.1433972076085064,0.6669798731370772,601,-20,18.613613800905025,12.07110144095216
0.1500655927302153,0.6669732045694484,601,-20,18.613613800905025,12.07110144095216
0.15673388910375974,0.666966536094404,601,-20,18.613613800905025,12.07110144095216
0.16340209842889616,0.6669598677099492,601,-20,18.613613800905025,12.07110144095216
0.17007022227465016,0.6669531994142425,601,-20,18.613613800905025,12.07110144095216
0.17673826208937532,0.6669465312055842,601,-20,18.613613800905025,12.07110144095216
0.18340621921003802,0.6669398630824053,601,-20,18.613613800905025,12.07110144095216
0.1900740948707875,0.6669331950432573,601,-20,18.613613800905025,12.07110144095216
0.19674189021086694,0.6669265270868036,601,-20,18.613613800905025,12.07110144095216
0.20340960628191565,0.6669198592118096,601,-20,18.613613800905025,12.07110144095216
0.21007724405470937,0.6669131914171363,601,-20,18.613613800905025,12.07110144095216
0.21674480442538221,0.666906523701732,601,-20,18.613613800905025,12.07110144095216
0.22341228822116946,0.666899856064626,601,-20,18.613613800905025,12.07110144095216
0.23007969620570895,0.6668931885049221,601,-20,18.613613800905025,12.07110144095216
0.2367470290839344,0.6668865210217931,601,-20,18.613613800905025,12.07110144095216
0.24341428750659183,0.6668798536144753,601,-20,18.613613800905025,12.07110144095216
0.25008147207440934,0.6668731862822639,601,-20,18.613613800905025,12.07110144095216
0.2567485833419452,0.6668665190245079,601,-20,18.613613800905025,12.07110144095216
0.2634156218211404,0.6668598518406068,601,-20,18.613613800905025,12.07110144095216
0.2700825879845978,0.666853184730006,601,-20,18.613613800905025,12.07110144095216
0.27674948226860846,0.6668465176921935,601,-20,18.613613800905025,12.07110144095216
0.2834163050759459,0.6668398507266968,601,-20,18.613613800905025,12.07110144095216
0.290083056778445,0.6668331838330795,601,-20,18.613613800905025,12.07110144095216
0.2967497377193821,0.6668265170109389,601,-20,18.613613800905025,12.07110144095216
0.3034163482156729,0.6668198502599031,601,-20,18.613613800905025,12.07110144095216
0.3100828885599,0.6668131835796288,601,-20,18.613613800905025,12.07110144095216
0.3167493590221859,0.6668065169697992,601,-20,18.613613800905025,12.07110144095216
0.3234157598519204,0.6667998504301216,601,-20,18.613613800905025,12.07110144095216
0.33008209127935617,0.6667931839603259,601,-20,18.613613800905025,12.07110144095216
0.3367483535170812,0.6667865175601629,601,-20,18.613613800905025,12.07110144095216
0.343414546761378,0.6667798512294021,601,-20,18.613613800905025,12.07110144095216
0.35008067119347785,0.666773184967831,601,-20,18.613613800905025,12.07110144095216
0.3567467269807192,0.6667665187752534,601,-20,18.613613800905025,12.07110144095216
0.36341271427761634,0.6667598526514878,601,-20,18.613613800905025,12.07110144095216
0.3700786332268465,0.6667531865963673,601,-20,18.613613800905025,12.07110144095216
0.3767444839601601,0.6667465206097369,601,-20,18.613613800905025,12.07110144095216
0.3834102665992218,0.6667398546914544,601,-20,18.613613800905025,12.07110144095216
0.39007598125638654,0.6667331888413877,601,-20,18.613613800905025,12.07110144095216
0.3967416280354158,0.6667265230594152,601,-20,18.613613800905025,12.07110144095216
0.4034072070321385,0.6667198573454246,601,-20,18.613613800905025,12.07110144095216
0.4100727183350618,0.6667131916993122,601,-20,18.613613800905025,12.07110144095216
0.4167381620259341,0.666706526120982,601,-20,18.613613800905025,12.07110144095216
0.4234035381802652,0.6666998606103456,601,-20,18.613613800905025,12.07110144095216
0.43006884686780655,0.6666931951673213,601,-20,18.613613800905025,12.07110144095216
0.4367340881529939,0.6666865297918335,601,-20,18.613613800905025,12.07110144095216
0.44339926209535624,0.6666798644838126,601,-20,18.613613800905025,12.07110144095216
0.45006436874989414,0.6666731992431939,601,-20,18.613613800905025,12.07110144095216
0.45672940816742696,0.666666534069918,601,-20,18.613613800905025,12.07110144095216
0.4633943803949156,0.66665986896393,601,-20,18.613613800905025,12.07110144095216
0.4700592854757586,0.666653203925179,601,-20,18.613613800905025,12.07110144095216
0.47672412345006715,0.666646538953618,601,-20,18.613613800905025,12.07110144095216
0.48338889435491705,0.6666398740492038,601,-20,18.613613800905025,12.07110144095216
0.49005359822458266,0.666633209211896,601,-20,18.613613800905025,12.07110144095216
0.49671823509075275,0.6666265444416576,601,-20,18.613613800905025,12.07110144095216
0.5033828049827289,0.6666198797384544,601,-20,18.613613800905025,12.07110144095216
0.5100473079276097,0.6666132151022547,601,-20,18.613613800905025,12.07110144095216
0.5167117439504594,0.6666065505330292,601,-20,18.613613800905025,12.07110144095216
0.5233761130744657,0.6665998860307507,601,-20,18.613613800905025,12.07110144095216
0.5300404153210834,0.6665932215953944,601,-20,18.613613800905025,12.07110144095216
0.5367046507101672,0.6665865572269368,601,-20,18.613613800905025,12.07110144095216
0.5433688192600958,0.6665798929253566,601,-20,18.613613800905025,12.07110144095216
0.550032920987885,0.666573228690634,601,-20,18.613613800905025,12.07110144095216
0.5566969559092928,0.6665665645227504,601,-20,18.613613800905025,12.07110144095216
0.5633609240389156,0.6665599004216891,601,-20,18.613613800905025,12.07110144095216
0.5700248253902784,0.6665532363874341,601,-20,18.613613800905025,12.07110144095216
0.5766886599759165,0.666546572419971,601,-20,18.613613800905025,12.07110144095216
0.583352427807452,0.6665399085192859,601,-20,18.613613800905025,12.07110144095216
0.5900161288956641,0.6665332446853667,601,-20,18.613613800905025,12.07110144095216
0.596679763250554,0.6665265809182016,601,-20,18.613613800905025,12.07110144095216
0.6033433308814046,0.6665199172177797,601,-20,18.613613800905025,12.07110144095216
0.6100068317968351,0.6665132535840912,601,-20,18.613613800905025,12.07110144095216
0.6166702660048541,0.6665065900171268,601,-20,18.613613800905025,12.07110144095216
0.623333633512904,0.6664999265168777,601,-20,18.613613800905025,12.07110144095216
0.6299969343279065,0.666493263083336,601,-20,18.613613800905025,12.07110144095216
0.6366601684563017,0.6664865997164943,601,-20,18.613613800905025,12.07110144095216
0.6433233359040855,0.6664799364163456,601,-20,18.613613800905025,12.07110144095216
0.6499864366768439,0.6664732731828836,601,-20,18.613613800905025,12.07110144095216
0.656649470779784,0.6664666100161022,601,-20,18.613613800905025,12.07110144095216
0.6633124382177636,0.6664599469159957,601,-20,18.613613800905025,12.07110144095216
0.6699753389953182,0.6664532838825591,601,-20,18.613613800905025,12.07110144095216
0.6766381731166852,0.6664466209157874,601,-20,18.613613800905025,12.07110144095216
0.6833009405858276,0.6664399580156761,601,-20,18.613613800905025,12.07110144095216
0.6899636414064544,0.666433295182221,601,-20,18.613613800905025,12.07110144095216
0.6966262755820405,0.6664266324154182,601,-20,18.613613800905025,12.07110144095216
0.7032888431158446,0.6664199697152638,601,-20,18.613613800905025,12.07110144095216
0.7099513440109264,0.6664133070817546,601,-20,18.613613800905025,12.07110144095216
0.7166137782701607,0.6664066445148871,601,-20,18.613613800905025,12.07110144095216
0.7232761458962531,0.6663999820146582,601,-20,18.613613800905025,12.07110144095216
0.7299384468917512,0.6663933195810653,601,-20,18.613613800905025,12.07110144095216
0.7366006812590591,0.6663866572141054,601,-20,18.613613800905025,12.07110144095216
0.7432628490004461,0.6663799949137762,601,-20,18.613613800905025,12.07110144095216
0.7499249501180589,0.666373332680075,601,-20,18.613613800905025,12.07110144095216
0.7565869846139295,0.6663666705129999,601,-20,18.613613800905025,12.07110144095216
0.7632489524899857,0.6663600084125485,601,-20,18.613613800905025,12.07110144095216
0.7699108537480572,0.6663533463787189,601,-20,18.613613800905025,12.07110144095216
0.7765726883898849,0.666346684411509,601,-20,18.613613800905025,12.07110144095216
0.7832344564171267,0.6663400225109172,601,-20,18.613613800905025,12.07110144095216
0.7898961578313642,0.6663333606769415,601,-20,18.613613800905025,12.07110144095216
0.7965577926341084,0.6663266989095805,601,-20,18.613613800905025,12.07110144095216
0.8032193608268056,0.6663200372088325,601,-20,18.613613800905025,12.07110144095216
0.8098808624108415,0.6663133755746958,601,-20,18.613613800905025,12.07110144095216
0.8165422973875469,0.6663067140071693,601,-20,18.613613800905025,12.07110144095216
0.8232036657582013,0.6663000525062515,601,-20,18.613613800905025,12.07110144095216
0.8298649675240366,0.666293391071941,601,-20,18.613613800905025,12.07110144095216
0.8365262026862421,0.6662867297042364,601,-20,18.613613800905025,12.07110144095216
0.8431873712459659,0.6662800684031367,601,-20,18.613613800905025,12.07110144095216
0.8498484732043192,0.6662734071686407,601,-20,18.613613800905025,12.07110144095216
0.8565095085623792,0.6662667460007471,601,-20,18.613613800905025,12.07110144095216
0.863170477321191,0.6662600848994549,601,-20,18.613613800905025,12.07110144095216
0.869831379481771,0.6662534238647629,601,-20,18.613613800905025,12.07110144095216
0.8764922150451081,0.6662467628966702,601,-20,18.613613800905025,12.07110144095216
0.883152984012167,0.6662401019951757,601,-20,18.613613800905025,12.07110144095216
0.8898136863838886,0.6662334411602785,601,-20,18.613613800905025,12.07110144095216
0.8964743221611934,0.6662267803919775,601,-20,18.613613800905025,12.07110144095216
0.9031348913449817,0.6662201196902718,601,-20,18.613613800905025,12.07110144095216
0.9097953939361361,0.6662134590551606,601,-20,18.613613800905025,12.07110144095216
0.9164558299355221,0.6662067984866429,601,-20,18.613613800905025,12.07110144095216
0.9231161993439903,0.6662001379847178,601,-20,18.613613800905025,12.07110144095216
0.929776502162377,0.6661934775493845,601,-20,18.613613800905025,12.07110144095216
0.936436738391505,0.6661868171806421,601,-20,18.613613800905025,12.07110144095216
0.9430969080321852,0.6661801568784897,601,-20,18.613613800905025,12.07110144095216
0.9497570110852177,0.6661734966429267,601,-20,18.613613800905025,12.07110144095216
0.9564170475513916,0.666166836473952,601,-20,18.613613800905025,12.07110144095216
0.963077017431487,0.666160176371565,601,-20,18.613613800905025,12.07110144095216
0.9697369207262748,0.6661535163357648,601,-20,18.613613800905025,12.07110144095216
0.9763967574365184,0.6661468563665508,601,-20,18.613613800905025,12.07110144095216
0.983056527562973,0.666140196463922,601,-20,18.613613800905025,12.07110144095216
0.9897162311063871,0.6661335366278777,601,-20,18.613613800905025,12.07110144095216
0.9963758680675031,0.6661268768584172,601,-20,18.613613800905025,12.07110144095216
1.0030354384470572,0.6661202171555398,601,-20,18.613613800905025,12.07110144095216
1.0096949422457804,0.6661135575192447,601,-20,18.613613800905025,12.07110144095216
1.0163543794643988,0.6661068979495312,601,-20,18.613613800905025,12.07110144095216
1.0230137501036325,0.6661002384463983,601,-20,18.613613800905025,12.07110144095216
1.0296730541641996,0.6660935790098457,601,-20,18.613613800905025,12.07110144095216
1.0363322916468127,0.6660869196398724,601,-20,18.613613800905025,12.07110144095216
1.0429914625521808,0.6660802603364777,601,-20,18.613613800905025,12.07110144095216
1.0496505668810103,0.6660736010996611,601,-20,18.613613800905025,12.07110144095216
1.0563096046340035,0.6660669419294216,601,-20,18.613613800905025,12.07110144095216
1.062968575811861,0.6660602828257588,601,-20,18.613613800905025,12.07110144095216
1.0696274804152799,0.6660536237886717,601,-20,18.613613800905025,12.07110144095216
1.076286318444955,0.6660469648181597,601,-20,18.613613800905025,12.07110144095216
1.0829450899015785,0.6660403059142223,601,-20,18.613613800905025,12.07110144095216
1.0896037947858412,0.6660336470768584,601,-20,18.613613800905025,12.07110144095216
1.0962624330984323,0.6660269883060677,601,-20,18.613613800905025,12.07110144095216
1.1029210048400377,0.6660203296018493,601,-20,18.613613800905025,12.07110144095216
1.1095795100113433,0.6660136709642026,601,-20,18.613613800905025,12.07110144095216
1.1162379486130327,0.6660070123931269,601,-20,18.613613800905025,12.07110144095216
1.1228963206457871,0.6660003538886214,601,-20,18.613613800905025,12.07110144095216
1.1295546261102891,0.6659936954506857,601,-20,18.613613800905025,12.07110144095216
1.136212865007217,0.6659870370793187,601,-20,18.613613800905025,12.07110144095216
1.1428710373372506,0.66598037877452,601,-20,18.613613800905025,12.07110144095216
1.149529143101067,0.6659737205362889,601,-20,18.613613800905025,12.07110144095216
1.1561871822993428,0.6659670623646248,601,-20,18.613613800905025,12.07110144095216
1.1628451549327539,0.6659604042595267,601,-20,18.613613800905025,12.07110144095216
1.1695030610019759,0.6659537462209942,601,-20,18.613613800905025,12.07110144095216
1.1761609005076823,0.6659470882490267,601,-20,18.613613800905025,12.07110144095216
1.1828186734505468,0.6659404303436233,601,-20,18.613613800905025,12.07110144095216
1.189476379831243,0.6659337725047834,601,-20,18.613613800905025,12.07110144095216
1.1961340196504429,0.6659271147325063,601,-20,18.613613800905025,12.07110144095216
1.2027915929088182,0.6659204570267914,601,-20,18.613613800905025,12.07110144095216
1.2094490996070406,0.665913799387638,601,-20,18.613613800905025,12.07110144095216
1.2161065397457806,0.6659071418150454,601,-20,18.613613800905025,12.07110144095216
1.2227639133257093,0.6659004843090129,601,-20,18.613613800905025,12.07110144095216
1.2294212203474963,0.6658938268695399,601,-20,18.613613800905025,12.07110144095216
1.2360784608118112,0.6658871694966257,601,-20,18.613613800905025,12.07110144095216
1.2427356347193235,0.6658805121902697,601,-20,18.613613800905025,12.07110144095216
1.2493927420707023,0.6658738549504711,601,-20,18.613613800905025,12.07110144095216
1.2560497828666164,0.6658671977772294,601,-20,18.613613800905025,12.07110144095216
1.2627067571077344,0.6658605406705437,601,-20,18.613613800905025,12.07110144095216
1.2693636647947242,0.6658538836304134,601,-20,18.613613800905025,12.07110144095216
1.2760205059282543,0.665847226656838,601,-20,18.613613800905025,12.07110144095216
1.2826772805089923,0.6658405697498168,601,-20,18.613613800905025,12.07110144095216
1.289333988537606,0.6658339129093489,601,-20,18.613613800905025,12.07110144095216
1.2959906300147628,0.6658272561354339,601,-20,18.613613800905025,12.07110144095216
1.3026472049411297,0.6658205994280709,601,-20,18.613613800905025,12.07110144095216
1.3093037133173742,0.6658139427872595,601,-20,18.613613800905025,12.07110144095216
1.3159601551441629,0.6658072862129988,601,-20,18.613613800905025,12.07110144095216
1.322616530422163,0.6658006297052882,601,-20,18.613613800905025,12.07110144095216
1.329272839152041,0.665793973264127,601,-20,18.613613800905025,12.07110144095216
1.3359290813344633,0.6657873168895148,601,-20,18.613613800905025,12.07110144095216
1.3425852569700973,0.6657806605814505,601,-20,18.613613800905025,12.07110144095216
1.349241366059608,0.6657740043399337,601,-20,18.613613800905025,12.07110144095216
1.3558974086036633,0.6657673481649637,601,-20,18.613613800905025,12.07110144095216
1.3625533846029285,0.6657606920565399,601,-20,18.613613800905025,12.07110144095216
1.36920929405807,0.6657540360146614,601,-20,18.613613800905025,12.07110144095216
1.3758651369697534,0.6657473800393278,601,-20,18.613613800905025,12.07110144095216
1.3825209133386456,0.6657407241305382,601,-20,18.613613800905025,12.07110144095216
1.3891766231654121,0.6657340682882921,601,-20,18.613613800905025,12.07110144095216
1.3958322664507181,0.6657274125125888,601,-20,18.613613800905025,12.07110144095216
1.4024878431952306,0.6657207568034277,601,-20,18.613613800905025,12.07110144095216
1.4091433533996145,0.6657141011608079,601,-20,18.613613800905025,12.07110144095216
1.4157987970645363,0.6657074455847289,601,-20,18.613613800905025,12.07110144095216
1.4224541741906611,0.6657007900751901,601,-20,18.613613800905025,12.07110144095216
1.4291094847786547,0.6656941346321907,601,-20,18.613613800905025,12.07110144095216
1.435764728829183,0.6656874792557302,601,-20,18.613613800905025,12.07110144095216
1.4424199063429117,0.6656808239458077,601,-20,18.613613800905025,12.07110144095216
1.4490750173205058,0.6656741687024228,601,-20,18.613613800905025,12.07110144095216
1.4557300617626308,0.6656675135255745,601,-20,18.613613800905025,12.07110144095216
1.4623850396699525,0.6656608584152625,601,-20,18.613613800905025,12.07110144095216
1.4690399510431362,0.6656542033714858,601,-20,18.613613800905025,12.07110144095216
1.475694795882848,0.6656475483942441,601,-20,18.613613800905025,12.07110144095216
1.482349574189752,0.6656408934835364,601,-20,18.613613800905025,12.07110144095216
1.4890042859645143,0.6656342386393622,601,-20,18.613613800905025,12.07110144095216
1.4956589312078004,0.6656275838617207,601,-20,18.613613800905025,12.07110144095216
1.5023135099202753,0.6656209291506114,601,-20,18.613613800905025,12.07110144095216
1.508968022102604,0.6656142745060337,601,-20,18.613613800905025,12.07110144095216
1.5156224677554528,0.6656076199279867,601,-20,18.613613800905025,12.07110144095216
1.5222768468794863,0.6656009654164698,601,-20,18.613613800905025,12.07110144095216
1.5289311594753698,0.6655943109714825,601,-20,18.613613800905025,12.07110144095216
1.5355854055437688,0.6655876565930239,601,-20,18.613613800905025,12.07110144095216
1.542239585085348,0.6655810022810934,601,-20,18.613613800905025,12.07110144095216
1.5488936981007733,0.6655743480356905,601,-20,18.613613800905025,12.07110144095216
1.5555477445907095,0.6655676938568142,601,-20,18.613613800905025,12.07110144095216
1.562201724555822,0.6655610397444643,601,-20,18.613613800905025,12.07110144095216
1.5688556379967755,0.6655543856986398,601,-20,18.613613800905025,12.07110144095216
1.5755094849142357,0.6655477317193401,601,-20,18.613613800905025,12.07110144095216
