Vout,Iout,Irradiance,Temperature,MaxVoltage,MaxPower
0.0074806780704031696,1.4961499999999999,1301,0,20.09465412725338,29.66141176767203
0.022441895886391804,1.4961499999999999,1301,0,20.09465412725338,29.66141176767203
0.03740280954457486,1.4961423697069294,1301,0,20.09465412725338,29.66141176767203
0.052363364707261106,1.4961274084891134,1301,0,20.09465412725338,29.66141176767203
0.06732354361595033,1.4961124475762184,1301,0,20.09465412725338,29.66141176767203
0.08228336371513456,1.4960974870225519,1301,0,20.09465412725338,29.66141176767203
0.09724284110771132,1.4960825268451392,1301,0,20.09465412725338,29.66141176767203
0.11220199065787678,1.496067567026536,1301,0,20.09465412725338,29.66141176767203
0.12716082608626747,1.4960526075506395,1301,0,20.09465412725338,29.66141176767203
0.14211936005794762,1.4960376484025852,1301,0,20.09465412725338,29.66141176767203
0.15707760426362663,1.4960226895686528,1301,0,20.09465412725338,29.66141176767203
0.17203556949462726,1.496007731036177,1301,0,20.09465412725338,29.66141176767203
0.186993265712086,1.4959927727934672,1301,0,20.09465412725338,29.66141176767203
0.20195070211082883,1.4959778148297322,1301,0,20.09465412725338,29.66141176767203
0.21690788717833248,1.4959628571350105,1301,0,20.09465412725338,29.66141176767203
0.23186482874914874,1.4959478997001077,1301,0,20.09465412725338,29.66141176767203
0.24682153405514184,1.4959329425165357,1301,0,20.09465412725338,29.66141176767203
0.26177800977186,1.4959179855764608,1301,0,20.09465412725338,29.66141176767203
0.27673426206133916,1.4959030288726505,1301,0,20.09465412725338,29.66141176767203
0.2916902966116137,1.4958880723984294,1301,0,20.09465412725338,29.66141176767203
0.3066461186731866,1.4958731161476357,1301,0,20.09465412725338,29.66141176767203
0.3216017330926938,1.495858160114581,1301,0,20.09465412725338,29.66141176767203
0.33655714434397876,1.495843204294015,1301,0,20.09465412725338,29.66141176767203
0.35151235655677504,1.4958282486810912,1301,0,20.09465412725338,29.66141176767203
0.3664673735431834,1.4958132932713355,1301,0,20.09465412725338,29.66141176767203
0.3814221988221101,1.4957983380606181,1301,0,20.09465412725338,29.66141176767203
0.3963768356418266,1.4957833830451273,1301,0,20.09465412725338,29.66141176767203
0.41133128700079213,1.495768428221344,1301,0,20.09465412725338,29.66141176767203
0.4262855556668748,1.4957534735860198,1301,0,20.09465412725338,29.66141176767203
0.4412396441950934,1.4957385191361563,1301,0,20.09465412725338,29.66141176767203
0.45619355494399466,1.4957235648689857,1301,0,20.09465412725338,29.66141176767203
0.47114729009077005,1.4957086107819528,1301,0,20.09465412725338,29.66141176767203
0.4861008516452097,1.4956936568726993,1301,0,20.09465412725338,29.66141176767203
0.5010542414625818,1.495678703139048,1301,0,20.09465412725338,29.66141176767203
0.5160074612555227,1.495663749578989,1301,0,20.09465412725338,29.66141176767203
0.5309605126050108,1.495648796190667,1301,0,20.09465412725338,29.66141176767203
0.5459133969704959,1.4956338429723695,1301,0,20.09465412725338,29.66141176767203
0.5608661156992515,1.4956188899225153,1301,0,20.09465412725338,29.66141176767203
0.5758186700350039,1.495603937039645,1301,0,20.09465412725338,29.66141176767203
0.5907710611259002,1.4955889843224117,1301,0,20.09465412725338,29.66141176767203
0.6057232900318629,1.4955740317695712,1301,0,20.09465412725338,29.66141176767203
0.6206753577313765,1.4955590793799756,1301,0,20.09465412725338,29.66141176767203
0.6356272651277548,1.495544127152565,1301,0,20.09465412725338,29.66141176767203
0.6505790130549244,1.4955291750863606,1301,0,20.09465412725338,29.66141176767203
0.6655306022827624,1.4955142231804595,1301,0,20.09465412725338,29.66141176767203
0.6804820335220265,1.4954992714340274,1301,0,20.09465412725338,29.66141176767203
0.6954333074289015,1.4954843198462948,1301,0,20.09465412725338,29.66141176767203
0.7103844246092001,1.4954693684165508,1301,0,20.09465412725338,29.66141176767203
0.7253353856222373,1.495454417144139,1301,0,20.09465412725338,29.66141176767203
0.7402861909844085,1.4954394660284538,1301,0,20.09465412725338,29.66141176767203
0.755236841172492,1.4954245150689358,1301,0,20.09465412725338,29.66141176767203
0.7701873366266968,1.4954095642650689,1301,0,20.09465412725338,29.66141176767203
0.785137677753477,1.4953946136163758,1301,0,20.09465412725338,29.66141176767203
0.8000878649281277,1.4953796631224168,1301,0,20.09465412725338,29.66141176767203
0.8150378984971832,1.495364712782785,1301,0,20.09465412725338,29.66141176767203
0.8299877787806308,1.4953497625971055,1301,0,20.09465412725338,29.66141176767203
0.8449375060739513,1.4953348125650314,1301,0,20.09465412725338,29.66141176767203
0.8598870806500069,1.495319862686243,1301,0,20.09465412725338,29.66141176767203
0.8748365027607787,1.4953049129604448,1301,0,20.09465412725338,29.66141176767203
0.8897857726389766,1.4952899633873635,1301,0,20.09465412725338,29.66141176767203
0.9047348904995195,1.495275013966748,1301,0,20.09465412725338,29.66141176767203
0.9196838565409048,1.4952600646983645,1301,0,20.09465412725338,29.66141176767203
0.934632670946473,1.495245115581999,1301,0,20.09465412725338,29.66141176767203
0.9495813338855722,1.4952301666174526,1301,0,20.09465412725338,29.66141176767203
0.9645298455146365,1.495215217804542,1301,0,20.09465412725338,29.66141176767203
0.9794782059781777,1.4952002691430977,1301,0,20.09465412725338,29.66141176767203
0.9944264154097042,1.4951853206329635,1301,0,20.09465412725338,29.66141176767203
1.0093744739325665,1.4951703722739949,1301,0,20.09465412725338,29.66141176767203
1.02432238166074,1.495155424066058,1301,0,20.09465412725338,29.66141176767203
1.0392701386995447,1.49514047600903,1301,0,20.09465412725338,29.66141176767203
1.0542177451463126,1.4951255281027966,1301,0,20.09465412725338,29.66141176767203
1.0691652010910018,1.4951105803472526,1301,0,20.09465412725338,29.66141176767203
1.0841125066167636,1.4950956327423008,1301,0,20.09465412725338,29.66141176767203
1.0990596618004669,1.4950806852878509,1301,0,20.09465412725338,29.66141176767203
1.1140066667131803,1.49506573798382,1301,0,20.09465412725338,29.66141176767203
1.1289535214206203,1.495050790830131,1301,0,20.09465412725338,29.66141176767203
1.1439002259835607,1.4950358438267128,1301,0,20.09465412725338,29.66141176767203
1.158846780458215,1.4950208969735002,1301,0,20.09465412725338,29.66141176767203
1.173793184896587,1.4950059502704318,1301,0,20.09465412725338,29.66141176767203
1.188739439346793,1.4949910037174519,1301,0,20.09465412725338,29.66141176767203
1.2036855438533625,1.4949760573145083,1301,0,20.09465412725338,29.66141176767203
1.2186314984575142,1.4949611110615526,1301,0,20.09465412725338,29.66141176767203
1.2335773031974102,1.4949461649585407,1301,0,20.09465412725338,29.66141176767203
1.2485229581083905,1.4949312190054314,1301,0,20.09465412725338,29.66141176767203
1.2634684632231923,1.494916273202186,1301,0,20.09465412725338,29.66141176767203
1.2784138185721472,1.4949013275487695,1301,0,20.09465412725338,29.66141176767203
1.2933590241833695,1.4948863820451495,1301,0,20.09465412725338,29.66141176767203
1.3083040800829242,1.494871436691295,1301,0,20.09465412725338,29.66141176767203
1.323248986294986,1.4948564914871783,1301,0,20.09465412725338,29.66141176767203
1.338193742841985,1.4948415464327733,1301,0,20.09465412725338,29.66141176767203
1.3531383497447398,1.4948266015280558,1301,0,20.09465412725338,29.66141176767203
1.3680828070225828,1.4948116567730032,1301,0,20.09465412725338,29.66141176767203
1.3830271146934727,1.494796712167595,1301,0,20.09465412725338,29.66141176767203
1.3979712727741023,1.4947817677118116,1301,0,20.09465412725338,29.66141176767203
1.4129152812799946,1.4947668234056353,1301,0,20.09465412725338,29.66141176767203
1.4278591402255936,1.494751879249049,1301,0,20.09465412725338,29.66141176767203
1.4428028496243466,1.4947369352420374,1301,0,20.09465412725338,29.66141176767203
1.4577464094887804,1.4947219913845864,1301,0,20.09465412725338,29.66141176767203
1.472689819830574,1.494707047676682,1301,0,20.09465412725338,29.66141176767203
1.487633080660622,1.4946921041183119,1301,0,20.09465412725338,29.66141176767203
1.5025761919890956,1.4946771607094644,1301,0,20.09465412725338,29.66141176767203
1.5175191538254997,1.4946622174501287,1301,0,20.09465412725338,29.66141176767203
1.5324619661787209,1.4946472743402948,1301,0,20.09465412725338,29.66141176767203
1.5474046290570778,1.4946323313799526,1301,0,20.09465412725338,29.66141176767203
1.5623471424683635,1.4946173885690937,1301,0,20.09465412725338,29.66141176767203
1.5772895064198873,1.4946024459077096,1301,0,20.09465412725338,29.66141176767203
1.5922317209185104,1.4945875033957927,1301,0,20.09465412725338,29.66141176767203
1.6071737859706814,1.4945725610333354,1301,0,20.09465412725338,29.66141176767203
1.622115701582466,1.4945576188203311,1301,0,20.09465412725338,29.66141176767203
1.6370574677595804,1.494542676756773,1301,0,20.09465412725338,29.66141176767203
1.6519990845074146,1.4945277348426556,1301,0,20.09465412725338,29.66141176767203
1.6669405518310592,1.4945127930779727,1301,0,20.09465412725338,29.66141176767203
1.6818818697353275,1.494497851462719,1301,0,20.09465412725338,29.66141176767203
1.6968230382247778,1.4944829099968895,1301,0,20.09465412725338,29.66141176767203
1.7117640573037325,1.4944679686804794,1301,0,20.09465412725338,29.66141176767203
1.7267049269762957,1.4944530275134842,1301,0,20.09465412725338,29.66141176767203
1.741645647246372,1.4944380864958993,1301,0,20.09465412725338,29.66141176767203
1.7565862181176792,1.4944231456277208,1301,0,20.09465412725338,29.66141176767203
1.7715266395937648,1.4944082049089449,1301,0,20.09465412725338,29.66141176767203
1.7864669116780172,1.4943932643395677,1301,0,20.09465412725338,29.66141176767203
1.80140703437368,1.4943783239195856,1301,0,20.09465412725338,29.66141176767203
1.8163470076838615,1.4943633836489953,1301,0,20.09465412725338,29.66141176767203
1.8312868316115463,1.4943484435277938,1301,0,20.09465412725338,29.66141176767203
1.8462265061596035,1.4943335035559777,1301,0,20.09465412725338,29.66141176767203
1.8611660313307972,1.4943185637335439,1301,0,20.09465412725338,29.66141176767203
1.8761054071277927,1.4943036240604899,1301,0,20.09465412725338,29.66141176767203
1.8910446335531657,1.4942886845368126,1301,0,20.09465412725338,29.66141176767203
1.9059837106094089,1.4942737451625097,1301,0,20.09465412725338,29.66141176767203
1.9209226382989375,1.4942588059375783,1301,0,20.09465412725338,29.66141176767203
1.9358614166240957,1.494243866862016,1301,0,20.09465412725338,29.66141176767203
1.950800045587163,1.4942289279358203,1301,0,20.09465412725338,29.66141176767203
1.9657385251903576,1.4942139891589892,1301,0,20.09465412725338,29.66141176767203
1.980676855435842,1.49419905053152,1301,0,20.09465412725338,29.66141176767203
1.9956150363257275,1.4941841120534105,1301,0,20.09465412725338,29.66141176767203
2.0105530678620775,1.494169173724659,1301,0,20.09465412725338,29.66141176767203
2.025490950046912,1.4941542355452628,1301,0,20.09465412725338,29.66141176767203
2.04042868288221,1.4941392975152203,1301,0,20.09465412725338,29.66141176767203
2.055366266369912,1.4941243596345295,1301,0,20.09465412725338,29.66141176767203
2.070303700511927,1.4941094219031879,1301,0,20.09465412725338,29.66141176767203
2.08524098531013,1.494094484321194,1301,0,20.09465412725338,29.66141176767203
2.1001781207663663,1.4940795468885457,1301,0,20.09465412725338,29.66141176767203
2.1151151068824547,1.4940646096052412,1301,0,20.09465412725338,29.66141176767203
2.1300519436601895,1.4940496724712788,1301,0,20.09465412725338,29.66141176767203
2.14498863110134,1.4940347354866566,1301,0,20.09465412725338,29.66141176767203
2.1599251692076566,1.4940197986513724,1301,0,20.09465412725338,29.66141176767203
2.1748615579808677,1.494004861965425,1301,0,20.09465412725338,29.66141176767203
2.1897977974226848,1.4939899254288123,1301,0,20.09465412725338,29.66141176767203
2.204733887534803,1.4939749890415328,1301,0,20.09465412725338,29.66141176767203
2.2196698283189,1.4939600528035846,1301,0,20.09465412725338,29.66141176767203
2.234605619776641,1.4939451167149662,1301,0,20.09465412725338,29.66141176767203
2.2495412619096773,1.4939301807756757,1301,0,20.09465412725338,29.66141176767203
2.2644767547196483,1.4939152449857116,1301,0,20.09465412725338,29.66141176767203
2.279412098208181,1.493900309345072,1301,0,20.09465412725338,29.66141176767203
2.2943472923768935,1.4938853738537556,1301,0,20.09465412725338,29.66141176767203
2.3092823372273945,1.4938704385117607,1301,0,20.09465412725338,29.66141176767203
2.3242172327612813,1.4938555033190857,1301,0,20.09465412725338,29.66141176767203
2.3391519789801456,1.4938405682757285,1301,0,20.09465412725338,29.66141176767203
2.3540865758855705,1.4938256333816882,1301,0,20.09465412725338,29.66141176767203
2.3690210234791325,1.4938106986369628,1301,0,20.09465412725338,29.66141176767203
2.3839553217624014,1.493795764041551,1301,0,20.09465412725338,29.66141176767203
2.3988894707369406,1.4937808295954509,1301,0,20.09465412725338,29.66141176767203
2.4138234704043096,1.493765895298661,1301,0,20.09465412725338,29.66141176767203
2.42875732076606,1.49375096115118,1301,0,20.09465412725338,29.66141176767203
2.443691021823742,1.493736027153006,1301,0,20.09465412725338,29.66141176767203
2.458624573578899,1.4937210933041376,1301,0,20.09465412725338,29.66141176767203
2.4735579760330717,1.4937061596045733,1301,0,20.09465412725338,29.66141176767203
2.4884912291877974,1.4936912260543116,1301,0,20.09465412725338,29.66141176767203
2.5034243330446078,1.493676292653351,1301,0,20.09465412725338,29.66141176767203
2.518357287605035,1.4936613594016894,1301,0,20.09465412725338,29.66141176767203
2.5332900928706046,1.493646426299326,1301,0,20.09465412725338,29.66141176767203
2.548222748842841,1.4936314933462589,1301,0,20.09465412725338,29.66141176767203
2.563155255523268,1.4936165605424867,1301,0,20.09465412725338,29.66141176767203
2.5780876129134036,1.4936016278880078,1301,0,20.09465412725338,29.66141176767203
2.5930198210147672,1.4935866953828205,1301,0,20.09465412725338,29.66141176767203
2.607951879828873,1.4935717630269236,1301,0,20.09465412725338,29.66141176767203
2.6228837893572363,1.4935568308203155,1301,0,20.09465412725338,29.66141176767203
2.6378155496013678,1.4935418987629947,1301,0,20.09465412725338,29.66141176767203
2.652747160562779,1.4935269668549596,1301,0,20.09465412725338,29.66141176767203
2.667678622242979,1.4935120350962086,1301,0,20.09465412725338,29.66141176767203
2.682609934643476,1.4934971034867404,1301,0,20.09465412725338,29.66141176767203
2.6975410977657774,1.4934821720265534,1301,0,20.09465412725338,29.66141176767203
2.7124721116113877,1.493467240715646,1301,0,20.09465412725338,29.66141176767203
2.727402976181813,1.4934523095540169,1301,0,20.09465412725338,29.66141176767203
2.7423336914785557,1.4934373785416644,1301,0,20.09465412725338,29.66141176767203
2.7572642575031185,1.4934224476785871,1301,0,20.09465412725338,29.66141176767203
2.772194674257004,1.4934075169647834,1301,0,20.09465412725338,29.66141176767203
2.7871249417417143,1.493392586400252,1301,0,20.09465412725338,29.66141176767203
2.802055059958748,1.4933776559849912,1301,0,20.09465412725338,29.66141176767203
2.816985028909606,1.4933627257189994,1301,0,20.09465412725338,29.66141176767203
2.831914848595788,1.4933477956022756,1301,0,20.09465412725338,29.66141176767203
2.846844519018792,1.4933328656348177,1301,0,20.09465412725338,29.66141176767203
2.861774040180116,1.4933179358166244,1301,0,20.09465412725338,29.66141176767203
2.8767034120812585,1.4933030061476946,1301,0,20.09465412725338,29.66141176767203
2.8916326347237167,1.493288076628026,1301,0,20.09465412725338,29.66141176767203
2.9065617081089874,1.493273147257618,1301,0,20.09465412725338,29.66141176767203
2.921490632238567,1.4932582180364684,1301,0,20.09465412725338,29.66141176767203
2.936419407113952,1.4932432889645761,1301,0,20.09465412725338,29.66141176767203
2.9513480327366386,1.4932283600419396,1301,0,20.09465412725338,29.66141176767203
2.9662765091081216,1.493213431268557,1301,0,20.09465412725338,29.66141176767203
2.981204836229896,1.4931985026444272,1301,0,20.09465412725338,29.66141176767203
2.996133014103457,1.4931835741695487,1301,0,20.09465412725338,29.66141176767203
3.0110610427303,1.4931686458439197,1301,0,20.09465412725338,29.66141176767203
3.025988922111919,1.493153717667539,1301,0,20.09465412725338,29.66141176767203
3.0409166522498094,1.493138789640405,1301,0,20.09465412725338,29.66141176767203
3.0558442331454656,1.4931238617625162,1301,0,20.09465412725338,29.66141176767203
3.0707716648003793,1.493108934033871,1301,0,20.09465412725338,29.66141176767203
3.0856989472160463,1.4930940064544682,1301,0,20.09465412725338,29.66141176767203
3.1006260803939596,1.493079079024306,1301,0,20.09465412725338,29.66141176767203
3.115553064335613,1.4930641517433831,1301,0,20.09465412725338,29.66141176767203
3.1304798990425002,1.493049224611698,1301,0,20.09465412725338,29.66141176767203
3.1454065845161137,1.493034297629249,1301,0,20.09465412725338,29.66141176767203
3.1603331207579473,1.4930193707960349,1301,0,20.09465412725338,29.66141176767203
3.1752595077694927,1.493004444112054,1301,0,20.09465412725338,29.66141176767203
3.1901857455522458,1.492989517577305,1301,0,20.09465412725338,29.66141176767203
3.2051118341076963,1.492974591191786,1301,0,20.09465412725338,29.66141176767203
3.220037773437339,1.492959664955496,1301,0,20.09465412725338,29.66141176767203
3.2349635635426663,1.4929447388684332,1301,0,20.09465412725338,29.66141176767203
3.2498892044251697,1.4929298129305961,1301,0,20.09465412725338,29.66141176767203
3.2648146960863436,1.4929148871419833,1301,0,20.09465412725338,29.66141176767203
3.279740038527679,1.4928999615025933,1301,0,20.09465412725338,29.66141176767203
3.2946652317506695,1.4928850360124248,1301,0,20.09465412725338,29.66141176767203
3.309590275756806,1.4928701106714761,1301,0,20.09465412725338,29.66141176767203
3.3245151705475826,1.4928551854797456,1301,0,20.09465412725338,29.66141176767203
3.33943991612449,1.492840260437232,1301,0,20.09465412725338,29.66141176767203
3.3543645124890205,1.4928253355439338,1301,0,20.09465412725338,29.66141176767203
3.369288959642667,1.4928104107998494,1301,0,20.09465412725338,29.66141176767203
3.384213257586922,1.4927954862049773,1301,0,20.09465412725338,29.66141176767203
3.3991374063232773,1.4927805617593162,1301,0,20.09465412725338,29.66141176767203
3.414061405853224,1.4927656374628644,1301,0,20.09465412725338,29.66141176767203
3.4289852561782546,1.4927507133156204,1301,0,20.09465412725338,29.66141176767203
3.443908957299861,1.492735789317583,1301,0,20.09465412725338,29.66141176767203
3.458832509219536,1.4927208654687503,1301,0,20.09465412725338,29.66141176767203
3.4737559119387704,1.492705941769121,1301,0,20.09465412725338,29.66141176767203
3.488679165459056,1.4926910182186939,1301,0,20.09465412725338,29.66141176767203
3.503602269781885,1.4926760948174669,1301,0,20.09465412725338,29.66141176767203
3.5185252249087506,1.492661171565439,1301,0,20.09465412725338,29.66141176767203
3.5334480308411416,1.4926462484626084,1301,0,20.09465412725338,29.66141176767203
3.5483706875805523,1.492631325508974,1301,0,20.09465412725338,29.66141176767203
3.563293195128474,1.4926164027045339,1301,0,20.09465412725338,29.66141176767203
3.5782155534863973,1.4926014800492868,1301,0,20.09465412725338,29.66141176767203
3.593137762655815,1.492586557543231,1301,0,20.09465412725338,29.66141176767203
3.608059822638218,1.4925716351863654,1301,0,20.09465412725338,29.66141176767203
3.6229817334350978,1.4925567129786883,1301,0,20.09465412725338,29.66141176767203
3.637903495047946,1.4925417909201981,1301,0,20.09465412725338,29.66141176767203
