Vout,Iout,Irradiance,Temperature,MaxVoltage,MaxPower
0.011120743069778177,2.22417,1901,10,20.83758705847695,45.91304442256702
0.0333620235762698,2.22417,1901,10,20.83758705847695,45.91304442256702
0.05560285192310736,2.22415865683993,1901,10,20.83758705847695,45.91304442256702
0.07784314733211839,2.224136415559424,1901,10,20.83758705847695,45.91304442256702
0.10008288340359472,2.224114174732211,1901,10,20.83758705847695,45.91304442256702
0.12232208607044133,2.224091934439026,1901,10,20.83758705847695,45.91304442256702
0.1445607792711548,2.224069694705179,1901,10,20.83758705847695,45.91304442256702
0.16679898510278365,2.2240474555047363,1901,10,20.83758705847695,45.91304442256702
0.18903672396236573,2.2240252168137595,1901,10,20.83758705847695,45.91304442256702
0.21127401467772977,2.2240029786101516,1901,10,20.83758705847695,45.91304442256702
0.23351087462823278,2.223980740873516,1901,10,20.83758705847695,45.91304442256702
0.2557473198562077,2.2239585035850244,1901,10,20.83758705847695,45.91304442256702
0.27798336516983607,2.2239362667272977,1901,10,20.83758705847695,45.91304442256702
0.30021902423810587,2.2239140302842935,1901,10,20.83758705847695,45.91304442256702
0.32245430967846245,2.2238917942412035,1901,10,20.83758705847695,45.91304442256702
0.3446892331377162,2.223869558584359,1901,10,20.83758705847695,45.91304442256702
0.36692380536672453,2.223847323301142,1901,10,20.83758705847695,45.91304442256702
0.38915803628932794,2.2238250883799062,1901,10,20.83758705847695,45.91304442256702
0.41139193506598193,2.223802853809901,1901,10,20.83758705847695,45.91304442256702
0.43362551015249334,2.223780619581202,1901,10,20.83758705847695,45.91304442256702
0.4558587693542369,2.223758385684649,1901,10,20.83758705847695,45.91304442256702
0.4780917198762003,2.2237361521117855,1901,10,20.83758705847695,45.91304442256702
0.5003243683691792,2.223713918854807,1901,10,20.83758705847695,45.91304442256702
0.5225567209724177,2.2236916859065086,1901,10,20.83758705847695,45.91304442256702
0.5447887833529674,2.223669453260239,1901,10,20.83758705847695,45.91304442256702
0.5670205607420197,2.223647220909859,1901,10,20.83758705847695,45.91304442256702
0.5892520579684403,2.2236249888497017,1901,10,20.83758705847695,45.91304442256702
0.611483279489725,2.223602757074536,1901,10,20.83758705847695,45.91304442256702
0.6337142294205748,2.2235805255795325,1901,10,20.83758705847695,45.91304442256702
0.6559449115592694,2.2235582943602346,1901,10,20.83758705847695,45.91304442256702
0.678175329412014,2.223536063412527,1901,10,20.83758705847695,45.91304442256702
0.7004054862154118,2.2235138327326114,1901,10,20.83758705847695,45.91304442256702
0.7226353849572075,2.2234916023169817,1901,10,20.83758705847695,45.91304442256702
0.7448650283954354,2.2234693721624015,1901,10,20.83758705847695,45.91304442256702
0.7670944190760928,2.2234471422658824,1901,10,20.83758705847695,45.91304442256702
0.7893235593494546,2.2234249126246675,1901,10,20.83758705847695,45.91304442256702
0.8115524513851339,2.2234026832362095,1901,10,20.83758705847695,45.91304442256702
0.8337810971859803,2.223380454098159,1901,10,20.83758705847695,45.91304442256702
0.8560094986009121,2.2233582252083464,1901,10,20.83758705847695,45.91304442256702
0.8782376573367604,2.2233359965647685,1901,10,20.83758705847695,45.91304442256702
0.9004655749692001,2.2233137681655766,1901,10,20.83758705847695,45.91304442256702
0.922693252952843,2.2232915400090634,1901,10,20.83758705847695,45.91304442256702
0.9449206926305511,2.2232693120936537,1901,10,20.83758705847695,45.91304442256702
0.9671478952420354,2.2232470844178933,1901,10,20.83758705847695,45.91304442256702
0.9893748619317932,2.2232248569804383,1901,10,20.83758705847695,45.91304442256702
1.0116015937564327,2.2232026297800496,1901,10,20.83758705847695,45.91304442256702
1.0338280916914355,2.2231804028155824,1901,10,20.83758705847695,45.91304442256702
1.0560543566373999,2.2231581760859807,1901,10,20.83758705847695,45.91304442256702
1.0782803894258015,2.2231359495902683,1901,10,20.83758705847695,45.91304442256702
1.100506190824311,2.223113723327545,1901,10,20.83758705847695,45.91304442256702
1.1227317615417052,2.2230914972969793,1901,10,20.83758705847695,45.91304442256702
1.1449571022323974,2.2230692714978035,1901,10,20.83758705847695,45.91304442256702
1.1671822135006193,2.2230470459293086,1901,10,20.83758705847695,45.91304442256702
1.1894070959042835,2.2230248205908403,1901,10,20.83758705847695,45.91304442256702
1.2116317499585474,2.2230025954817947,1901,10,20.83758705847695,45.91304442256702
1.2338561761391011,2.2229803706016136,1901,10,20.83758705847695,45.91304442256702
1.256080374885206,2.222958145949782,1901,10,20.83758705847695,45.91304442256702
1.2783043466024973,2.2229359215258238,1901,10,20.83758705847695,45.91304442256702
1.3005280916655697,2.2229136973293,1901,10,20.83758705847695,45.91304442256702
1.322751610420368,2.2228914733598053,1901,10,20.83758705847695,45.91304442256702
1.3449749031863896,2.2228692496169646,1901,10,20.83758705847695,45.91304442256702
1.3671979702587207,2.2228470261004323,1901,10,20.83758705847695,45.91304442256702
1.3894208119099138,2.2228248028098885,1901,10,20.83758705847695,45.91304442256702
1.4116434283917219,2.222802579745039,1901,10,20.83758705847695,45.91304442256702
1.4338658199366978,2.2227803569056097,1901,10,20.83758705847695,45.91304442256702
1.4560879867596725,2.2227581342913503,1901,10,20.83758705847695,45.91304442256702
1.47830992905912,2.222735911902028,1901,10,20.83758705847695,45.91304442256702
1.5005316470184122,2.222713689737427,1901,10,20.83758705847695,45.91304442256702
1.5227531408069839,2.2226914677973495,1901,10,20.83758705847695,45.91304442256702
1.5449744105814034,2.2226692460816126,1901,10,20.83758705847695,45.91304442256702
1.5671954564863648,2.2226470245900463,1901,10,20.83758705847695,45.91304442256702
1.5894162786555988,2.222624803322494,1901,10,20.83758705847695,45.91304442256702
1.6116368772127185,2.222602582278811,1901,10,20.83758705847695,45.91304442256702
1.6338572522719954,2.222580361458864,1901,10,20.83758705847695,45.91304442256702
1.6560774039390809,2.222558140862529,1901,10,20.83758705847695,45.91304442256702
1.6782973323116679,2.2225359204896917,1901,10,20.83758705847695,45.91304442256702
1.7005170374801037,2.222513700340247,1901,10,20.83758705847695,45.91304442256702
1.7227365195279547,2.2224914804140963,1901,10,20.83758705847695,45.91304442256702
1.7449557785325291,2.22246926071115,1901,10,20.83758705847695,45.91304442256702
1.7671748145653565,2.222447041231324,1901,10,20.83758705847695,45.91304442256702
1.7893936276926343,2.2224248219745415,1901,10,20.83758705847695,45.91304442256702
1.8116122179756384,2.2224026029407304,1901,10,20.83758705847695,45.91304442256702
1.8338305854710997,2.222380384129825,1901,10,20.83758705847695,45.91304442256702
1.856048730231555,2.222358165541764,1901,10,20.83758705847695,45.91304442256702
1.8782666523056701,2.2223359471764903,1901,10,20.83758705847695,45.91304442256702
1.9004843517385384,2.222313729033952,1901,10,20.83758705847695,45.91304442256702
1.922701828571952,2.2222915111140997,1901,10,20.83758705847695,45.91304442256702
1.94491908284466,2.2222692934168884,1901,10,20.83758705847695,45.91304442256702
1.9671361145926014,2.2222470759422768,1901,10,20.83758705847695,45.91304442256702
1.989352923849119,2.222224858690226,1901,10,20.83758705847695,45.91304442256702
2.0115695106451628,2.2222026416607,1901,10,20.83758705847695,45.91304442256702
2.0337858750094706,2.222180424853665,1901,10,20.83758705847695,45.91304442256702
2.056002016968742,2.2221582082690907,1901,10,20.83758705847695,45.91304442256702
2.078217936547791,2.222135991906948,1901,10,20.83758705847695,45.91304442256702
2.1004336337696943,2.2221137757672103,1901,10,20.83758705847695,45.91304442256702
2.1226491086559247,2.222091559849853,1901,10,20.83758705847695,45.91304442256702
2.1448643612264715,2.222069344154853,1901,10,20.83758705847695,45.91304442256702
2.1670793914999584,2.222047128682188,1901,10,20.83758705847695,45.91304442256702
2.1892941994937467,2.2220249134318393,1901,10,20.83758705847695,45.91304442256702
2.2115087852240327,2.222002698403787,1901,10,20.83758705847695,45.91304442256702
2.2337231487059377,2.221980483598015,1901,10,20.83758705847695,45.91304442256702
2.2559372899535894,2.221958269014506,1901,10,20.83758705847695,45.91304442256702
2.2781512089802005,2.221936054653246,1901,10,20.83758705847695,45.91304442256702
2.3003649057981366,2.2219138405142194,1901,10,20.83758705847695,45.91304442256702
2.3225783804189835,2.2218916265974142,1901,10,20.83758705847695,45.91304442256702
2.3447916328536063,2.2218694129028176,1901,10,20.83758705847695,45.91304442256702
2.3670046631122053,2.2218471994304183,1901,10,20.83758705847695,45.91304442256702
2.3892174712043657,2.2218249861802053,1901,10,20.83758705847695,45.91304442256702
2.411430057139108,2.221802773152168,1901,10,20.83758705847695,45.91304442256702
2.4336424209249268,2.221780560346297,1901,10,20.83758705847695,45.91304442256702
2.4558545625698356,2.2217583477625835,1901,10,20.83758705847695,45.91304442256702
2.4780664820814016,2.221736135401019,1901,10,20.83758705847695,45.91304442256702
2.500278179466782,2.2217139232615954,1901,10,20.83758705847695,45.91304442256702
2.522489654732751,2.221691711344305,1901,10,20.83758705847695,45.91304442256702
2.544700907885736,2.221669499649141,1901,10,20.83758705847695,45.91304442256702
2.5669119389318378,2.2216472881760962,1901,10,20.83758705847695,45.91304442256702
2.5891227478768606,2.2216250769251644,1901,10,20.83758705847695,45.91304442256702
2.6113333347263312,2.2216028658963394,1901,10,20.83758705847695,45.91304442256702
2.6335436994855232,2.2215806550896153,1901,10,20.83758705847695,45.91304442256702
2.6557538421594744,2.221558444504987,1901,10,20.83758705847695,45.91304442256702
2.6779637627530053,2.221536234142449,1901,10,20.83758705847695,45.91304442256702
2.700173461270739,2.221514024001996,1901,10,20.83758705847695,45.91304442256702
2.72238293771711,2.2214918140836235,1901,10,20.83758705847695,45.91304442256702
2.7445921920963845,2.2214696043873268,1901,10,20.83758705847695,45.91304442256702
2.7668012244126725,2.2214473949131013,1901,10,20.83758705847695,45.91304442256702
2.789010034669935,2.221425185660943,1901,10,20.83758705847695,45.91304442256702
2.8112186228720013,2.2214029766308476,1901,10,20.83758705847695,45.91304442256702
2.833426989022578,2.2213807678228115,1901,10,20.83758705847695,45.91304442256702
2.855635133125254,2.22135855923683,1901,10,20.83758705847695,45.91304442256702
2.877843055183515,2.2213363508729005,1901,10,20.83758705847695,45.91304442256702
2.9000507552007493,2.221314142731019,1901,10,20.83758705847695,45.91304442256702
2.9222582331802545,2.2212919348111813,1901,10,20.83758705847695,45.91304442256702
2.9444654891252466,2.221269727113385,1901,10,20.83758705847695,45.91304442256702
2.966672523038862,2.2212475196376262,1901,10,20.83758705847695,45.91304442256702
2.988879334924169,2.221225312383902,1901,10,20.83758705847695,45.91304442256702
3.011085924784172,2.221203105352209,1901,10,20.83758705847695,45.91304442256702
3.033292292621812,2.2211808985425447,1901,10,20.83758705847695,45.91304442256702
3.055498438439974,2.2211586919549053,1901,10,20.83758705847695,45.91304442256702
3.077704362241496,2.2211364855892883,1901,10,20.83758705847695,45.91304442256702
3.0999100640291637,2.2211142794456906,1901,10,20.83758705847695,45.91304442256702
3.1221155438057218,2.22109207352411,1901,10,20.83758705847695,45.91304442256702
3.144320801573873,2.221069867824543,1901,10,20.83758705847695,45.91304442256702
3.1665258373362857,2.221047662346987,1901,10,20.83758705847695,45.91304442256702
3.1887306510955904,2.2210254570914394,1901,10,20.83758705847695,45.91304442256702
3.210935242854389,2.2210032520578973,1901,10,20.83758705847695,45.91304442256702
3.23313961261525,2.2209810472463585,1901,10,20.83758705847695,45.91304442256702
3.2553437603807196,2.2209588426568203,1901,10,20.83758705847695,45.91304442256702
3.2775476861533153,2.22093663828928,1901,10,20.83758705847695,45.91304442256702
3.2997513899355337,2.220914434143735,1901,10,20.83758705847695,45.91304442256702
3.321954871729848,2.220892230220183,1901,10,20.83758705847695,45.91304442256702
3.3441581315387148,2.220870026518621,1901,10,20.83758705847695,45.91304442256702
3.3663611693645694,2.220847823039047,1901,10,20.83758705847695,45.91304442256702
3.388563985209833,2.2208256197814586,1901,10,20.83758705847695,45.91304442256702
3.410766579076909,2.220803416745853,1901,10,20.83758705847695,45.91304442256702
3.432968950968189,2.220781213932228,1901,10,20.83758705847695,45.91304442256702
3.4551711008860493,2.2207590113405815,1901,10,20.83758705847695,45.91304442256702
3.477373028832853,2.2207368089709103,1901,10,20.83758705847695,45.91304442256702
3.499574734810956,2.2207146068232126,1901,10,20.83758705847695,45.91304442256702
3.5217762188227018,2.2206924048974863,1901,10,20.83758705847695,45.91304442256702
3.5439774808704225,2.220670203193728,1901,10,20.83758705847695,45.91304442256702
3.566178520956444,2.220648001711937,1901,10,20.83758705847695,45.91304442256702
3.588379339083083,2.220625800452109,1901,10,20.83758705847695,45.91304442256702
3.610579935252648,2.2206035994142432,1901,10,20.83758705847695,45.91304442256702
3.6327803094674422,2.2205813985983367,1901,10,20.83758705847695,45.91304442256702
3.6549804617297603,2.2205591980043873,1901,10,20.83758705847695,45.91304442256702
3.6771803920418935,2.2205369976323928,1901,10,20.83758705847695,45.91304442256702
3.6993801004061257,2.2205147974823505,1901,10,20.83758705847695,45.91304442256702
3.7215795868247348,2.220492597554258,1901,10,20.83758705847695,45.91304442256702
3.743778851299998,2.220470397848114,1901,10,20.83758705847695,45.91304442256702
3.765977893834184,2.2204481983639153,1901,10,20.83758705847695,45.91304442256702
3.788176714429559,2.22042599910166,1901,10,20.83758705847695,45.91304442256702
3.810375313088387,2.2204038000613457,1901,10,20.83758705847695,45.91304442256702
3.832573689812925,2.2203816012429707,1901,10,20.83758705847695,45.91304442256702
3.854771844605432,2.2203594026465314,1901,10,20.83758705847695,45.91304442256702
3.8769697774681595,2.220337204272027,1901,10,20.83758705847695,45.91304442256702
3.899167488403359,2.220315006119454,1901,10,20.83758705847695,45.91304442256702
3.9213649774132775,2.2202928081888116,1901,10,20.83758705847695,45.91304442256702
3.9435622445001615,2.220270610480096,1901,10,20.83758705847695,45.91304442256702
3.9657592896662552,2.220248412993306,1901,10,20.83758705847695,45.91304442256702
3.9879561129138,2.220226215728439,1901,10,20.83758705847695,45.91304442256702
4.010152714245036,2.2202040186854926,1901,10,20.83758705847695,45.91304442256702
4.0323490936622015,2.2201818218644647,1901,10,20.83758705847695,45.91304442256702
4.054545251167533,2.220159625265353,1901,10,20.83758705847695,45.91304442256702
4.076741186763266,2.2201374288881555,1901,10,20.83758705847695,45.91304442256702
4.098936900451635,2.2201152327328697,1901,10,20.83758705847695,45.91304442256702
4.121132392234872,2.220093036799494,1901,10,20.83758705847695,45.91304442256702
4.143327662115209,2.220070841088025,1901,10,20.83758705847695,45.91304442256702
4.165522710094876,2.2200486455984616,1901,10,20.83758705847695,45.91304442256702
4.187717536176106,2.2200264503308005,1901,10,20.83758705847695,45.91304442256702
4.209912140361124,2.2200042552850405,1901,10,20.83758705847695,45.91304442256702
4.232106522652159,2.2199820604611786,1901,10,20.83758705847695,45.91304442256702
4.254300683051439,2.2199598658592135,1901,10,20.83758705847695,45.91304442256702
4.276494621561191,2.219937671479142,1901,10,20.83758705847695,45.91304442256702
4.298688338183639,2.219915477320962,1901,10,20.83758705847695,45.91304442256702
4.32088183292101,2.2198932833846716,1901,10,20.83758705847695,45.91304442256702
4.343075105775528,2.2198710896702685,1901,10,20.83758705847695,45.91304442256702
4.365268156749418,2.2198488961777505,1901,10,20.83758705847695,45.91304442256702
4.3874609858449025,2.2198267029071155,1901,10,20.83758705847695,45.91304442256702
4.409653593064206,2.2198045098583608,1901,10,20.83758705847695,45.91304442256702
4.431845978409551,2.219782317031485,1901,10,20.83758705847695,45.91304442256702
4.454038141883158,2.2197601244264846,1901,10,20.83758705847695,45.91304442256702
4.476230083487253,2.219737932043359,1901,10,20.83758705847695,45.91304442256702
4.498421803224056,2.2197157398821044,1901,10,20.83758705847695,45.91304442256702
4.520613301095787,2.2196935479427196,1901,10,20.83758705847695,45.91304442256702
4.542804577104671,2.2196713562252017,1901,10,20.83758705847695,45.91304442256702
4.564995631252923,2.2196491647295495,1901,10,20.83758705847695,45.91304442256702
4.58718646354277,2.21962697345576,1901,10,20.83758705847695,45.91304442256702
4.609377073976431,2.2196047824038305,1901,10,20.83758705847695,45.91304442256702
4.631567462556122,2.2195825915737597,1901,10,20.83758705847695,45.91304442256702
4.653757629284068,2.219560400965545,1901,10,20.83758705847695,45.91304442256702
4.675947574162486,2.2195382105791848,1901,10,20.83758705847695,45.91304442256702
4.6981372971935995,2.2195160204146758,1901,10,20.83758705847695,45.91304442256702
4.720326798379624,2.2194938304720164,1901,10,20.83758705847695,45.91304442256702
4.74251607772278,2.2194716407512045,1901,10,20.83758705847695,45.91304442256702
4.764705135225288,2.2194494512522374,1901,10,20.83758705847695,45.91304442256702
4.786893970889367,2.219427261975113,1901,10,20.83758705847695,45.91304442256702
4.8090825847172365,2.2194050729198294,1901,10,20.83758705847695,45.91304442256702
4.831270976711113,2.2193828840863845,1901,10,20.83758705847695,45.91304442256702
4.853459146873218,2.2193606954747755,1901,10,20.83758705847695,45.91304442256702
4.8756470952057684,2.2193385070850002,1901,10,20.83758705847695,45.91304442256702
4.897834821710984,2.2193163189170573,1901,10,20.83758705847695,45.91304442256702
4.9200223263910825,2.2192941309709435,1901,10,20.83758705847695,45.91304442256702
4.942209609248283,2.219271943246657,1901,10,20.83758705847695,45.91304442256702
4.964396670284803,2.2192497557441957,1901,10,20.83758705847695,45.91304442256702
4.9865835095028626,2.219227568463557,1901,10,20.83758705847695,45.91304442256702
5.008770126904677,2.2192053814047394,1901,10,20.83758705847695,45.91304442256702
5.030956522492469,2.2191831945677403,1901,10,20.83758705847695,45.91304442256702
5.053142696268452,2.219161007952557,1901,10,20.83758705847695,45.91304442256702
5.075328648234847,2.219138821559188,1901,10,20.83758705847695,45.91304442256702
5.09751437839387,2.2191166353876306,1901,10,20.83758705847695,45.91304442256702
5.119699886747742,2.219094449437883,1901,10,20.83758705847695,45.91304442256702
5.141885173298677,2.2190722637099425,1901,10,20.83758705847695,45.91304442256702
5.164070238048897,2.219050078203807,1901,10,20.83758705847695,45.91304442256702
5.186255081000615,2.219027892919475,1901,10,20.83758705847695,45.91304442256702
5.208439702156053,2.2190057078569434,1901,10,20.83758705847695,45.91304442256702
5.230624101517426,2.21898352301621,1901,10,20.83758705847695,45.91304442256702
5.2528082790869535,2.218961338397273,1901,10,20.83758705847695,45.91304442256702
5.274992234866853,2.21893915400013,1901,10,20.83758705847695,45.91304442256702
5.29717596885934,2.2189169698247793,1901,10,20.83758705847695,45.91304442256702
5.319359481066635,2.2188947858712176,1901,10,20.83758705847695,45.91304442256702
5.341542771490952,2.218872602139444,1901,10,20.83758705847695,45.91304442256702
5.36372584013451,2.218850418629455,1901,10,20.83758705847695,45.91304442256702
5.385908686999528,2.218828235341249,1901,10,20.83758705847695,45.91304442256702
