Vout,Iout,Irradiance,Temperature,MaxVoltage,MaxPower
0.004886053018720974,0.97722,801,35,22.658403747985048,21.629272368867106
0.014658068708418138,0.97722,801,35,22.658403747985048,21.629272368867106
0.02442988573548738,0.9772150162249813,801,35,22.658403747985048,21.629272368867106
0.034201468608916014,0.9772052442092916,801,35,22.658403747985048,21.629272368867106
0.04397280572962536,0.9771954723927628,801,35,22.658403747985048,21.629272368867106
0.05374390849159763,0.9771857008108666,801,35,22.658403747985048,21.629272368867106
0.06351478741254397,0.9771759294747231,801,35,22.658403747985048,21.629272368867106
0.07328545220110973,0.9771661583729383,801,35,22.658403747985048,21.629272368867106
0.08305591181901699,0.9771563874949944,801,35,22.658403747985048,21.629272368867106
0.09282617453853395,0.977146616831183,801,35,22.658403747985048,21.629272368867106
0.10259624799552264,0.9771368463725422,801,35,22.658403747985048,21.629272368867106
0.11236613923840498,0.9771270761107997,801,35,22.658403747985048,21.629272368867106
0.12213585477336138,0.9771173060383198,801,35,22.658403747985048,21.629272368867106
0.13190540060605158,0.977107536148054,801,35,22.658403747985048,21.629272368867106
0.14167478228012562,0.977097766433496,801,35,22.658403747985048,21.629272368867106
0.15144400491277146,0.9770879968886403,801,35,22.658403747985048,21.629272368867106
0.16121307322752776,0.9770782275079432,801,35,22.658403747985048,21.629272368867106
0.1709819915845717,0.9770684582862875,801,35,22.658403747985048,21.629272368867106
0.18075076400867676,0.9770586892189497,801,35,22.658403747985048,21.629272368867106
0.19051939421501926,0.9770489203015695,801,35,22.658403747985048,21.629272368867106
0.20028788563299893,0.9770391515301223,801,35,22.658403747985048,21.629272368867106
0.2100562414282273,0.9770293829008929,801,35,22.658403747985048,21.629272368867106
0.2198244645228239,0.9770196144104518,801,35,22.658403747985048,21.629272368867106
0.22959255761415082,0.9770098460556335,801,35,22.658403747985048,21.629272368867106
0.23936052319210618,0.9770000778335157,801,35,22.658403747985048,21.629272368867106
0.2491283635550863,0.9769903097414012,801,35,22.658403747985048,21.629272368867106
0.25889608082472065,0.9769805417768,801,35,22.658403747985048,21.629272368867106
0.26866367695947196,0.9769707739374139,801,35,22.658403747985048,21.629272368867106
0.27843115376719124,0.976961006221121,801,35,22.658403747985048,21.629272368867106
0.2881985129167055,0.9769512386259631,801,35,22.658403747985048,21.629272368867106
0.2979657559485147,0.9769414711501322,801,35,22.658403747985048,21.629272368867106
0.30773288428466544,0.9769317037919594,801,35,22.658403747985048,21.629272368867106
0.3174998992378649,0.9769219365499043,801,35,22.658403747985048,21.629272368867106
0.3272668020198937,0.9769121694225449,801,35,22.658403747985048,21.629272368867106
0.33703359374937114,0.9769024024085684,801,35,22.658403747985048,21.629272368867106
0.34680027545892345,0.9768926355067632,801,35,22.658403747985048,21.629272368867106
0.35656684810179984,0.9768828687160104,801,35,22.658403747985048,21.629272368867106
0.3663333125579803,0.9768731020352776,801,35,22.658403747985048,21.629272368867106
0.3760996696398129,0.9768633354636113,801,35,22.658403747985048,21.629272368867106
0.38586592009721743,0.9768535690001318,801,35,22.658403747985048,21.629272368867106
0.3956320646224888,0.9768438026440266,801,35,22.658403747985048,21.629272368867106
0.40539810385473074,0.9768340363945459,801,35,22.658403747985048,21.629272368867106
0.4151640383839482,0.9768242702509973,801,35,22.658403747985048,21.629272368867106
0.42492986875482586,0.9768145042127416,801,35,22.658403747985048,21.629272368867106
0.4346955954702141,0.976804738279189,801,35,22.658403747985048,21.629272368867106
0.44446121899434843,0.9767949724497947,801,35,22.658403747985048,21.629272368867106
0.45422673975582056,0.9767852067240559,801,35,22.658403747985048,21.629272368867106
0.46399215815032074,0.9767754411015084,801,35,22.658403747985048,21.629272368867106
0.4737574745431692,0.9767656755817234,801,35,22.658403747985048,21.629272368867106
0.483522689271653,0.9767559101643055,801,35,22.658403747985048,21.629272368867106
0.49328780264718286,0.9767461448488892,801,35,22.658403747985048,21.629272368867106
0.5030528149572843,0.9767363796351373,801,35,22.658403747985048,21.629272368867106
0.512817726467435,0.9767266145227383,801,35,22.658403747985048,21.629272368867106
0.5225825374227615,0.9767168495114047,801,35,22.658403747985048,21.629272368867106
0.5323472480496055,0.9767070846008711,801,35,22.658403747985048,21.629272368867106
0.5421118585569681,0.9766973197908922,801,35,22.658403747985048,21.629272368867106
0.5518763691378448,0.9766875550812419,801,35,22.658403747985048,21.629272368867106
0.561640779970457,0.976677790471711,801,35,22.658403747985048,21.629272368867106
0.5714050912193883,0.9766680259621067,801,35,22.658403747985048,21.629272368867106
0.5811693030366344,0.9766582615522504,801,35,22.658403747985048,21.629272368867106
0.5909334155625706,0.976648497241978,801,35,22.658403747985048,21.629272368867106
0.6006974289268473,0.9766387330311372,801,35,22.658403747985048,21.629272368867106
0.6104613432492142,0.9766289689195877,801,35,22.658403747985048,21.629272368867106
0.6202251586402825,0.9766192049071998,801,35,22.658403747985048,21.629272368867106
0.6299888752022277,0.9766094409938538,801,35,22.658403747985048,21.629272368867106
0.6397524930294387,0.9765996771794392,801,35,22.658403747985048,21.629272368867106
0.6495160122091173,0.9765899134638536,801,35,22.658403747985048,21.629272368867106
0.659279432821831,0.9765801498470028,801,35,22.658403747985048,21.629272368867106
0.6690427549420233,0.9765703863287996,801,35,22.658403747985048,21.629272368867106
0.6788059786384849,0.9765606229091631,801,35,22.658403747985048,21.629272368867106
0.6885691039747884,0.9765508595880193,801,35,22.658403747985048,21.629272368867106
0.6983321310096908,0.9765410963652992,801,35,22.658403747985048,21.629272368867106
0.7080950597975031,0.9765313332409392,801,35,22.658403747985048,21.629272368867106
0.7178578903884323,0.9765215702148806,801,35,22.658403747985048,21.629272368867106
0.7276206228288975,0.9765118072870691,801,35,22.658403747985048,21.629272368867106
0.7373832571618214,0.9765020444574545,801,35,22.658403747985048,21.629272368867106
0.7471457934268995,0.9764922817259903,801,35,22.658403747985048,21.629272368867106
0.7569082316608479,0.9764825190926337,801,35,22.658403747985048,21.629272368867106
0.7666705718976328,0.9764727565573449,801,35,22.658403747985048,21.629272368867106
0.7764328141686819,0.9764629941200872,801,35,22.658403747985048,21.629272368867106
0.7861949585030803,0.9764532317808267,801,35,22.658403747985048,21.629272368867106
0.7959570049277498,0.9764434695395319,801,35,22.658403747985048,21.629272368867106
0.805718953467616,0.9764337073961737,801,35,22.658403747985048,21.629272368867106
0.8154808041457623,0.9764239453507253,801,35,22.658403747985048,21.629272368867106
0.8252425569835703,0.9764141834031617,801,35,22.658403747985048,21.629272368867106
0.8350042120008518,0.9764044215534596,801,35,22.658403747985048,21.629272368867106
0.8447657692159697,0.9763946598015981,801,35,22.658403747985048,21.629272368867106
0.8545272286459483,0.976384898147557,801,35,22.658403747985048,21.629272368867106
0.8642885903065781,0.976375136591318,801,35,22.658403747985048,21.629272368867106
0.8740498542125091,0.9763653751328643,801,35,22.658403747985048,21.629272368867106
0.8838110203773392,0.9763556137721797,801,35,22.658403747985048,21.629272368867106
0.8935720888136948,0.97634585250925,801,35,22.658403747985048,21.629272368867106
0.9033330595333066,0.9763360913440613,801,35,22.658403747985048,21.629272368867106
0.9130939325470773,0.976326330276601,801,35,22.658403747985048,21.629272368867106
0.9228547078651459,0.9763165693068575,801,35,22.658403747985048,21.629272368867106
0.9326153854969462,0.9763068084348199,801,35,22.658403747985048,21.629272368867106
0.9423759654512617,0.9762970476604779,801,35,22.658403747985048,21.629272368867106
0.9521364477362746,0.9762872869838222,801,35,22.658403747985048,21.629272368867106
0.9618968323596128,0.976277526404844,801,35,22.658403747985048,21.629272368867106
0.9716571193283925,0.976267765923535,801,35,22.658403747985048,21.629272368867106
0.9814173086492569,0.9762580055398877,801,35,22.658403747985048,21.629272368867106
0.9911774003284137,0.976248245253895,801,35,22.658403747985048,21.629272368867106
1.0009373943716677,0.9762384850655502,801,35,22.658403747985048,21.629272368867106
1.0106972907844527,0.976228724974847,801,35,22.658403747985048,21.629272368867106
1.020457089571858,0.9762189649817798,801,35,22.658403747985048,21.629272368867106
1.0302167907386584,0.976209205086343,801,35,22.658403747985048,21.629272368867106
1.0399763942893347,0.9761994452885316,801,35,22.658403747985048,21.629272368867106
1.0497359002280988,0.9761896855883408,801,35,22.658403747985048,21.629272368867106
1.0594953085589134,0.9761799259857661,801,35,22.658403747985048,21.629272368867106
1.0692546192855117,0.9761701664808033,801,35,22.658403747985048,21.629272368867106
1.0790138324114138,0.9761604070734484,801,35,22.658403747985048,21.629272368867106
1.0887729479399448,0.9761506477636979,801,35,22.658403747985048,21.629272368867106
1.098531965874249,0.9761408885515479,801,35,22.658403747985048,21.629272368867106
1.1082908862173027,0.9761311294369952,801,35,22.658403747985048,21.629272368867106
1.1180497089719303,0.9761213704200369,801,35,22.658403747985048,21.629272368867106
1.1278084341408123,0.9761116115006697,801,35,22.658403747985048,21.629272368867106
1.1375670617264981,0.976101852678891,801,35,22.658403747985048,21.629272368867106
1.1473255917314167,0.976092093954698,801,35,22.658403747985048,21.629272368867106
1.1570840241578848,0.9760823353280882,801,35,22.658403747985048,21.629272368867106
1.1668423590081158,0.9760725767990591,801,35,22.658403747985048,21.629272368867106
1.1766005962842283,0.9760628183676086,801,35,22.658403747985048,21.629272368867106
1.1863587359882526,0.9760530600337342,801,35,22.658403747985048,21.629272368867106
1.1961167781221373,0.9760433017974339,801,35,22.658403747985048,21.629272368867106
1.2058747226877577,0.9760335436587058,801,35,22.658403747985048,21.629272368867106
1.215632569686918,0.9760237856175477,801,35,22.658403747985048,21.629272368867106
1.2253903191213598,0.9760140276739578,801,35,22.658403747985048,21.629272368867106
1.235147970992765,0.9760042698279345,801,35,22.658403747985048,21.629272368867106
1.244905525302762,0.9759945120794759,801,35,22.658403747985048,21.629272368867106
1.2546629820529283,0.9759847544285802,801,35,22.658403747985048,21.629272368867106
1.2644203412447947,0.975974996875246,801,35,22.658403747985048,21.629272368867106
1.2741776028798504,0.9759652394194716,801,35,22.658403747985048,21.629272368867106
1.283934766959544,0.9759554820612555,801,35,22.658403747985048,21.629272368867106
1.2936918334852883,0.9759457248005962,801,35,22.658403747985048,21.629272368867106
1.3034488024584618,0.9759359676374922,801,35,22.658403747985048,21.629272368867106
1.3132056738804128,0.9759262105719422,801,35,22.658403747985048,21.629272368867106
1.3229624477524604,0.9759164536039447,801,35,22.658403747985048,21.629272368867106
1.3327191240758969,0.9759066967334985,801,35,22.658403747985048,21.629272368867106
1.342475702851991,0.9758969399606021,801,35,22.658403747985048,21.629272368867106
1.3522321840819882,0.9758871832852544,801,35,22.658403747985048,21.629272368867106
1.3619885677671129,0.975877426707454,801,35,22.658403747985048,21.629272368867106
1.3717448539085715,0.9758676702271997,801,35,22.658403747985048,21.629272368867106
1.3815010425075511,0.9758579138444902,801,35,22.658403747985048,21.629272368867106
1.391257133565224,0.9758481575593244,801,35,22.658403747985048,21.629272368867106
1.4010131270827468,0.9758384013717011,801,35,22.658403747985048,21.629272368867106
1.4107690230612613,0.975828645281619,801,35,22.658403747985048,21.629272368867106
1.420524821501897,0.9758188892890771,801,35,22.658403747985048,21.629272368867106
1.4302805224057717,0.9758091333940742,801,35,22.658403747985048,21.629272368867106
1.440036125773993,0.9757993775966092,801,35,22.658403747985048,21.629272368867106
1.4497916316076562,0.9757896218966808,801,35,22.658403747985048,21.629272368867106
1.4595470399078494,0.9757798662942883,801,35,22.658403747985048,21.629272368867106
1.4693023506756506,0.9757701107894301,801,35,22.658403747985048,21.629272368867106
1.4790575639121304,0.9757603553821055,801,35,22.658403747985048,21.629272368867106
1.4888126796183525,0.9757506000723133,801,35,22.658403747985048,21.629272368867106
1.4985676977953732,0.9757408448600523,801,35,22.658403747985048,21.629272368867106
1.5083226184442426,0.9757310897453216,801,35,22.658403747985048,21.629272368867106
1.5180774415660052,0.9757213347281202,801,35,22.658403747985048,21.629272368867106
1.5278321671617,0.9757115798084468,801,35,22.658403747985048,21.629272368867106
1.5375867952323607,0.9757018249863005,801,35,22.658403747985048,21.629272368867106
1.5473413257790176,0.9756920702616803,801,35,22.658403747985048,21.629272368867106
1.5570957588026957,0.9756823156345851,801,35,22.658403747985048,21.629272368867106
1.5668500943044161,0.9756725611050139,801,35,22.658403747985048,21.629272368867106
1.5766043322851975,0.9756628066729657,801,35,22.658403747985048,21.629272368867106
1.5863584727460536,0.9756530523384395,801,35,22.658403747985048,21.629272368867106
1.5961125156879963,0.9756432981014341,801,35,22.658403747985048,21.629272368867106
1.6058664611120346,0.9756335439619487,801,35,22.658403747985048,21.629272368867106
1.6156203090191739,0.9756237899199822,801,35,22.658403747985048,21.629272368867106
1.6253740594104185,0.9756140359755335,801,35,22.658403747985048,21.629272368867106
1.6351277122867696,0.9756042821286018,801,35,22.658403747985048,21.629272368867106
1.6448812676492266,0.9755945283791859,801,35,22.658403747985048,21.629272368867106
1.654634725498787,0.975584774727285,801,35,22.658403747985048,21.629272368867106
1.664388085836447,0.975575021172898,801,35,22.658403747985048,21.629272368867106
1.6741413486632,0.9755652677160237,801,35,22.658403747985048,21.629272368867106
1.6838945139800392,0.9755555143566614,801,35,22.658403747985048,21.629272368867106
1.6936475817879553,0.9755457610948101,801,35,22.658403747985048,21.629272368867106
1.703400552087939,0.9755360079304685,801,35,22.658403747985048,21.629272368867106
1.7131534248809785,0.9755262548636359,801,35,22.658403747985048,21.629272368867106
1.7229062001680626,0.9755165018943113,801,35,22.658403747985048,21.629272368867106
1.7326588779501768,0.9755067490224935,801,35,22.658403747985048,21.629272368867106
1.7424114582283077,0.9754969962481818,801,35,22.658403747985048,21.629272368867106
1.7521639410034398,0.975487243571375,801,35,22.658403747985048,21.629272368867106
1.7619163262765571,0.975477490992072,801,35,22.658403747985048,21.629272368867106
1.7716686140486442,0.9754677385102721,801,35,22.658403747985048,21.629272368867106
1.7814208043206827,0.9754579861259743,801,35,22.658403747985048,21.629272368867106
1.7911728970936556,0.9754482338391774,801,35,22.658403747985048,21.629272368867106
1.800924892368544,0.9754384816498807,801,35,22.658403747985048,21.629272368867106
1.810676790146328,0.9754287295580829,801,35,22.658403747985048,21.629272368867106
1.8204285904279893,0.9754189775637833,801,35,22.658403747985048,21.629272368867106
1.830180293214508,0.9754092256669807,801,35,22.658403747985048,21.629272368867106
1.8399318985068631,0.9753994738676742,801,35,22.658403747985048,21.629272368867106
1.8496834063060348,0.975389722165863,801,35,22.658403747985048,21.629272368867106
1.8594348166130006,0.9753799705615457,801,35,22.658403747985048,21.629272368867106
1.8691861294287406,0.9753702190547218,801,35,22.658403747985048,21.629272368867106
1.8789373447542324,0.97536046764539,801,35,22.658403747985048,21.629272368867106
1.888688462590454,0.9753507163335493,801,35,22.658403747985048,21.629272368867106
1.8984394829383833,0.975340965119199,801,35,22.658403747985048,21.629272368867106
1.9081904057989973,0.9753312140023379,801,35,22.658403747985048,21.629272368867106
1.9179412311732735,0.9753214629829651,801,35,22.658403747985048,21.629272368867106
1.9276919590621893,0.9753117120610796,801,35,22.658403747985048,21.629272368867106
1.937442589466721,0.9753019612366804,801,35,22.658403747985048,21.629272368867106
1.9471931223878454,0.9752922105097666,801,35,22.658403747985048,21.629272368867106
1.9569435578265393,0.9752824598803371,801,35,22.658403747985048,21.629272368867106
1.9666938957837787,0.975272709348391,801,35,22.658403747985048,21.629272368867106
1.97644413626054,0.9752629589139274,801,35,22.658403747985048,21.629272368867106
1.986194279257799,0.9752532085769453,801,35,22.658403747985048,21.629272368867106
1.995944324776532,0.9752434583374435,801,35,22.658403747985048,21.629272368867106
2.0056942728177147,0.9752337081954213,801,35,22.658403747985048,21.629272368867106
2.015444123382322,0.9752239581508776,801,35,22.658403747985048,21.629272368867106
2.0251938764713313,0.9752142082038114,801,35,22.658403747985048,21.629272368867106
2.0349435320857165,0.9752044583542219,801,35,22.658403747985048,21.629272368867106
2.0446930902264535,0.9751947086021078,801,35,22.658403747985048,21.629272368867106
2.054442550894518,0.9751849589474684,801,35,22.658403747985048,21.629272368867106
2.0641919140908853,0.9751752093903027,801,35,22.658403747985048,21.629272368867106
2.0739411798165293,0.9751654599306095,801,35,22.658403747985048,21.629272368867106
2.083690348072427,0.9751557105683881,801,35,22.658403747985048,21.629272368867106
2.093439418859553,0.9751459613036375,801,35,22.658403747985048,21.629272368867106
2.103188392178881,0.9751362121363565,801,35,22.658403747985048,21.629272368867106
2.1129372680313883,0.9751264630665443,801,35,22.658403747985048,21.629272368867106
2.122686046418048,0.9751167140941999,801,35,22.658403747985048,21.629272368867106
2.132434727339835,0.9751069652193223,801,35,22.658403747985048,21.629272368867106
2.1421833107977255,0.9750972164419105,801,35,22.658403747985048,21.629272368867106
2.1519317967926925,0.9750874677619636,801,35,22.658403747985048,21.629272368867106
2.1616801853257117,0.9750777191794806,801,35,22.658403747985048,21.629272368867106
2.1714284763977574,0.9750679706944605,801,35,22.658403747985048,21.629272368867106
2.181176670009805,0.9750582223069023,801,35,22.658403747985048,21.629272368867106
2.1909247661628295,0.9750484740168052,801,35,22.658403747985048,21.629272368867106
2.2006727648578046,0.975038725824168,801,35,22.658403747985048,21.629272368867106
2.2104206660957053,0.9750289777289898,801,35,22.658403747985048,21.629272368867106
2.220168469877505,0.9750192297312696,801,35,22.658403747985048,21.629272368867106
2.22991617620418,0.9750094818310066,801,35,22.658403747985048,21.629272368867106
2.2396637850767043,0.9749997340281995,801,35,22.658403747985048,21.629272368867106
2.2494112964960515,0.9749899863228476,801,35,22.658403747985048,21.629272368867106
2.2591587104631965,0.9749802387149499,801,35,22.658403747985048,21.629272368867106
2.2689060269791144,0.9749704912045053,801,35,22.658403747985048,21.629272368867106
2.278653246044778,0.9749607437915129,801,35,22.658403747985048,21.629272368867106
2.2884003676611644,0.9749509964759717,801,35,22.658403747985048,21.629272368867106
2.2981473918292457,0.9749412492578808,801,35,22.658403747985048,21.629272368867106
2.3078943185499967,0.9749315021372391,801,35,22.658403747985048,21.629272368867106
2.317641147824392,0.9749217551140458,801,35,22.658403747985048,21.629272368867106
