Vout,Iout,Irradiance,Temperature,MaxVoltage,MaxPower
0.001775882924202652,0.35518,301,15,21.182394714192892,7.075009867485087
0.005327615934851881,0.35518,301,15,21.182394714192892,7.075009867485087
0.00887927673965986,0.3551781885990758,301,15,21.182394714192892,7.075009867485087
0.012430852439076963,0.35517463686606515,301,15,21.182394714192892,7.075009867485087
0.01598233881730658,0.3551710852054415,301,15,21.182394714192892,7.075009867485087
0.019533740015601035,0.35516753363009723,301,15,21.182394714192892,7.075009867485087
0.023085059856723527,0.3551639821440742,301,15,21.182394714192892,7.075009867485087
0.026636301869374508,0.35516043074323106,301,15,21.182394714192892,7.075009867485087
0.030187469310777978,0.3551568794237451,301,15,21.182394714192892,7.075009867485087
0.03373856518756932,0.35515332818208756,301,15,21.182394714192892,7.075009867485087
0.03728959227507596,0.3551497770150013,301,15,21.182394714192892,7.075009867485087
0.04084055313511459,0.3551462259194796,301,15,21.182394714192892,7.075009867485087
0.044391450132419,0.3551426748927472,301,15,21.182394714192892,7.075009867485087
0.04794228544980394,0.3551391239322423,301,15,21.182394714192892,7.075009867485087
0.05149306110216228,0.35513557303560006,301,15,21.182394714192892,7.075009867485087
0.055043778949385176,0.3551320222006378,301,15,21.182394714192892,7.075009867485087
0.05859444070828813,0.35512847142534054,301,15,21.182394714192892,7.075009867485087
0.062145047963619436,0.3551249207078484,301,15,21.182394714192892,7.075009867485087
0.06569560217822172,0.35512137004644456,301,15,21.182394714192892,7.075009867485087
0.06924610470241149,0.3551178194395443,301,15,21.182394714192892,7.075009867485087
0.07279655678263704,0.35511426888568476,301,15,21.182394714192892,7.075009867485087
0.0763469595694703,0.35511071838351566,301,15,21.182394714192892,7.075009867485087
0.07989731412498369,0.3551071679317905,301,15,21.182394714192892,7.075009867485087
0.08344762142955942,0.3551036175293587,301,15,21.182394714192892,7.075009867485087
0.08699788238817485,0.35510006717515824,301,15,21.182394714192892,7.075009867485087
0.09054809783620427,0.3550965168682087,301,15,21.182394714192892,7.075009867485087
0.09409826854477421,0.3550929666076051,301,15,21.182394714192892,7.075009867485087
0.09764839522570685,0.3550894163925121,301,15,21.182394714192892,7.075009867485087
0.10119847853608294,0.35508586622215854,301,15,21.182394714192892,7.075009867485087
0.10474851908245376,0.35508231609583263,301,15,21.182394714192892,7.075009867485087
0.10829851742472875,0.3550787660128773,301,15,21.182394714192892,7.075009867485087
0.11184847407976448,0.35507521597268593,301,15,21.182394714192892,7.075009867485087
0.11539838952467699,0.3550716659746987,301,15,21.182394714192892,7.075009867485087
0.11894826419989953,0.35506811601839866,301,15,21.182394714192892,7.075009867485087
0.12249809851200512,0.3550645661033087,301,15,21.182394714192892,7.075009867485087
0.12604789283631157,0.3550610162289885,301,15,21.182394714192892,7.075009867485087
0.12959764751928657,0.3550574663950314,301,15,21.182394714192892,7.075009867485087
0.1331473628807673,0.35505391660106206,301,15,21.182394714192892,7.075009867485087
0.13669703921600942,0.3550503668467341,301,15,21.182394714192892,7.075009867485087
0.14024667679757855,0.3550468171317276,301,15,21.182394714192892,7.075009867485087
0.1437962758770958,0.3550432674557473,301,15,21.182394714192892,7.075009867485087
0.1473458366868497,0.35503971781852073,301,15,21.182394714192892,7.075009867485087
0.15089535944128318,0.35503616821979617,301,15,21.182394714192892,7.075009867485087
0.15444484433836703,0.3550326186593414,301,15,21.182394714192892,7.075009867485087
0.15799429156086717,0.3550290691369419,301,15,21.182394714192892,7.075009867485087
0.16154370127751447,0.35502551965239976,301,15,21.182394714192892,7.075009867485087
0.1650930736440846,0.3550219702055322,301,15,21.182394714192892,7.075009867485087
0.16864240880439507,0.3550184207961705,301,15,21.182394714192892,7.075009867485087
0.17219170689122493,0.3550148714241589,301,15,21.182394714192892,7.075009867485087
0.1757409680271645,0.35501132208935354,301,15,21.182394714192892,7.075009867485087
0.17929019232539897,0.3550077727916216,301,15,21.182394714192892,7.075009867485087
0.1828393798904322,0.3550042235308406,301,15,21.182394714192892,7.075009867485087
0.1863885308187547,0.3550006743068973,301,15,21.182394714192892,7.075009867485087
0.18993764519946013,0.35499712511968723,301,15,21.182394714192892,7.075009867485087
0.19348672311481435,0.3549935759691138,301,15,21.182394714192892,7.075009867485087
0.19703576464078096,0.354990026855088,301,15,21.182394714192892,7.075009867485087
0.20058476984750595,0.35498647777752756,301,15,21.182394714192892,7.075009867485087
0.20413373879976565,0.3549829287363565,301,15,21.182394714192892,7.075009867485087
0.2076826715573795,0.35497937973150473,301,15,21.182394714192892,7.075009867485087
0.21123156817559177,0.35497583076290734,301,15,21.182394714192892,7.075009867485087
0.21478042870542335,0.35497228183050467,301,15,21.182394714192892,7.075009867485087
0.2183292531939969,0.3549687329342413,301,15,21.182394714192892,7.075009867485087
0.22187804168483655,0.3549651840740664,301,15,21.182394714192892,7.075009867485087
0.22542679421814488,0.3549616352499327,301,15,21.182394714192892,7.075009867485087
0.22897551083105872,0.3549580864617968,301,15,21.182394714192892,7.075009867485087
0.2325241915578846,0.3549545377096183,301,15,21.182394714192892,7.075009867485087
0.23607283643031685,0.3549509889933603,301,15,21.182394714192892,7.075009867485087
0.2396214454776385,0.35494744031298836,301,15,21.182394714192892,7.075009867485087
0.2431700187269067,0.3549438916684708,301,15,21.182394714192892,7.075009867485087
0.2467185562031241,0.35494034305977834,301,15,21.182394714192892,7.075009867485087
0.2502670579293969,0.3549367944868839,301,15,21.182394714192892,7.075009867485087
0.2538155239270808,0.35493324594976255,301,15,21.182394714192892,7.075009867485087
0.2573639542159156,0.35492969744839115,301,15,21.182394714192892,7.075009867485087
0.26091234881414954,0.3549261489827483,301,15,21.182394714192892,7.075009867485087
0.2644607077386542,0.3549226005528143,301,15,21.182394714192892,7.075009867485087
0.26800903100503015,0.35491905215857095,301,15,21.182394714192892,7.075009867485087
0.27155731862770516,0.3549155038000013,301,15,21.182394714192892,7.075009867485087
0.27510557062002405,0.35491195547708976,301,15,21.182394714192892,7.075009867485087
0.278653786994332,0.3549084071898219,301,15,21.182394714192892,7.075009867485087
0.2822019677620519,0.3549048589381844,301,15,21.182394714192892,7.075009867485087
0.2857501129337549,0.35490131072216496,301,15,21.182394714192892,7.075009867485087
0.289298222519226,0.35489776254175204,301,15,21.182394714192892,7.075009867485087
0.2928462965275247,0.3548942143969352,301,15,21.182394714192892,7.075009867485087
0.2963943349670409,0.3548906662877045,301,15,21.182394714192892,7.075009867485087
0.29994233784554586,0.35488711821405106,301,15,21.182394714192892,7.075009867485087
0.3034903051702405,0.35488357017596633,301,15,21.182394714192892,7.075009867485087
0.30703823694779886,0.3548800221734426,301,15,21.182394714192892,7.075009867485087
0.31058613318440864,0.3548764742064727,301,15,21.182394714192892,7.075009867485087
0.31413399388580904,0.35487292627504996,301,15,21.182394714192892,7.075009867485087
0.31768181905732473,0.35486937837916815,301,15,21.182394714192892,7.075009867485087
0.32122960870389794,0.35486583051882153,301,15,21.182394714192892,7.075009867485087
0.324777362830118,0.3548622826940048,301,15,21.182394714192892,7.075009867485087
0.3283250814402484,0.35485873490471304,301,15,21.182394714192892,7.075009867485087
0.33187276453825204,0.3548551871509416,301,15,21.182394714192892,7.075009867485087
0.3354204121278139,0.35485163943268627,301,15,21.182394714192892,7.075009867485087
0.3389680242123628,0.35484809174994303,301,15,21.182394714192892,7.075009867485087
0.34251560079509114,0.3548445441027082,301,15,21.182394714192892,7.075009867485087
0.3460631418789728,0.35484099649097844,301,15,21.182394714192892,7.075009867485087
0.3496106474667803,0.3548374489147505,301,15,21.182394714192892,7.075009867485087
0.3531581175611,0.3548339013740214,301,15,21.182394714192892,7.075009867485087
0.3567055521643467,0.3548303538687883,301,15,21.182394714192892,7.075009867485087
0.36025295127877627,0.35482680639904873,301,15,21.182394714192892,7.075009867485087
0.36380031490649883,0.35482325896480027,301,15,21.182394714192892,7.075009867485087
0.3673476430494891,0.3548197115660406,301,15,21.182394714192892,7.075009867485087
0.37089493570959703,0.3548161642027676,301,15,21.182394714192892,7.075009867485087
0.37444219288855796,0.35481261687497934,301,15,21.182394714192892,7.075009867485087
0.3779894145880005,0.354809069582674,301,15,21.182394714192892,7.075009867485087
0.38153660080945556,0.3548055223258498,301,15,21.182394714192892,7.075009867485087
0.38508375155436336,0.35480197510450506,301,15,21.182394714192892,7.075009867485087
0.38863086682408066,0.3547984279186383,301,15,21.182394714192892,7.075009867485087
0.3921779466198871,0.3547948807682481,301,15,21.182394714192892,7.075009867485087
0.395724990942991,0.3547913336533331,301,15,21.182394714192892,7.075009867485087
0.39927199979453537,0.35478778657389204,301,15,21.182394714192892,7.075009867485087
0.40281897317560206,0.35478423952992366,301,15,21.182394714192892,7.075009867485087
0.40636591108721715,0.3547806925214268,301,15,21.182394714192892,7.075009867485087
0.4099128135303553,0.35477714554840045,301,15,21.182394714192892,7.075009867485087
0.4134596805059431,0.3547735986108435,301,15,21.182394714192892,7.075009867485087
0.4170065120148633,0.3547700517087551,301,15,21.182394714192892,7.075009867485087
0.4205533080579578,0.3547665048421342,301,15,21.182394714192892,7.075009867485087
0.4241000686360315,0.35476295801097996,301,15,21.182394714192892,7.075009867485087
0.42764679374985404,0.35475941121529153,301,15,21.182394714192892,7.075009867485087
0.4311934834001634,0.3547558644550682,301,15,21.182394714192892,7.075009867485087
0.4347401375876681,0.354752317730309,301,15,21.182394714192892,7.075009867485087
0.43828675631304925,0.3547487710410134,301,15,21.182394714192892,7.075009867485087
0.44183333957696297,0.35474522438718054,301,15,21.182394714192892,7.075009867485087
0.44537988738004214,0.3547416777688098,301,15,21.182394714192892,7.075009867485087
0.44892639972289816,0.3547381311859006,301,15,21.182394714192892,7.075009867485087
0.45247287660612273,0.3547345846384522,301,15,21.182394714192892,7.075009867485087
0.4560193180302893,0.354731038126464,301,15,21.182394714192892,7.075009867485087
0.4595657239959543,0.3547274916499354,301,15,21.182394714192892,7.075009867485087
0.46311209450365887,0.3547239452088659,301,15,21.182394714192892,7.075009867485087
0.4666584295539297,0.3547203988032549,301,15,21.182394714192892,7.075009867485087
0.4702047291472801,0.3547168524331018,301,15,21.182394714192892,7.075009867485087
0.4737509932842113,0.3547133060984062,301,15,21.182394714192892,7.075009867485087
0.477297221965213,0.35470975979916747,301,15,21.182394714192892,7.075009867485087
0.4808434151907649,0.3547062135353852,301,15,21.182394714192892,7.075009867485087
0.4843895729613368,0.3547026673070588,301,15,21.182394714192892,7.075009867485087
0.4879356952773895,0.3546991211141879,301,15,21.182394714192892,7.075009867485087
0.49148178213937593,0.35469557495677195,301,15,21.182394714192892,7.075009867485087
0.49502783354774116,0.3546920288348105,301,15,21.182394714192892,7.075009867485087
0.4985738495029235,0.3546884827483031,301,15,21.182394714192892,7.075009867485087
0.5021198300053548,0.3546849366972494,301,15,21.182394714192892,7.075009867485087
0.5056657750554604,0.3546813906816488,301,15,21.182394714192892,7.075009867485087
0.5092116846536612,0.354677844701501,301,15,21.182394714192892,7.075009867485087
0.512757558800372,0.35467429875680545,301,15,21.182394714192892,7.075009867485087
0.5163033974960034,0.3546707528475619,301,15,21.182394714192892,7.075009867485087
0.5198492007409619,0.35466720697376974,301,15,21.182394714192892,7.075009867485087
0.5233949685356496,0.3546636611354287,301,15,21.182394714192892,7.075009867485087
0.5269407008804651,0.35466011533253833,301,15,21.182394714192892,7.075009867485087
0.5304863977758034,0.3546565695650982,301,15,21.182394714192892,7.075009867485087
0.5340320592220569,0.354653023833108,301,15,21.182394714192892,7.075009867485087
0.5375776852196142,0.3546494781365672,301,15,21.182394714192892,7.075009867485087
0.5411232757688621,0.35464593247547554,301,15,21.182394714192892,7.075009867485087
0.5446688308701845,0.35464238684983257,301,15,21.182394714192892,7.075009867485087
0.5482143505239631,0.3546388412596379,301,15,21.182394714192892,7.075009867485087
0.5517598347305773,0.3546352957048911,301,15,21.182394714192892,7.075009867485087
0.5553052834904051,0.3546317501855919,301,15,21.182394714192892,7.075009867485087
0.558850696803822,0.35462820470173984,301,15,21.182394714192892,7.075009867485087
0.5623960746712026,0.3546246592533346,301,15,21.182394714192892,7.075009867485087
0.5659414170929193,0.3546211138403757,301,15,21.182394714192892,7.075009867485087
0.5694867240693434,0.35461756846286285,301,15,21.182394714192892,7.075009867485087
0.5730319956008448,0.3546140231207957,301,15,21.182394714192892,7.075009867485087
0.5765772316877925,0.3546104778141738,301,15,21.182394714192892,7.075009867485087
0.5801224323305538,0.35460693254299686,301,15,21.182394714192892,7.075009867485087
0.5836675975294956,0.35460338730726443,301,15,21.182394714192892,7.075009867485087
0.5872127272849834,0.3545998421069762,301,15,21.182394714192892,7.075009867485087
0.5907578215973823,0.3545962969421318,301,15,21.182394714192892,7.075009867485087
0.5943028804670557,0.3545927518127308,301,15,21.182394714192892,7.075009867485087
0.5978479038943674,0.3545892067187729,301,15,21.182394714192892,7.075009867485087
0.6013928918796797,0.35458566166025773,301,15,21.182394714192892,7.075009867485087
0.6049378444233546,0.354582116637185,301,15,21.182394714192892,7.075009867485087
0.6084827615257534,0.35457857164955414,301,15,21.182394714192892,7.075009867485087
0.6120276431872369,0.35457502669736496,301,15,21.182394714192892,7.075009867485087
0.6155724894081654,0.3545714817806171,301,15,21.182394714192892,7.075009867485087
0.6191173001888988,0.3545679368993101,301,15,21.182394714192892,7.075009867485087
0.6226620755297964,0.35456439205344364,301,15,21.182394714192892,7.075009867485087
0.6262068154312169,0.3545608472430174,301,15,21.182394714192892,7.075009867485087
0.6297515198935196,0.354557302468031,301,15,21.182394714192892,7.075009867485087
0.6332961889170625,0.3545537577284841,301,15,21.182394714192892,7.075009867485087
0.6368408225022033,0.3545502130243762,301,15,21.182394714192892,7.075009867485087
0.6403854206493003,0.35454666835570714,301,15,21.182394714192892,7.075009867485087
0.6439299833587104,0.3545431237224765,301,15,21.182394714192892,7.075009867485087
0.6474745106307912,0.35453957912468387,301,15,21.182394714192892,7.075009867485087
0.6510190024658993,0.3545360345623289,301,15,21.182394714192892,7.075009867485087
0.6545634588643917,0.3545324900354113,301,15,21.182394714192892,7.075009867485087
0.6581078798266248,0.35452894554393066,301,15,21.182394714192892,7.075009867485087
0.6616522653529551,0.3545254010878866,301,15,21.182394714192892,7.075009867485087
0.6651966154437389,0.3545218566672788,301,15,21.182394714192892,7.075009867485087
0.668740930099332,0.35451831228210695,301,15,21.182394714192892,7.075009867485087
0.6722852093200908,0.3545147679323706,301,15,21.182394714192892,7.075009867485087
0.6758294531063707,0.3545112236180694,301,15,21.182394714192892,7.075009867485087
0.6793736614585272,0.35450767933920313,301,15,21.182394714192892,7.075009867485087
0.6829178343769164,0.3545041350957713,301,15,21.182394714192892,7.075009867485087
0.6864619718618934,0.3545005908877735,301,15,21.182394714192892,7.075009867485087
0.6900060739138135,0.3544970467152096,301,15,21.182394714192892,7.075009867485087
0.6935501405330324,0.354493502578079,301,15,21.182394714192892,7.075009867485087
0.6970941717199047,0.3544899584763815,301,15,21.182394714192892,7.075009867485087
0.700638167474786,0.3544864144101167,301,15,21.182394714192892,7.075009867485087
0.7041821277980311,0.3544828703792842,301,15,21.182394714192892,7.075009867485087
0.707726052689995,0.35447932638388374,301,15,21.182394714192892,7.075009867485087
0.7112699421510328,0.3544757824239149,301,15,21.182394714192892,7.075009867485087
0.7148137961814991,0.35447223849937737,301,15,21.182394714192892,7.075009867485087
0.7183576147817488,0.3544686946102707,301,15,21.182394714192892,7.075009867485087
0.7219013979521366,0.3544651507565946,301,15,21.182394714192892,7.075009867485087
0.7254451456930174,0.35446160693834877,301,15,21.182394714192892,7.075009867485087
0.7289888580047457,0.3544580631555328,301,15,21.182394714192892,7.075009867485087
0.7325325348876761,0.35445451940814626,301,15,21.182394714192892,7.075009867485087
0.7360761763421635,0.35445097569618894,301,15,21.182394714192892,7.075009867485087
0.7396197823685624,0.3544474320196604,301,15,21.182394714192892,7.075009867485087
0.7431633529672269,0.3544438883785603,301,15,21.182394714192892,7.075009867485087
0.7467068881385118,0.3544403447728882,301,15,21.182394714192892,7.075009867485087
0.7502503878827719,0.3544368012026439,301,15,21.182394714192892,7.075009867485087
0.7537938522003609,0.354433257667827,301,15,21.182394714192892,7.075009867485087
0.7573372810916337,0.3544297141684371,301,15,21.182394714192892,7.075009867485087
0.7608806745569449,0.35442617070447385,301,15,21.182394714192892,7.075009867485087
0.7644240325966485,0.35442262727593693,301,15,21.182394714192892,7.075009867485087
0.7679673552110989,0.354419083882826,301,15,21.182394714192892,7.075009867485087
0.7715106424006507,0.3544155405251406,301,15,21.182394714192892,7.075009867485087
0.7750538941656581,0.3544119972028805,301,15,21.182394714192892,7.075009867485087
0.7785971105064753,0.3544084539160453,301,15,21.182394714192892,7.075009867485087
0.7821402914234564,0.35440491066463464,301,15,21.182394714192892,7.075009867485087
0.7856834369169563,0.35440136744864814,301,15,21.182394714192892,7.075009867485087
0.7892265469873287,0.35439782426808547,301,15,21.182394714192892,7.075009867485087
0.7927696216349284,0.3543942811229463,301,15,21.182394714192892,7.075009867485087
0.7963126608601092,0.35439073801323023,301,15,21.182394714192892,7.075009867485087
0.7998556646632252,0.35438719493893694,301,15,21.182394714192892,7.075009867485087
0.8033986330446311,0.3543836519000661,301,15,21.182394714192892,7.075009867485087
0.8069415660046808,0.35438010889661725,301,15,21.182394714192892,7.075009867485087
0.8104844635437289,0.3543765659285902,301,15,21.182394714192892,7.075009867485087
0.814027325662129,0.35437302299598444,301,15,21.182394714192892,7.075009867485087
0.8175701523602357,0.35436948009879965,301,15,21.182394714192892,7.075009867485087
0.821112943638403,0.3543659372370356,301,15,21.182394714192892,7.075009867485087
0.8246556994969851,0.35436239441069173,301,15,21.182394714192892,7.075009867485087
0.8281984199363364,0.3543588516197679,301,15,21.182394714192892,7.075009867485087
0.8317411049568105,0.3543553088642636,301,15,21.182394714192892,7.075009867485087
0.8352837545587618,0.3543517661441785,301,15,21.182394714192892,7.075009867485087
0.8388263687425449,0.3543482234595123,301,15,21.182394714192892,7.075009867485087
0.8423689475085134,0.3543446808102646,301,15,21.182394714192892,7.075009867485087
