Vout,Iout,Irradiance,Temperature,MaxVoltage,MaxPower
0.009905404755723502,1.9810999999999996,1801,-25,18.26600125129943,35.85384159653348
0.029716031106861475,1.9810999999999996,1801,-25,18.26600125129943,35.85384159653348
0.049526254712934696,1.981089896485244,1801,-25,18.26600125129943,35.85384159653348
0.06933600362367072,1.9810700858588928,1801,-25,18.26600125129943,35.85384159653348
0.08914525432447226,1.981050275636297,1801,-25,18.26600125129943,35.85384159653348
0.10895402991414835,1.9810304658893674,1801,-25,18.26600125129943,35.85384159653348
0.1287623517150599,1.9810106566406476,1801,-25,18.26600125129943,35.85384159653348
0.1485702394093638,1.9809908478670388,1801,-25,18.26600125129943,35.85384159653348
0.1683777111649931,1.9809710395472189,1801,-25,18.26600125129943,35.85384159653348
0.18818478375216388,1.9809512316615054,1801,-25,18.26600125129943,35.85384159653348
0.2079914726509178,1.9809314241917306,1801,-25,18.26600125129943,35.85384159653348
0.22779779215038998,1.9809116171211243,1801,-25,18.26600125129943,35.85384159653348
0.24760375544043944,1.9808918104342064,1801,-25,18.26600125129943,35.85384159653348
0.267409374696229,1.9808720041166876,1801,-25,18.26600125129943,35.85384159653348
0.2872146611562974,1.9808521981553782,1801,-25,18.26600125129943,35.85384159653348
0.3070196251946252,1.980832392538103,1801,-25,18.26600125129943,35.85384159653348
0.3268242763871548,1.9808125872536235,1801,-25,18.26600125129943,35.85384159653348
0.3466286235731924,1.9807927822915659,1801,-25,18.26600125129943,35.85384159653348
0.36643267491208703,1.9807729776423537,1801,-25,18.26600125129943,35.85384159653348
0.38623643793554646,1.9807531732971482,1801,-25,18.26600125129943,35.85384159653348
0.4060399195959295,1.9807333692477898,1801,-25,18.26600125129943,35.85384159653348
0.4258431263108216,1.9807135654867467,1801,-25,18.26600125129943,35.85384159653348
0.44564606400418155,1.9806937620070668,1801,-25,18.26600125129943,35.85384159653348
0.46544873814432186,1.9806739588023323,1801,-25,18.26600125129943,35.85384159653348
0.4852511537789664,1.9806541558666193,1801,-25,18.26600125129943,35.85384159653348
0.5050533155676118,1.9806343531944595,1801,-25,18.26600125129943,35.85384159653348
0.5248552278113977,1.980614550780805,1801,-25,18.26600125129943,35.85384159653348
0.54465689448068,1.9805947486209967,1801,-25,18.26600125129943,35.85384159653348
0.5644583192404808,1.9805749467107332,1801,-25,18.26600125129943,35.85384159653348
0.5842595054739826,1.9805551450460441,1801,-25,18.26600125129943,35.85384159653348
0.6040604563042125,1.9805353436232644,1801,-25,18.26600125129943,35.85384159653348
0.6238611746140589,1.980515542439011,1801,-25,18.26600125129943,35.85384159653348
0.643661663064749,1.9804957414901612,1801,-25,18.26600125129943,35.85384159653348
0.6634619241129033,1.9804759407738313,1801,-25,18.26600125129943,35.85384159653348
0.6832619600262777,1.9804561402873608,1801,-25,18.26600125129943,35.85384159653348
0.7030617728982962,1.9804363400282927,1801,-25,18.26600125129943,35.85384159653348
0.7228613646614638,1.9804165399943594,1801,-25,18.26600125129943,35.85384159653348
0.7426607370997469,1.9803967401834672,1801,-25,18.26600125129943,35.85384159653348
0.7624598918600044,1.9803769405936842,1801,-25,18.26600125129943,35.85384159653348
0.7822588304625342,1.980357141223226,1801,-25,18.26600125129943,35.85384159653348
0.8020575543108132,1.9803373420704455,1801,-25,18.26600125129943,35.85384159653348
0.8218560647004843,1.980317543133823,1801,-25,18.26600125129943,35.85384159653348
0.8416543628276543,1.9802977444119547,1801,-25,18.26600125129943,35.85384159653348
0.8614524497965512,1.980277945903545,1801,-25,18.26600125129943,35.85384159653348
0.8812503266265951,1.9802581476073975,1801,-25,18.26600125129943,35.85384159653348
0.9010479942589222,1.9802383495224085,1801,-25,18.26600125129943,35.85384159653348
0.920845453562408,1.9802185516475583,1801,-25,18.26600125129943,35.85384159653348
0.9406427053392281,1.9801987539819057,1801,-25,18.26600125129943,35.85384159653348
0.9604397503299897,1.980178956524582,1801,-25,18.26600125129943,35.85384159653348
0.9802365892184686,1.980159159274785,1801,-25,18.26600125129943,35.85384159653348
1.0000332226359816,1.980139362231774,1801,-25,18.26600125129943,35.85384159653348
1.0198296511654241,1.9801195653948653,1801,-25,18.26600125129943,35.85384159653348
1.0396258753449943,1.9800997687634274,1801,-25,18.26600125129943,35.85384159653348
1.0594218956716326,1.9800799723368776,1801,-25,18.26600125129943,35.85384159653348
1.079217712604197,1.9800601761146777,1801,-25,18.26600125129943,35.85384159653348
1.099013326566392,1.9800403800963309,1801,-25,18.26600125129943,35.85384159653348
1.1188087379494733,1.9800205842813778,1801,-25,18.26600125129943,35.85384159653348
1.1386039471147464,1.9800007886693953,1801,-25,18.26600125129943,35.85384159653348
1.1583989543958684,1.9799809932599917,1801,-25,18.26600125129943,35.85384159653348
1.1781937601009764,1.979961198052806,1801,-25,18.26600125129943,35.85384159653348
1.1979883645146525,1.9799414030475044,1801,-25,18.26600125129943,35.85384159653348
1.2177827678997333,1.979921608243779,1801,-25,18.26600125129943,35.85384159653348
1.2375769704989852,1.9799018136413447,1801,-25,18.26600125129943,35.85384159653348
1.2573709725366484,1.9798820192399391,1801,-25,18.26600125129943,35.85384159653348
1.2771647742198613,1.9798622250393192,1801,-25,18.26600125129943,35.85384159653348
1.2969583757399774,1.979842431039261,1801,-25,18.26600125129943,35.85384159653348
1.3167517772737787,1.9798226372395573,1801,-25,18.26600125129943,35.85384159653348
1.3365449789845985,1.9798028436400166,1801,-25,18.26600125129943,35.85384159653348
1.3563379810233542,1.979783050240462,1801,-25,18.26600125129943,35.85384159653348
1.3761307835295036,1.9797632570407306,1801,-25,18.26600125129943,35.85384159653348
1.3959233866319278,1.9797434640406713,1801,-25,18.26600125129943,35.85384159653348
1.4157157904497426,1.9797236712401445,1801,-25,18.26600125129943,35.85384159653348
1.435507995093052,1.9797038786390213,1801,-25,18.26600125129943,35.85384159653348
1.4553000006636394,1.9796840862371827,1801,-25,18.26600125129943,35.85384159653348
1.47509180725561,1.9796642940345188,1801,-25,18.26600125129943,35.85384159653348
1.4948834149559802,1.9796445020309275,1801,-25,18.26600125129943,35.85384159653348
1.514674823845224,1.9796247102263147,1801,-25,18.26600125129943,35.85384159653348
1.534466033997774,1.9796049186205935,1801,-25,18.26600125129943,35.85384159653348
1.5542570454824902,1.9795851272136833,1801,-25,18.26600125129943,35.85384159653348
1.5740478583630861,1.97956533600551,1801,-25,18.26600125129943,35.85384159653348
1.593838472698524,1.9795455449960044,1801,-25,18.26600125129943,35.85384159653348
1.6136288885433827,1.979525754185103,1801,-25,18.26600125129943,35.85384159653348
1.6334191059481933,1.9795059635727466,1801,-25,18.26600125129943,35.85384159653348
1.653209124959752,1.9794861731588809,1801,-25,18.26600125129943,35.85384159653348
1.672998945621406,1.9794663829434551,1801,-25,18.26600125129943,35.85384159653348
1.6927885679733194,1.9794465929264227,1801,-25,18.26600125129943,35.85384159653348
1.712577992052718,1.97942680310774,1801,-25,18.26600125129943,35.85384159653348
1.732367217894116,1.979407013487367,1801,-25,18.26600125129943,35.85384159653348
1.7521562455295243,1.9793872240652666,1801,-25,18.26600125129943,35.85384159653348
1.7719450749886425,1.979367434841404,1801,-25,18.26600125129943,35.85384159653348
1.791733706299038,1.9793476458157477,1801,-25,18.26600125129943,35.85384159653348
1.811522139486308,1.9793278569882675,1801,-25,18.26600125129943,35.85384159653348
1.8313103745742334,1.979308068358936,1801,-25,18.26600125129943,35.85384159653348
1.851098411584918,1.9792882799277276,1801,-25,18.26600125129943,35.85384159653348
1.8708862505389157,1.9792684916946186,1801,-25,18.26600125129943,35.85384159653348
1.8906738914553523,1.9792487036595867,1801,-25,18.26600125129943,35.85384159653348
1.9104613343520331,1.9792289158226115,1801,-25,18.26600125129943,35.85384159653348
1.9302485792455462,1.979209128183674,1801,-25,18.26600125129943,35.85384159653348
1.9500356261513558,1.979189340742756,1801,-25,18.26600125129943,35.85384159653348
1.969822475083888,1.9791695534998412,1801,-25,18.26600125129943,35.85384159653348
1.9896091260566109,1.9791497664549142,1801,-25,18.26600125129943,35.85384159653348
2.0093955790821094,1.9791299796079604,1801,-25,18.26600125129943,35.85384159653348
2.0291818341721513,1.9791101929589663,1801,-25,18.26600125129943,35.85384159653348
2.048967891337752,1.9790904065079196,1801,-25,18.26600125129943,35.85384159653348
2.0687537505892295,1.9790706202548083,1801,-25,18.26600125129943,35.85384159653348
2.0885394119362632,1.9790508341996211,1801,-25,18.26600125129943,35.85384159653348
2.108324875387938,1.9790310483423483,1801,-25,18.26600125129943,35.85384159653348
2.1281101409527907,1.9790112626829799,1801,-25,18.26600125129943,35.85384159653348
2.1478952086388565,1.978991477221507,1801,-25,18.26600125129943,35.85384159653348
2.1676800784537025,1.9789716919579206,1801,-25,18.26600125129943,35.85384159653348
2.1874647504044646,1.978951906892213,1801,-25,18.26600125129943,35.85384159653348
2.2072492244978865,1.9789321220243767,1801,-25,18.26600125129943,35.85384159653348
2.227033500740339,1.9789123373544044,1801,-25,18.26600125129943,35.85384159653348
2.246817579137859,1.9788925528822896,1801,-25,18.26600125129943,35.85384159653348
2.26660145969617,1.9788727686080256,1801,-25,18.26600125129943,35.85384159653348
2.2863851424207065,1.9788529845316065,1801,-25,18.26600125129943,35.85384159653348
2.3061686273166386,1.9788332006530267,1801,-25,18.26600125129943,35.85384159653348
2.3259519143888885,1.9788134169722804,1801,-25,18.26600125129943,35.85384159653348
2.3457350036421536,1.978793633489363,1801,-25,18.26600125129943,35.85384159653348
2.3655178950809215,1.978773850204269,1801,-25,18.26600125129943,35.85384159653348
2.3853005887094865,1.978754067116994,1801,-25,18.26600125129943,35.85384159653348
2.405083084531965,1.9787342842275337,1801,-25,18.26600125129943,35.85384159653348
2.424865382552308,1.9787145015358834,1801,-25,18.26600125129943,35.85384159653348
2.444647482774315,1.9786947190420392,1801,-25,18.26600125129943,35.85384159653348
2.464429385201646,1.9786749367459973,1801,-25,18.26600125129943,35.85384159653348
2.4842110898378316,1.9786551546477533,1801,-25,18.26600125129943,35.85384159653348
2.50399259668628,1.9786353727473043,1801,-25,18.26600125129943,35.85384159653348
2.5237739057502937,1.9786155910446463,1801,-25,18.26600125129943,35.85384159653348
2.543555017033069,1.978595809539776,1801,-25,18.26600125129943,35.85384159653348
2.5633359305377126,1.9785760282326903,1801,-25,18.26600125129943,35.85384159653348
2.58311664626724,1.9785562471233855,1801,-25,18.26600125129943,35.85384159653348
2.6028971642245895,1.9785364662118592,1801,-25,18.26600125129943,35.85384159653348
2.6226774844126246,1.9785166854981078,1801,-25,18.26600125129943,35.85384159653348
2.6424576068341414,1.9784969049821284,1801,-25,18.26600125129943,35.85384159653348
2.662237531491872,1.9784771246639186,1801,-25,18.26600125129943,35.85384159653348
2.6820172583884903,1.978457344543475,1801,-25,18.26600125129943,35.85384159653348
2.7017967875266176,1.9784375646207952,1801,-25,18.26600125129943,35.85384159653348
2.721576118908824,1.9784177848958766,1801,-25,18.26600125129943,35.85384159653348
2.7413552525376357,1.9783980053687165,1801,-25,18.26600125129943,35.85384159653348
2.7611341884155354,1.9783782260393123,1801,-25,18.26600125129943,35.85384159653348
2.7809129265449672,1.9783584469076614,1801,-25,18.26600125129943,35.85384159653348
2.8006914669283405,1.9783386679737616,1801,-25,18.26600125129943,35.85384159653348
2.8204698095680287,1.97831888923761,1801,-25,18.26600125129943,35.85384159653348
2.8402479544663772,1.9782991106992045,1801,-25,18.26600125129943,35.85384159653348
2.860025901625702,1.9782793323585426,1801,-25,18.26600125129943,35.85384159653348
2.8798036510482925,1.9782595542156223,1801,-25,18.26600125129943,35.85384159653348
2.8995812027364143,1.9782397762704407,1801,-25,18.26600125129943,35.85384159653348
2.919358556692312,1.978219998522996,1801,-25,18.26600125129943,35.85384159653348
2.9391357129182083,1.9782002209732856,1801,-25,18.26600125129943,35.85384159653348
2.958912671416307,1.9781804436213075,1801,-25,18.26600125129943,35.85384159653348
2.9786894321887956,1.9781606664670592,1801,-25,18.26600125129943,35.85384159653348
2.998465995237844,1.978140889510539,1801,-25,18.26600125129943,35.85384159653348
3.0182423605656075,1.9781211127517442,1801,-25,18.26600125129943,35.85384159653348
3.0380185281742276,1.9781013361906727,1801,-25,18.26600125129943,35.85384159653348
3.0577944980658343,1.9780815598273227,1801,-25,18.26600125129943,35.85384159653348
3.077570270242543,1.9780617836616918,1801,-25,18.26600125129943,35.85384159653348
3.097345844706462,1.978042007693778,1801,-25,18.26600125129943,35.85384159653348
3.1171212214596875,1.9780222319235787,1801,-25,18.26600125129943,35.85384159653348
3.1368964005043054,1.9780024563510925,1801,-25,18.26600125129943,35.85384159653348
3.1566713818423957,1.9779826809763168,1801,-25,18.26600125129943,35.85384159653348
3.176446165476029,1.9779629057992496,1801,-25,18.26600125129943,35.85384159653348
3.1962207514072674,1.9779431308198892,1801,-25,18.26600125129943,35.85384159653348
3.21599513963817,1.977923356038233,1801,-25,18.26600125129943,35.85384159653348
3.2357693301707857,1.9779035814542794,1801,-25,18.26600125129943,35.85384159653348
3.2555433230071604,1.9778838070680258,1801,-25,18.26600125129943,35.85384159653348
3.275317118149334,1.9778640328794708,1801,-25,18.26600125129943,35.85384159653348
3.29509071559934,1.9778442588886118,1801,-25,18.26600125129943,35.85384159653348
3.314864115359209,1.977824485095447,1801,-25,18.26600125129943,35.85384159653348
3.334637317430967,1.9778047114999744,1801,-25,18.26600125129943,35.85384159653348
3.354410321816637,1.977784938102192,1801,-25,18.26600125129943,35.85384159653348
3.3741831285182364,1.9777651649020975,1801,-25,18.26600125129943,35.85384159653348
3.393955737537782,1.9777453918996892,1801,-25,18.26600125129943,35.85384159653348
3.4137281488772864,1.9777256190949648,1801,-25,18.26600125129943,35.85384159653348
3.4335003625387577,1.9777058464879227,1801,-25,18.26600125129943,35.85384159653348
3.453272378524204,1.9776860740785605,1801,-25,18.26600125129943,35.85384159653348
3.47304419683563,1.9776663018668763,1801,-25,18.26600125129943,35.85384159653348
3.492815817475037,1.977646529852868,1801,-25,18.26600125129943,35.85384159653348
3.5125872404444265,1.9776267580365339,1801,-25,18.26600125129943,35.85384159653348
3.532358465745797,1.9776069864178716,1801,-25,18.26600125129943,35.85384159653348
3.5521294933811443,1.9775872149968794,1801,-25,18.26600125129943,35.85384159653348
3.5719003233524638,1.9775674437735553,1801,-25,18.26600125129943,35.85384159653348
3.5916709556617508,1.977547672747897,1801,-25,18.26600125129943,35.85384159653348
3.611441390310996,1.9775279019199028,1801,-25,18.26600125129943,35.85384159653348
3.6312116273021915,1.9775081312895706,1801,-25,18.26600125129943,35.85384159653348
3.6509816666373265,1.9774883608568985,1801,-25,18.26600125129943,35.85384159653348
3.67075150831839,1.9774685906218843,1801,-25,18.26600125129943,35.85384159653348
3.6905211523473698,1.9774488205845262,1801,-25,18.26600125129943,35.85384159653348
3.710290598726253,1.9774290507448222,1801,-25,18.26600125129943,35.85384159653348
3.730059847457025,1.9774092811027701,1801,-25,18.26600125129943,35.85384159653348
3.7498288985416717,1.9773895116583684,1801,-25,18.26600125129943,35.85384159653348
3.7695977519821775,1.9773697424116146,1801,-25,18.26600125129943,35.85384159653348
3.789366407780526,1.9773499733625068,1801,-25,18.26600125129943,35.85384159653348
3.8091348659387005,1.9773302045110432,1801,-25,18.26600125129943,35.85384159653348
3.8289031264586844,1.9773104358572218,1801,-25,18.26600125129943,35.85384159653348
3.8486711893424586,1.9772906674010404,1801,-25,18.26600125129943,35.85384159653348
3.8684390545920055,1.9772708991424974,1801,-25,18.26600125129943,35.85384159653348
3.888206722209306,1.9772511310815903,1801,-25,18.26600125129943,35.85384159653348
3.9079741921963413,1.9772313632183178,1801,-25,18.26600125129943,35.85384159653348
3.927741464555092,1.9772115955526772,1801,-25,18.26600125129943,35.85384159653348
3.947508539287536,1.977191828084667,1801,-25,18.26600125129943,35.85384159653348
3.967275416395655,1.977172060814285,1801,-25,18.26600125129943,35.85384159653348
3.9870420958814283,1.9771522937415293,1801,-25,18.26600125129943,35.85384159653348
4.006808577746833,1.977132526866398,1801,-25,18.26600125129943,35.85384159653348
4.026574861993851,1.977112760188889,1801,-25,18.26600125129943,35.85384159653348
4.046340948624457,1.977092993709,1801,-25,18.26600125129943,35.85384159653348
4.066106837640632,1.9770732274267298,1801,-25,18.26600125129943,35.85384159653348
4.085872529044353,1.9770534613420758,1801,-25,18.26600125129943,35.85384159653348
4.105638022837599,1.9770336954550363,1801,-25,18.26600125129943,35.85384159653348
4.125403319022346,1.977013929765609,1801,-25,18.26600125129943,35.85384159653348
4.145168417600572,1.9769941642737925,1801,-25,18.26600125129943,35.85384159653348
4.164933318574255,1.9769743989795843,1801,-25,18.26600125129943,35.85384159653348
4.184698021945372,1.9769546338829826,1801,-25,18.26600125129943,35.85384159653348
4.2044625277159,1.9769348689839854,1801,-25,18.26600125129943,35.85384159653348
4.224226835887815,1.976915104282591,1801,-25,18.26600125129943,35.85384159653348
4.243990946463094,1.976895339778797,1801,-25,18.26600125129943,35.85384159653348
4.263754859443713,1.9768755754726013,1801,-25,18.26600125129943,35.85384159653348
4.283518574831652,1.9768558113640025,1801,-25,18.26600125129943,35.85384159653348
4.3032820926288835,1.9768360474529985,1801,-25,18.26600125129943,35.85384159653348
4.323045412837387,1.9768162837395868,1801,-25,18.26600125129943,35.85384159653348
4.342808535459136,1.976796520223766,1801,-25,18.26600125129943,35.85384159653348
4.362571460496109,1.976776756905534,1801,-25,18.26600125129943,35.85384159653348
4.382334187950279,1.9767569937848886,1801,-25,18.26600125129943,35.85384159653348
4.402096717823626,1.9767372308618278,1801,-25,18.26600125129943,35.85384159653348
4.4218590501181225,1.97671746813635,1801,-25,18.26600125129943,35.85384159653348
4.441621184835746,1.976697705608453,1801,-25,18.26600125129943,35.85384159653348
4.461383121978472,1.9766779432781347,1801,-25,18.26600125129943,35.85384159653348
4.481144861548278,1.9766581811453934,1801,-25,18.26600125129943,35.85384159653348
4.500906403547136,1.9766384192102269,1801,-25,18.26600125129943,35.85384159653348
4.520667747977024,1.9766186574726332,1801,-25,18.26600125129943,35.85384159653348
4.540428894839917,1.9765988959326106,1801,-25,18.26600125129943,35.85384159653348
4.560189844137793,1.9765791345901569,1801,-25,18.26600125129943,35.85384159653348
4.579950595872623,1.9765593734452702,1801,-25,18.26600125129943,35.85384159653348
4.599711150046385,1.9765396124979484,1801,-25,18.26600125129943,35.85384159653348
4.619471506661057,1.9765198517481897,1801,-25,18.26600125129943,35.85384159653348
4.639231665718609,1.976500091195992,1801,-25,18.26600125129943,35.85384159653348
4.6589916272210194,1.9764803308413534,1801,-25,18.26600125129943,35.85384159653348
4.678751391170263,1.976460570684272,1801,-25,18.26600125129943,35.85384159653348
4.698510957568316,1.9764408107247455,1801,-25,18.26600125129943,35.85384159653348
4.7182703264171515,1.9764210509627722,1801,-25,18.26600125129943,35.85384159653348
