Vout,Iout,Irradiance,Temperature,MaxVoltage,MaxPower
0.010085503024009384,2.01712,1801,-15,18.99768283027113,37.96044926835144
0.030256322581531686,2.01712,1801,-15,18.99768283027113,37.96044926835144
0.050426732071351704,2.017109712784976,1801,-15,18.99768283027113,37.96044926835144
0.0705966582350102,2.0170895419654182,1801,-15,18.99768283027113,37.96044926835144
0.09076607713037177,2.017069371556957,1801,-15,18.99768283027113,37.96044926835144
0.11093501227622378,2.0170492016328105,1801,-15,18.99768283027113,37.96044926835144
0.13110348538260647,2.017029032215932,1801,-15,18.99768283027113,37.96044926835144
0.15127151648953405,2.0170088632828036,1801,-15,18.99768283027113,37.96044926835144
0.1714391240952657,2.016988694811714,1801,-15,18.99768283027113,37.96044926835144
0.19160632527493054,2.016968526782624,1801,-15,18.99768283027113,37.96044926835144
0.2117731357900254,2.016948359177035,1801,-15,18.99768283027113,37.96044926835144
0.231939570189488,2.0169281919778723,1801,-15,18.99768283027113,37.96044926835144
0.2521056419029929,2.016908025169374,1801,-15,18.99768283027113,37.96044926835144
0.2722713633270694,2.016887858736991,1801,-15,18.99768283027113,37.96044926835144
0.2924367459045937,2.016867692667294,1801,-15,18.99768283027113,37.96044926835144
0.31260180019816386,2.016847526947887,1801,-15,18.99768283027113,37.96044926835144
0.33276653595783035,2.016827361567326,1801,-15,18.99768283027113,37.96044926835144
0.3529309621836142,2.016807196515049,1801,-15,18.99768283027113,37.96044926835144
0.37309508718321605,2.016787031781306,1801,-15,18.99768283027113,37.96044926835144
0.3932589186252838,2.0167668673570964,1801,-15,18.99768283027113,37.96044926835144
0.41342246358858287,2.0167467032341135,1801,-15,18.99768283027113,37.96044926835144
0.43358572860738215,2.016726539404688,1801,-15,18.99768283027113,37.96044926835144
0.4537487197133486,2.016706375861741,1801,-15,18.99768283027113,37.96044926835144
0.47391144247421874,2.0166862125987386,1801,-15,18.99768283027113,37.96044926835144
0.4940739020294932,2.0166660496096487,1801,-15,18.99768283027113,37.96044926835144
0.5142361031233867,2.016645886888904,1801,-15,18.99768283027113,37.96044926835144
0.5343980501352414,2.0166257244313655,1801,-15,18.99768283027113,37.96044926835144
0.5545597471076016,2.0166055622322876,1801,-15,18.99768283027113,37.96044926835144
0.5747211977721262,2.0165854002872923,1801,-15,18.99768283027113,37.96044926835144
0.5948824055735098,2.016565238592336,1801,-15,18.99768283027113,37.96044926835144
0.6150433736915619,2.0165450771436877,1801,-15,18.99768283027113,37.96044926835144
0.6352041050615875,2.0165249159379024,1801,-15,18.99768283027113,37.96044926835144
0.6553646023931993,2.0165047549718005,1801,-15,18.99768283027113,37.96044926835144
0.6755248681876836,2.0164845942424465,1801,-15,18.99768283027113,37.96044926835144
0.6956849047540286,2.016464433747131,1801,-15,18.99768283027113,37.96044926835144
0.7158447142237202,2.0164442734833528,1801,-15,18.99768283027113,37.96044926835144
0.7360042985643998,2.0164241134488026,1801,-15,18.99768283027113,37.96044926835144
0.7561636595924701,2.016403953641349,1801,-15,18.99768283027113,37.96044926835144
0.7763227989847321,2.016383794059024,1801,-15,18.99768283027113,37.96044926835144
0.7964817182891262,2.016363634700012,1801,-15,18.99768283027113,37.96044926835144
0.8166404189346465,2.0163434755626355,1801,-15,18.99768283027113,37.96044926835144
0.8367989022404935,2.016323316645347,1801,-15,18.99768283027113,37.96044926835144
0.8569571694245212,2.0163031579467177,1801,-15,18.99768283027113,37.96044926835144
0.8771152216110343,2.0162829994654277,1801,-15,18.99768283027113,37.96044926835144
0.8972730598379881,2.0162628412002594,1801,-15,18.99768283027113,37.96044926835144
0.9174306850636302,2.016242683150089,1801,-15,18.99768283027113,37.96044926835144
0.9375880981726341,2.0162225253138777,1801,-15,18.99768283027113,37.96044926835144
0.95774529998176,2.016202367690668,1801,-15,18.99768283027113,37.96044926835144
0.9779022912450809,2.016182210279575,1801,-15,18.99768283027113,37.96044926835144
0.9980590726588049,2.0161620530797815,1801,-15,18.99768283027113,37.96044926835144
1.0182156448657274,2.0161418960905335,1801,-15,18.99768283027113,37.96044926835144
1.0383720084593415,2.0161217393111355,1801,-15,18.99768283027113,37.96044926835144
1.0585281639876314,2.0161015827409443,1801,-15,18.99768283027113,37.96044926835144
1.0786841119565722,2.0160814263793667,1801,-15,18.99768283027113,37.96044926835144
1.098839852833365,2.016061270225854,1801,-15,18.99768283027113,37.96044926835144
1.118995387049418,2.0160411142799006,1801,-15,18.99768283027113,37.96044926835144
1.1391507150031013,2.0160209585410396,1801,-15,18.99768283027113,37.96044926835144
1.159305837062288,2.016000803008839,1801,-15,18.99768283027113,37.96044926835144
1.1794607535667028,2.015980647682901,1801,-15,18.99768283027113,37.96044926835144
1.1996154648300859,2.0159604925628574,1801,-15,18.99768283027113,37.96044926835144
1.2197699711421923,2.0159403376483684,1801,-15,18.99768283027113,37.96044926835144
1.239924272770638,2.0159201829391207,1801,-15,18.99768283027113,37.96044926835144
1.2600783699626041,2.0159000284348236,1801,-15,18.99768283027113,37.96044926835144
1.2802322629464062,2.015879874135211,1801,-15,18.99768283027113,37.96044926835144
1.3003859519329504,2.0158597200400346,1801,-15,18.99768283027113,37.96044926835144
1.3205394371170687,2.015839566149066,1801,-15,18.99768283027113,37.96044926835144
1.340692718678757,2.0158194124620947,1801,-15,18.99768283027113,37.96044926835144
1.360845796784319,2.015799258978926,1801,-15,18.99768283027113,37.96044926835144
1.3809986715874156,2.0157791056993797,1801,-15,18.99768283027113,37.96044926835144
1.401151343230041,2.0157589526232895,1801,-15,18.99768283027113,37.96044926835144
1.4213038118434183,2.0157387997505016,1801,-15,18.99768283027113,37.96044926835144
1.44145607754883,2.0157186470808743,1801,-15,18.99768283027113,37.96044926835144
1.4616081404583814,2.015698494614276,1801,-15,18.99768283027113,37.96044926835144
1.4817600006757066,2.0156783423505864,1801,-15,18.99768283027113,37.96044926835144
1.501911658296622,2.015658190289692,1801,-15,18.99768283027113,37.96044926835144
1.5220631134097267,2.01563803843149,1801,-15,18.99768283027113,37.96044926835144
1.5422143660969558,2.015617886775884,1801,-15,18.99768283027113,37.96044926835144
1.562365416434098,2.0155977353227863,1801,-15,18.99768283027113,37.96044926835144
1.5825162644912638,2.015577584072114,1801,-15,18.99768283027113,37.96044926835144
1.6026669103333244,2.015557433023792,1801,-15,18.99768283027113,37.96044926835144
1.6228173540203155,2.01553728217775,1801,-15,18.99768283027113,37.96044926835144
1.6429675956078078,2.0155171315339233,1801,-15,18.99768283027113,37.96044926835144
1.6631176351472516,2.015496981092251,1801,-15,18.99768283027113,37.96044926835144
1.6832674726862933,2.0154768308526787,1801,-15,18.99768283027113,37.96044926835144
1.703417108269068,2.0154566808151544,1801,-15,18.99768283027113,37.96044926835144
1.7235665419364703,2.0154365309796303,1801,-15,18.99768283027113,37.96044926835144
1.7437157737264033,2.015416381346063,1801,-15,18.99768283027113,37.96044926835144
1.7638648036740088,2.0153962319144103,1801,-15,18.99768283027113,37.96044926835144
1.784013631811879,2.0153760826846354,1801,-15,18.99768283027113,37.96044926835144
1.804162258170254,2.0153559336567026,1801,-15,18.99768283027113,37.96044926835144
1.824310682777202,2.0153357848305795,1801,-15,18.99768283027113,37.96044926835144
1.8444589056587863,2.0153156362062363,1801,-15,18.99768283027113,37.96044926835144
1.8646069268392198,2.015295487783644,1801,-15,18.99768283027113,37.96044926835144
1.8847547463410077,2.0152753395627774,1801,-15,18.99768283027113,37.96044926835144
1.904902364185078,2.015255191543612,1801,-15,18.99768283027113,37.96044926835144
1.9250497803909041,2.015235043726125,1801,-15,18.99768283027113,37.96044926835144
1.9451969949766152,2.0152148961102956,1801,-15,18.99768283027113,37.96044926835144
1.9653440079591011,2.0151947486961044,1801,-15,18.99768283027113,37.96044926835144
1.9854908193541076,2.0151746014835337,1801,-15,18.99768283027113,37.96044926835144
2.0056374291763217,2.0151544544725657,1801,-15,18.99768283027113,37.96044926835144
2.0257838374394583,2.0151343076631854,1801,-15,18.99768283027113,37.96044926835144
2.0459300441563295,2.015114161055378,1801,-15,18.99768283027113,37.96044926835144
2.0660760493389176,2.0150940146491294,1801,-15,18.99768283027113,37.96044926835144
2.086221852998438,2.015073868444427,1801,-15,18.99768283027113,37.96044926835144
2.1063674551453975,2.0150537224412592,1801,-15,18.99768283027113,37.96044926835144
2.1265128557896507,2.0150335766396146,1801,-15,18.99768283027113,37.96044926835144
2.146658054940446,2.015013431039482,1801,-15,18.99768283027113,37.96044926835144
2.1668030526064785,2.0149932856408523,1801,-15,18.99768283027113,37.96044926835144
2.186947848795927,2.014973140443716,1801,-15,18.99768283027113,37.96044926835144
2.2070924435164976,2.014952995448065,1801,-15,18.99768283027113,37.96044926835144
2.227236836775456,2.01493285065389,1801,-15,18.99768283027113,37.96044926835144
2.2473810285796665,2.0149127060611836,1801,-15,18.99768283027113,37.96044926835144
2.267525018935618,2.014892561669939,1801,-15,18.99768283027113,37.96044926835144
2.2876688078494567,2.0148724174801496,1801,-15,18.99768283027113,37.96044926835144
2.307812395327009,2.014852273491808,1801,-15,18.99768283027113,37.96044926835144
2.3279557813738103,2.0148321297049088,1801,-15,18.99768283027113,37.96044926835144
2.348098965995122,2.0148119861194456,1801,-15,18.99768283027113,37.96044926835144
2.368241949195958,2.0147918427354132,1801,-15,18.99768283027113,37.96044926835144
2.3883847309811013,2.014771699552806,1801,-15,18.99768283027113,37.96044926835144
2.4085273113551193,2.0147515565716194,1801,-15,18.99768283027113,37.96044926835144
2.428669690322385,2.0147314137918486,1801,-15,18.99768283027113,37.96044926835144
2.4488118678870903,2.014711271213489,1801,-15,18.99768283027113,37.96044926835144
2.4689538440532584,2.014691128836536,1801,-15,18.99768283027113,37.96044926835144
2.489095618824756,2.0146709866609855,1801,-15,18.99768283027113,37.96044926835144
2.509237192205312,2.014650844686834,1801,-15,18.99768283027113,37.96044926835144
2.5293785641985185,2.014630702914076,1801,-15,18.99768283027113,37.96044926835144
2.5495197348078484,2.01461056134271,1801,-15,18.99768283027113,37.96044926835144
2.569660704036662,2.014590419972731,1801,-15,18.99768283027113,37.96044926835144
2.589801471888215,2.0145702788041358,1801,-15,18.99768283027113,37.96044926835144
2.60994203836567,2.0145501378369213,1801,-15,18.99768283027113,37.96044926835144
2.6300824034720973,2.0145299970710835,1801,-15,18.99768283027113,37.96044926835144
2.6502225672104895,2.01450985650662,1801,-15,18.99768283027113,37.96044926835144
2.670362529583762,2.014489716143528,1801,-15,18.99768283027113,37.96044926835144
2.690502290594761,2.0144695759818037,1801,-15,18.99768283027113,37.96044926835144
2.710641850246268,2.014449436021444,1801,-15,18.99768283027113,37.96044926835144
2.7307812085410066,2.0144292962624473,1801,-15,18.99768283027113,37.96044926835144
2.750920365481644,2.01440915670481,1801,-15,18.99768283027113,37.96044926835144
2.7710593210708003,2.0143890173485293,1801,-15,18.99768283027113,37.96044926835144
2.791198075311044,2.0143688781936024,1801,-15,18.99768283027113,37.96044926835144
2.811336628204906,2.0143487392400274,1801,-15,18.99768283027113,37.96044926835144
2.8314749797548737,2.014328600487801,1801,-15,18.99768283027113,37.96044926835144
2.8516131299633978,2.014308461936921,1801,-15,18.99768283027113,37.96044926835144
2.8717510788328986,2.014288323587385,1801,-15,18.99768283027113,37.96044926835144
2.8918888263657623,2.01426818543919,1801,-15,18.99768283027113,37.96044926835144
2.912026372564346,2.0142480474923343,1801,-15,18.99768283027113,37.96044926835144
2.9321637174309836,2.0142279097468156,1801,-15,18.99768283027113,37.96044926835144
2.95230086096798,2.0142077722026306,1801,-15,18.99768283027113,37.96044926835144
2.972437803177622,2.014187634859778,1801,-15,18.99768283027113,37.96044926835144
2.992574544062171,2.0141674977182547,1801,-15,18.99768283027113,37.96044926835144
3.0127110836238717,2.014147360778059,1801,-15,18.99768283027113,37.96044926835144
3.0328474218649513,2.014127224039188,1801,-15,18.99768283027113,37.96044926835144
3.052983558787619,2.01410708750164,1801,-15,18.99768283027113,37.96044926835144
3.073119494394068,2.0140869511654125,1801,-15,18.99768283027113,37.96044926835144
3.093255228686481,2.014066815030503,1801,-15,18.99768283027113,37.96044926835144
3.113390761667026,2.0140466790969107,1801,-15,18.99768283027113,37.96044926835144
3.133526093337857,2.014026543364632,1801,-15,18.99768283027113,37.96044926835144
3.15366122370112,2.014006407833665,1801,-15,18.99768283027113,37.96044926835144
3.1737961527589484,2.0139862725040074,1801,-15,18.99768283027113,37.96044926835144
3.193930880513469,2.013966137375658,1801,-15,18.99768283027113,37.96044926835144
3.2140654069667973,2.0139460024486135,1801,-15,18.99768283027113,37.96044926835144
3.2341997321210414,2.0139258677228726,1801,-15,18.99768283027113,37.96044926835144
3.2543338559783033,2.013905733198433,1801,-15,18.99768283027113,37.96044926835144
3.2744677785406764,2.013885598875292,1801,-15,18.99768283027113,37.96044926835144
3.294601499810249,2.013865464753448,1801,-15,18.99768283027113,37.96044926835144
3.314735019789103,2.013845330832899,1801,-15,18.99768283027113,37.96044926835144
3.3348683384793154,2.013825197113643,1801,-15,18.99768283027113,37.96044926835144
3.3550014558829577,2.0138050635956777,1801,-15,18.99768283027113,37.96044926835144
3.3751343720020976,2.0137849302790007,1801,-15,18.99768283027113,37.96044926835144
3.395267086838797,2.0137647971636103,1801,-15,18.99768283027113,37.96044926835144
3.4153996003951166,2.0137446642495047,1801,-15,18.99768283027113,37.96044926835144
3.43553191267311,2.013724531536681,1801,-15,18.99768283027113,37.96044926835144
3.4556640236748293,2.0137043990251384,1801,-15,18.99768283027113,37.96044926835144
3.4757959334023245,2.0136842667148733,1801,-15,18.99768283027113,37.96044926835144
3.4959276418576404,2.013664134605885,1801,-15,18.99768283027113,37.96044926835144
3.516059149042823,2.013644002698171,1801,-15,18.99768283027113,37.96044926835144
3.53619045495991,2.013623870991729,1801,-15,18.99768283027113,37.96044926835144
3.5563215596109434,2.0136037394865567,1801,-15,18.99768283027113,37.96044926835144
3.5764524629979584,2.013583608182653,1801,-15,18.99768283027113,37.96044926835144
3.59658316512299,2.013563477080015,1801,-15,18.99768283027113,37.96044926835144
3.6167136659880708,2.013543346178641,1801,-15,18.99768283027113,37.96044926835144
3.636843965595234,2.013523215478529,1801,-15,18.99768283027113,37.96044926835144
3.656974063946508,2.013503084979677,1801,-15,18.99768283027113,37.96044926835144
3.6771039610439216,2.013482954682083,1801,-15,18.99768283027113,37.96044926835144
3.697233656889502,2.0134628245857447,1801,-15,18.99768283027113,37.96044926835144
3.717363151485276,2.0134426946906605,1801,-15,18.99768283027113,37.96044926835144
3.7374924448332685,2.013422564996828,1801,-15,18.99768283027113,37.96044926835144
3.757621536935503,2.0134024355042452,1801,-15,18.99768283027113,37.96044926835144
3.777750427794002,2.01338230621291,1801,-15,18.99768283027113,37.96044926835144
3.797879117410788,2.0133621771228207,1801,-15,18.99768283027113,37.96044926835144
3.8180076057878836,2.0133420482339752,1801,-15,18.99768283027113,37.96044926835144
3.838135892927309,2.0133219195463714,1801,-15,18.99768283027113,37.96044926835144
3.8582639788310824,2.013301791060007,1801,-15,18.99768283027113,37.96044926835144
3.878391863501223,2.0132816627748804,1801,-15,18.99768283027113,37.96044926835144
3.8985195469397524,2.0132615346909897,1801,-15,18.99768283027113,37.96044926835144
3.918647029148687,2.013241406808332,1801,-15,18.99768283027113,37.96044926835144
3.938774310130044,2.0132212791269066,1801,-15,18.99768283027113,37.96044926835144
3.9589013898858414,2.0132011516467103,1801,-15,18.99768283027113,37.96044926835144
3.9790282684180958,2.013181024367742,1801,-15,18.99768283027113,37.96044926835144
3.9991549457288227,2.013160897289999,1801,-15,18.99768283027113,37.96044926835144
4.01928142182004,2.013140770413479,1801,-15,18.99768283027113,37.96044926835144
4.039407696693761,2.0131206437381812,1801,-15,18.99768283027113,37.96044926835144
4.059533770352002,2.0131005172641028,1801,-15,18.99768283027113,37.96044926835144
4.079659642796779,2.0130803909912416,1801,-15,18.99768283027113,37.96044926835144
4.099785314030105,2.013060264919596,1801,-15,18.99768283027113,37.96044926835144
4.119910784053996,2.013040139049164,1801,-15,18.99768283027113,37.96044926835144
4.140036052870466,2.0130200133799434,1801,-15,18.99768283027113,37.96044926835144
4.160161120481526,2.0129998879119317,1801,-15,18.99768283027113,37.96044926835144
4.180285986889194,2.012979762645128,1801,-15,18.99768283027113,37.96044926835144
4.200410652095481,2.0129596375795296,1801,-15,18.99768283027113,37.96044926835144
4.220535116102403,2.012939512715134,1801,-15,18.99768283027113,37.96044926835144
4.240659378911971,2.0129193880519405,1801,-15,18.99768283027113,37.96044926835144
4.2607834405261995,2.0128992635899463,1801,-15,18.99768283027113,37.96044926835144
4.2809073009471,2.012879139329149,1801,-15,18.99768283027113,37.96044926835144
4.3010309601766865,2.012859015269547,1801,-15,18.99768283027113,37.96044926835144
4.32115441821697,2.0128388914111386,1801,-15,18.99768283027113,37.96044926835144
4.341277675069965,2.0128187677539215,1801,-15,18.99768283027113,37.96044926835144
4.361400730737684,2.012798644297894,1801,-15,18.99768283027113,37.96044926835144
4.381523585222137,2.012778521043053,1801,-15,18.99768283027113,37.96044926835144
4.40164623852534,2.0127583979893977,1801,-15,18.99768283027113,37.96044926835144
4.421768690649303,2.0127382751369254,1801,-15,18.99768283027113,37.96044926835144
4.441890941596038,2.012718152485635,1801,-15,18.99768283027113,37.96044926835144
4.4620129913675575,2.012698030035523,1801,-15,18.99768283027113,37.96044926835144
4.482134839965874,2.0126779077865886,1801,-15,18.99768283027113,37.96044926835144
4.502256487392999,2.012657785738829,1801,-15,18.99768283027113,37.96044926835144
4.522377933650942,2.012637663892243,1801,-15,18.99768283027113,37.96044926835144
4.542499178741719,2.0126175422468284,1801,-15,18.99768283027113,37.96044926835144
4.562620222667337,2.0125974208025825,1801,-15,18.99768283027113,37.96044926835144
4.582741065429811,2.0125772995595037,1801,-15,18.99768283027113,37.96044926835144
4.602861707031153,2.01255717851759,1801,-15,18.99768283027113,37.96044926835144
4.622982147473372,2.01253705767684,1801,-15,18.99768283027113,37.96044926835144
4.643102386758481,2.0125169370372507,1801,-15,18.99768283027113,37.96044926835144
4.66322242488849,2.0124968165988206,1801,-15,18.99768283027113,37.96044926835144
4.683342261865413,2.0124766963615475,1801,-15,18.99768283027113,37.96044926835144
4.703461897691258,2.01245657632543,1801,-15,18.99768283027113,37.96044926835144
4.723581332368039,2.0124364564904647,1801,-15,18.99768283027113,37.96044926835144
4.743700565897767,2.012416336856651,1801,-15,18.99768283027113,37.96044926835144
4.763819598282452,2.0123962174239862,1801,-15,18.99768283027113,37.96044926835144
4.783938429524104,2.0123760981924685,1801,-15,18.99768283027113,37.96044926835144
4.804057059624738,2.0123559791620957,1801,-15,18.99768283027113,37.96044926835144
4.824175488586363,2.012335860332866,1801,-15,18.99768283027113,37.96044926835144
