Vout,Iout,Irradiance,Temperature,MaxVoltage,MaxPower
0.009231061239795772,1.84623,1501,40,22.883436271063367,41.67344519239245
0.027693013028328137,1.84623,1501,40,22.883436271063367,41.67344519239245
0.04615458949001133,1.8462205843157602,1501,40,22.883436271063367,41.67344519239245
0.06461572357282803,1.8462021223639717,1501,40,22.883436271063367,41.67344519239245
0.08307639336301573,1.8461836607884516,1501,40,22.883436271063367,41.67344519239245
0.10153662038685485,1.846165199656215,1501,40,22.883436271063367,41.67344519239245
0.1199964245151154,1.8461467389882709,1501,40,22.883436271063367,41.67344519239245
0.13845582409002566,1.8461282787630933,1501,40,22.883436271063367,41.67344519239245
0.15691483604267592,1.846109818960811,1501,40,22.883436271063367,41.67344519239245
0.1753734760015939,1.8460913595630821,1501,40,22.883436271063367,41.67344519239245
0.19383175839296557,1.8460729005529755,1501,40,22.883436271063367,41.67344519239245
0.21228969653314556,1.8460544419148626,1501,40,22.883436271063367,41.67344519239245
0.23074730271404909,1.846035983634317,1501,40,22.883436271063367,41.67344519239245
0.2492045882819741,1.8460175256980227,1501,40,22.883436271063367,41.67344519239245
0.26766156371035843,1.8459990680936875,1501,40,22.883436271063367,41.67344519239245
0.28611823866693914,1.8459806108099654,1501,40,22.883436271063367,41.67344519239245
0.3045746220757442,1.8459621538363828,1501,40,22.883436271063367,41.67344519239245
0.32303072217431494,1.8459436971632721,1501,40,22.883436271063367,41.67344519239245
0.341486546566525,1.8459252407817088,1501,40,22.883436271063367,41.67344519239245
0.3599421022713363,1.845906784683456,1501,40,22.883436271063367,41.67344519239245
0.3783973957678023,1.8458883288609094,1501,40,22.883436271063367,41.67344519239245
0.3968524330366101,1.8458698733070502,1501,40,22.883436271063367,41.67344519239245
0.41530721959842515,1.8458514180153993,1501,40,22.883436271063367,41.67344519239245
0.4337617605492864,1.8458329629799761,1501,40,22.883436271063367,41.67344519239245
0.452216060593277,1.8458145081952597,1501,40,22.883436271063367,41.67344519239245
0.4706701240726827,1.8457960536561544,1501,40,22.883436271063367,41.67344519239245
0.4891239549958289,1.845777599357956,1501,40,22.883436271063367,41.67344519239245
0.507577557062776,1.845759145296322,1501,40,22.883436271063367,41.67344519239245
0.5260309336890377,1.8457406914672443,1501,40,22.883436271063367,41.67344519239245
0.5444840880274752,1.8457222378670228,1501,40,22.883436271063367,41.67344519239245
0.5629370229885046,1.845703784492242,1501,40,22.883436271063367,41.67344519239245
0.5813897412587523,1.8456853313397488,1501,40,22.883436271063367,41.67344519239245
0.5998422453182736,1.845666878406633,1501,40,22.883436271063367,41.67344519239245
0.6182945374564462,1.8456484256902081,1501,40,22.883436271063367,41.67344519239245
0.6367466197866412,1.845629973187994,1501,40,22.883436271063367,41.67344519239245
0.6551984942597656,1.845611520897701,1501,40,22.883436271063367,41.67344519239245
0.6736501626767626,1.8455930688172162,1501,40,22.883436271063367,41.67344519239245
0.6921016267001495,1.8455746169445881,1501,40,22.883436271063367,41.67344519239245
0.7105528878646691,1.8455561652780164,1501,40,22.883436271063367,41.67344519239245
0.7290039475871207,1.8455377138158382,1501,40,22.883436271063367,41.67344519239245
0.7474548071754343,1.8455192625565189,1501,40,22.883436271063367,41.67344519239245
0.7659054678370479,1.8455008114986415,1501,40,22.883436271063367,41.67344519239245
0.784355930686639,1.8454823606408983,1501,40,22.883436271063367,41.67344519239245
0.802806196753262,1.8454639099820818,1501,40,22.883436271063367,41.67344519239245
0.8212562669869362,1.8454454595210774,1501,40,22.883436271063367,41.67344519239245
0.8397061422647267,1.8454270092568559,1501,40,22.883436271063367,41.67344519239245
0.8581558233963581,1.8454085591884672,1501,40,22.883436271063367,41.67344519239245
0.8766053111293947,1.8453901093150344,1501,40,22.883436271063367,41.67344519239245
0.8950546061540243,1.8453716596357477,1501,40,22.883436271063367,41.67344519239245
0.9135037091074724,1.8453532101498598,1501,40,22.883436271063367,41.67344519239245
0.9319526205780773,1.8453347608566801,1501,40,22.883436271063367,41.67344519239245
0.9504013411090514,1.8453163117555715,1501,40,22.883436271063367,41.67344519239245
0.9688498712019533,1.8452978628459458,1501,40,22.883436271063367,41.67344519239245
0.9872982113198927,1.8452794141272597,1501,40,22.883436271063367,41.67344519239245
1.0057463618904892,1.8452609655990118,1501,40,22.883436271063367,41.67344519239245
1.024194323308602,1.8452425172607387,1501,40,22.883436271063367,41.67344519239245
1.0426420959388507,1.845224069112013,1501,40,22.883436271063367,41.67344519239245
1.0610896801179444,1.8452056211524397,1501,40,22.883436271063367,41.67344519239245
1.0795370761568244,1.8451871733816543,1501,40,22.883436271063367,41.67344519239245
1.0979842843426517,1.84516872579932,1501,40,22.883436271063367,41.67344519239245
1.1164313049406327,1.845150278405126,1501,40,22.883436271063367,41.67344519239245
1.1348781381957123,1.8451318311987848,1501,40,22.883436271063367,41.67344519239245
1.1533247843341288,1.8451133841800316,1501,40,22.883436271063367,41.67344519239245
1.1717712435648566,1.8450949373486212,1501,40,22.883436271063367,41.67344519239245
1.190217516080933,1.8450764907043276,1501,40,22.883436271063367,41.67344519239245
1.2086636020606836,1.8450580442469415,1501,40,22.883436271063367,41.67344519239245
1.2271095016688556,1.84503959797627,1501,40,22.883436271063367,41.67344519239245
1.2455552150576632,1.845021151892135,1501,40,22.883436271063367,41.67344519239245
1.2640007423677495,1.8450027059943714,1501,40,22.883436271063367,41.67344519239245
1.2824460837290783,1.8449842602828272,1501,40,22.883436271063367,41.67344519239245
1.3008912392617564,1.8449658147573618,1501,40,22.883436271063367,41.67344519239245
1.319336209076791,1.8449473694178449,1501,40,22.883436271063367,41.67344519239245
1.3377809932767895,1.8449289242641569,1501,40,22.883436271063367,41.67344519239245
1.3562255919566064,1.8449104792961863,1501,40,22.883436271063367,41.67344519239245
1.3746700052039404,1.8448920345138309,1501,40,22.883436271063367,41.67344519239245
1.3931142330998845,1.8448735899169955,1501,40,22.883436271063367,41.67344519239245
1.411558275719433,1.8448551455055926,1501,40,22.883436271063367,41.67344519239245
1.430002133131953,1.8448367012795412,1501,40,22.883436271063367,41.67344519239245
1.4484458054016152,1.8448182572387661,1501,40,22.883436271063367,41.67344519239245
1.4668892925877957,1.844799813383198,1501,40,22.883436271063367,41.67344519239245
1.485332594745443,1.8447813697127726,1501,40,22.883436271063367,41.67344519239245
1.5037757119254205,1.844762926227431,1501,40,22.883436271063367,41.67344519239245
1.5222186441748191,1.8447444829271176,1501,40,22.883436271063367,41.67344519239245
1.5406613915372493,1.844726039811782,1501,40,22.883436271063367,41.67344519239245
1.5591039540531064,1.8447075968813769,1501,40,22.883436271063367,41.67344519239245
1.5775463317598213,1.8446891541358588,1501,40,22.883436271063367,41.67344519239245
1.5959885246920853,1.8446707115751872,1501,40,22.883436271063367,41.67344519239245
1.6144305328820627,1.8446522691993248,1501,40,22.883436271063367,41.67344519239245
1.6328723563595853,1.8446338270082367,1501,40,22.883436271063367,41.67344519239245
1.6513139951523306,1.8446153850018912,1501,40,22.883436271063367,41.67344519239245
1.669755449285989,1.8445969431802578,1501,40,22.883436271063367,41.67344519239245
1.6881967187844162,1.8445785015433092,1501,40,22.883436271063367,41.67344519239245
1.7066378036697734,1.8445600600910197,1501,40,22.883436271063367,41.67344519239245
1.725078703962659,1.8445416188233654,1501,40,22.883436271063367,41.67344519239245
1.7435194196822286,1.8445231777403241,1501,40,22.883436271063367,41.67344519239245
1.7619599508463053,1.8445047368418754,1501,40,22.883436271063367,41.67344519239245
1.7804002974714825,1.844486296128,1501,40,22.883436271063367,41.67344519239245
1.798840459573219,1.84446785559868,1501,40,22.883436271063367,41.67344519239245
1.8172804371659266,1.844449415253899,1501,40,22.883436271063367,41.67344519239245
1.8357202302630489,1.8444309750936412,1501,40,22.883436271063367,41.67344519239245
1.8541598388771372,1.8444125351178926,1501,40,22.883436271063367,41.67344519239245
1.8725992630199195,1.8443940953266396,1501,40,22.883436271063367,41.67344519239245
1.8910385027023628,1.8443756557198694,1501,40,22.883436271063367,41.67344519239245
1.9094775579347314,1.8443572162975705,1501,40,22.883436271063367,41.67344519239245
1.9279164287266433,1.8443387770597321,1501,40,22.883436271063367,41.67344519239245
1.9463551150871166,1.8443203380063438,1501,40,22.883436271063367,41.67344519239245
1.9647936170246183,1.8443018991373956,1501,40,22.883436271063367,41.67344519239245
1.9832319345471048,1.844283460452879,1501,40,22.883436271063367,41.67344519239245
2.001670067662064,1.8442650219527854,1501,40,22.883436271063367,41.67344519239245
2.020108016376547,1.844246583637107,1501,40,22.883436271063367,41.67344519239245
2.0385457806972056,1.8442281455058358,1501,40,22.883436271063367,41.67344519239245
2.0569833606303223,1.8442097075589652,1501,40,22.883436271063367,41.67344519239245
2.0754207561818356,1.8441912697964882,1501,40,22.883436271063367,41.67344519239245
2.0938579673573714,1.844172832218399,1501,40,22.883436271063367,41.67344519239245
2.1122949941622626,1.8441543948246912,1501,40,22.883436271063367,41.67344519239245
2.130731836601574,1.8441359576153595,1501,40,22.883436271063367,41.67344519239245
2.1491684946801244,1.8441175205903984,1501,40,22.883436271063367,41.67344519239245
2.167604968402501,1.8440990837498028,1501,40,22.883436271063367,41.67344519239245
2.1860412577730814,1.8440806470935678,1501,40,22.883436271063367,41.67344519239245
2.2044773627960463,1.844062210621689,1501,40,22.883436271063367,41.67344519239245
2.2229132834753997,1.8440437743341622,1501,40,22.883436271063367,41.67344519239245
2.2413490198149755,1.844025338230983,1501,40,22.883436271063367,41.67344519239245
2.2597845718184573,1.8440069023121473,1501,40,22.883436271063367,41.67344519239245
2.2782199394893854,1.8439884665776511,1501,40,22.883436271063367,41.67344519239245
2.2966551228311713,1.8439700310274914,1501,40,22.883436271063367,41.67344519239245
2.315090121847103,1.843951595661664,1501,40,22.883436271063367,41.67344519239245
2.3335249365403605,1.8439331604801659,1501,40,22.883436271063367,41.67344519239245
2.351959566914018,1.8439147254829933,1501,40,22.883436271063367,41.67344519239245
2.3703940129710563,1.8438962906701437,1501,40,22.883436271063367,41.67344519239245
2.3888282747143688,1.8438778560416134,1501,40,22.883436271063367,41.67344519239245
2.407262352146768,1.8438594215974,1501,40,22.883436271063367,41.67344519239245
2.4256962452709905,1.8438409873375001,1501,40,22.883436271063367,41.67344519239245
2.4441299540897057,1.843822553261911,1501,40,22.883436271063367,41.67344519239245
2.462563478605518,1.8438041193706303,1501,40,22.883436271063367,41.67344519239245
2.480996818820975,1.843785685663655,1501,40,22.883436271063367,41.67344519239245
2.499429974738568,1.8437672521409827,1501,40,22.883436271063367,41.67344519239245
2.517862946360739,1.8437488188026105,1501,40,22.883436271063367,41.67344519239245
2.5362957336898853,1.8437303856485363,1501,40,22.883436271063367,41.67344519239245
2.554728336728359,1.8437119526787573,1501,40,22.883436271063367,41.67344519239245
2.573160755478475,1.8436935198932716,1501,40,22.883436271063367,41.67344519239245
2.5915929899425105,1.8436750872920764,1501,40,22.883436271063367,41.67344519239245
2.6100250401227107,1.8436566548751696,1501,40,22.883436271063367,41.67344519239245
2.6284569060212877,1.8436382226425487,1501,40,22.883436271063367,41.67344519239245
2.646888587640428,1.8436197905942118,1501,40,22.883436271063367,41.67344519239245
2.6653200849822882,1.8436013587301565,1501,40,22.883436271063367,41.67344519239245
2.683751398049003,1.8435829270503805,1501,40,22.883436271063367,41.67344519239245
2.702182526842684,1.8435644955548818,1501,40,22.883436271063367,41.67344519239245
2.720613471365423,1.8435460642436583,1501,40,22.883436271063367,41.67344519239245
2.7390442316192907,1.8435276331167079,1501,40,22.883436271063367,41.67344519239245
2.7574748076063416,1.8435092021740282,1501,40,22.883436271063367,41.67344519239245
2.7759051993286126,1.8434907714156175,1501,40,22.883436271063367,41.67344519239245
2.7943354067881274,1.8434723408414735,1501,40,22.883436271063367,41.67344519239245
2.812765429986894,1.8434539104515943,1501,40,22.883436271063367,41.67344519239245
2.831195268926908,1.8434354802459778,1501,40,22.883436271063367,41.67344519239245
2.8496249236101554,1.843417050224622,1501,40,22.883436271063367,41.67344519239245
2.8680543940386065,1.843398620387525,1501,40,22.883436271063367,41.67344519239245
2.8864836802142264,1.843380190734685,1501,40,22.883436271063367,41.67344519239245
2.904912782138969,1.8433617612660993,1501,40,22.883436271063367,41.67344519239245
2.9233416998147783,1.8433433319817667,1501,40,22.883436271063367,41.67344519239245
2.941770433243591,1.843324902881685,1501,40,22.883436271063367,41.67344519239245
2.9601989824273396,1.843306473965852,1501,40,22.883436271063367,41.67344519239245
2.978627347367944,1.8432880452342661,1501,40,22.883436271063367,41.67344519239245
2.9970555280673223,1.8432696166869253,1501,40,22.883436271063367,41.67344519239245
3.015483524527386,1.8432511883238276,1501,40,22.883436271063367,41.67344519239245
3.033911336750041,1.843232760144971,1501,40,22.883436271063367,41.67344519239245
3.052338964737186,1.8432143321503538,1501,40,22.883436271063367,41.67344519239245
3.070766408490719,1.843195904339974,1501,40,22.883436271063367,41.67344519239245
3.089193668012532,1.8431774767138296,1501,40,22.883436271063367,41.67344519239245
3.107620743304512,1.843159049271919,1501,40,22.883436271063367,41.67344519239245
3.126047634368545,1.84314062201424,1501,40,22.883436271063367,41.67344519239245
3.1444743412065113,1.8431221949407905,1501,40,22.883436271063367,41.67344519239245
3.1629008638202896,1.8431037680515694,1501,40,22.883436271063367,41.67344519239245
3.181327202211755,1.843085341346574,1501,40,22.883436271063367,41.67344519239245
3.1997533563827805,1.843066914825803,1501,40,22.883436271063367,41.67344519239245
3.218179326335236,1.8430484884892542,1501,40,22.883436271063367,41.67344519239245
3.23660511207099,1.8430300623369258,1501,40,22.883436271063367,41.67344519239245
3.2550307135919097,1.843011636368816,1501,40,22.883436271063367,41.67344519239245
3.273456130899857,1.8429932105849227,1501,40,22.883436271063367,41.67344519239245
3.2918813639966964,1.8429747849852445,1501,40,22.883436271063367,41.67344519239245
3.3103064128842887,1.842956359569779,1501,40,22.883436271063367,41.67344519239245
3.3287312775644917,1.8429379343385248,1501,40,22.883436271063367,41.67344519239245
3.347155958039164,1.8429195092914799,1501,40,22.883436271063367,41.67344519239245
3.3655804543101633,1.8429010844286422,1501,40,22.883436271063367,41.67344519239245
3.3840047663793444,1.8428826597500099,1501,40,22.883436271063367,41.67344519239245
3.4024288942485614,1.8428642352555815,1501,40,22.883436271063367,41.67344519239245
3.420852837919668,1.8428458109453547,1501,40,22.883436271063367,41.67344519239245
3.4392765973945165,1.842827386819328,1501,40,22.883436271063367,41.67344519239245
3.4577001726749597,1.8428089628774993,1501,40,22.883436271063367,41.67344519239245
3.4761235637628465,1.842790539119867,1501,40,22.883436271063367,41.67344519239245
3.494546770660029,1.8427721155464287,1501,40,22.883436271063367,41.67344519239245
3.5129697933683546,1.8427536921571832,1501,40,22.883436271063367,41.67344519239245
3.5313926318896733,1.8427352689521284,1501,40,22.883436271063367,41.67344519239245
3.5498152862258343,1.8427168459312624,1501,40,22.883436271063367,41.67344519239245
3.5682377563786845,1.8426984230945835,1501,40,22.883436271063367,41.67344519239245
3.5866600423500694,1.8426800004420896,1501,40,22.883436271063367,41.67344519239245
3.6050821441418375,1.842661577973779,1501,40,22.883436271063367,41.67344519239245
3.6235040617558343,1.8426431556896499,1501,40,22.883436271063367,41.67344519239245
3.6419257951939064,1.8426247335897004,1501,40,22.883436271063367,41.67344519239245
3.660347344457899,1.8426063116739286,1501,40,22.883436271063367,41.67344519239245
3.678768709549657,1.8425878899423327,1501,40,22.883436271063367,41.67344519239245
3.697189890471025,1.842569468394911,1501,40,22.883436271063367,41.67344519239245
3.7156108872238485,1.8425510470316613,1501,40,22.883436271063367,41.67344519239245
3.734031699809971,1.8425326258525823,1501,40,22.883436271063367,41.67344519239245
3.7524523282312368,1.8425142048576715,1501,40,22.883436271063367,41.67344519239245
3.7708727724894895,1.8424957840469274,1501,40,22.883436271063367,41.67344519239245
3.789293032586573,1.8424773634203484,1501,40,22.883436271063367,41.67344519239245
3.8077131085243305,1.8424589429779321,1501,40,22.883436271063367,41.67344519239245
3.8261330003046057,1.8424405227196772,1501,40,22.883436271063367,41.67344519239245
3.8445527079292416,1.8424221026455814,1501,40,22.883436271063367,41.67344519239245
3.86297223140008,1.8424036827556431,1501,40,22.883436271063367,41.67344519239245
3.8813915707189643,1.8423852630498605,1501,40,22.883436271063367,41.67344519239245
3.8998107258877384,1.8423668435282317,1501,40,22.883436271063367,41.67344519239245
3.9182296969082424,1.8423484241907548,1501,40,22.883436271063367,41.67344519239245
3.93664848378232,1.842330005037428,1501,40,22.883436271063367,41.67344519239245
3.9550670865118125,1.8423115860682493,1501,40,22.883436271063367,41.67344519239245
3.9734855050985622,1.8422931672832172,1501,40,22.883436271063367,41.67344519239245
3.991903739544412,1.8422747486823297,1501,40,22.883436271063367,41.67344519239245
4.010321789851203,1.8422563302655848,1501,40,22.883436271063367,41.67344519239245
4.028739656020777,1.8422379120329808,1501,40,22.883436271063367,41.67344519239245
4.047157338054976,1.8422194939845158,1501,40,22.883436271063367,41.67344519239245
4.065574835955643,1.8422010761201881,1501,40,22.883436271063367,41.67344519239245
4.083992149724615,1.8421826584399956,1501,40,22.883436271063367,41.67344519239245
4.10240927936374,1.8421642409439367,1501,40,22.883436271063367,41.67344519239245
4.120826224874854,1.8421458236320096,1501,40,22.883436271063367,41.67344519239245
4.1392429862598,1.8421274065042121,1501,40,22.883436271063367,41.67344519239245
4.157659563520422,1.842108989560543,1501,40,22.883436271063367,41.67344519239245
4.176075956658557,1.8420905728009995,1501,40,22.883436271063367,41.67344519239245
4.194492165676048,1.8420721562255806,1501,40,22.883436271063367,41.67344519239245
4.212908190574738,1.8420537398342842,1501,40,22.883436271063367,41.67344519239245
4.231324031356466,1.8420353236271083,1501,40,22.883436271063367,41.67344519239245
4.249739688023073,1.8420169076040513,1501,40,22.883436271063367,41.67344519239245
4.2681551605764,1.841998491765111,1501,40,22.883436271063367,41.67344519239245
4.286570449018289,1.8419800761102862,1501,40,22.883436271063367,41.67344519239245
4.304985553350581,1.8419616606395746,1501,40,22.883436271063367,41.67344519239245
4.3234004735751155,1.841943245352974,1501,40,22.883436271063367,41.67344519239245
4.341815209693734,1.8419248302504834,1501,40,22.883436271063367,41.67344519239245
4.360229761708278,1.8419064153321003,1501,40,22.883436271063367,41.67344519239245
4.378644129620588,1.8418880005978233,1501,40,22.883436271063367,41.67344519239245
4.397058313432503,1.8418695860476502,1501,40,22.883436271063367,41.67344519239245
