Vout,Iout,Irradiance,Temperature,MaxVoltage,MaxPower
0.0036360150383169393,0.7272099999999999,601,30,22.287810940258385,15.711485060471091
0.010907977881591407,0.7272099999999999,601,30,22.287810940258385,15.711485060471091
0.01817979288768525,0.7272062912639616,601,30,22.287810940258385,15.711485060471091
0.0254514336455351,0.7271990193011183,601,30,22.287810940258385,15.711485060471091
0.032722891523547265,0.7271917474864831,601,30,22.287810940258385,15.711485060471091
0.03999417500069043,0.7271844758464524,601,30,22.287810940258385,15.711485060471091
0.04726529190384569,0.7271772043893017,601,30,22.287810940258385,15.711485060471091
0.0545362494578181,0.7271699331065516,601,30,22.287810940258385,15.711485060471091
0.06180705433158075,0.7271626619903756,601,30,22.287810940258385,15.711485060471091
0.06907771268104139,0.7271553910335488,601,30,22.287810940258385,15.711485060471091
0.07634823018851845,0.7271481202294021,601,30,22.287810940258385,15.711485060471091
0.0836186120991798,0.7271408495717797,601,30,22.287810940258385,15.711485060471091
0.09088886325467768,0.7271335790549994,601,30,22.287810940258385,15.711485060471091
0.09815898812419596,0.7271263086738158,601,30,22.287810940258385,15.711485060471091
0.10542899083310839,0.7271190384233873,601,30,22.287810940258385,15.711485060471091
0.11269887518943182,0.7271117682992448,601,30,22.287810940258385,15.711485060471091
0.11996864470824428,0.727104498297263,601,30,22.287810940258385,15.711485060471091
0.12723830263422403,0.7270972284136337,601,30,22.287810940258385,15.711485060471091
0.1345078519624546,0.7270899586448418,601,30,22.287810940258385,15.711485060471091
0.141777295457629,0.7270826889876428,601,30,22.287810940258385,15.711485060471091
0.14904663567177623,0.7270754194390416,601,30,22.287810940258385,15.711485060471091
0.15631587496062418,0.7270681499962733,601,30,22.287810940258385,15.711485060471091
0.1635850154987032,0.7270608806567862,601,30,22.287810940258385,15.711485060471091
0.1708540592932877,0.7270536114182243,601,30,22.287810940258385,15.711485060471091
0.17812300819726523,0.7270463422784131,601,30,22.287810940258385,15.711485060471091
0.18539186392101503,0.7270390732353454,601,30,22.287810940258385,15.711485060471091
0.1926606280433731,0.7270318042871684,601,30,22.287810940258385,15.711485060471091
0.1999293020217531,0.7270245354321716,601,30,22.287810940258385,15.711485060471091
0.20719788720148902,0.7270172666687761,601,30,22.287810940258385,15.711485060471091
0.21446638482445848,0.7270099979955246,601,30,22.287810940258385,15.711485060471091
0.2217347960370431,0.7270027294110718,601,30,22.287810940258385,15.711485060471091
0.229003121897476,0.7269954609141757,601,30,22.287810940258385,15.711485060471091
0.23627136338262383,0.72698819250369,601,30,22.287810940258385,15.711485060471091
0.24353952139424778,0.7269809241785563,601,30,22.287810940258385,15.711485060471091
0.25080759676478187,0.7269736559377981,601,30,22.287810940258385,15.711485060471091
0.25807559026266724,0.7269663877805133,601,30,22.287810940258385,15.711485060471091
0.2653435025972757,0.7269591197058696,601,30,22.287810940258385,15.711485060471091
0.2726113344234551,0.7269518517130985,601,30,22.287810940258385,15.711485060471091
0.27987908634572395,0.7269445838014906,601,30,22.287810940258385,15.711485060471091
0.287146758922144,0.7269373159703912,601,30,22.287810940258385,15.711485060471091
0.2944143526678948,0.7269300482191958,601,30,22.287810940258385,15.711485060471091
0.301681868058573,0.7269227805473462,601,30,22.287810940258385,15.711485060471091
0.30894930553323824,0.7269155129543272,601,30,22.287810940258385,15.711485060471091
0.3162166654972237,0.7269082454396633,601,30,22.287810940258385,15.711485060471091
0.32348394832473176,0.7269009780029154,601,30,22.287810940258385,15.711485060471091
0.3307511543612289,0.7268937106436781,601,30,22.287810940258385,15.711485060471091
0.33801828392565675,0.7268864433615774,601,30,22.287810940258385,15.711485060471091
0.34528533731247285,0.7268791761562676,601,30,22.287810940258385,15.711485060471091
0.3525523147935347,0.7268719090274299,601,30,22.287810940258385,15.711485060471091
0.35981921661983857,0.7268646419747699,601,30,22.287810940258385,15.711485060471091
0.3670860430231244,0.7268573749980155,601,30,22.287810940258385,15.711485060471091
0.3743527942173578,0.7268501080969159,601,30,22.287810940258385,15.711485060471091
0.38161947040009736,0.7268428412712393,601,30,22.287810940258385,15.711485060471091
0.3888860717537568,0.7268355745207717,601,30,22.287810940258385,15.711485060471091
0.39615259844677086,0.7268283078453157,601,30,22.287810940258385,15.711485060471091
0.40341905063467043,0.7268210412446887,601,30,22.287810940258385,15.711485060471091
0.41068542846107536,0.7268137747187223,601,30,22.287810940258385,15.711485060471091
0.41795173205861114,0.7268065082672611,601,30,22.287810940258385,15.711485060471091
0.42521796154975466,0.7267992418901613,601,30,22.287810940258385,15.711485060471091
0.43248411704761536,0.7267919755872905,601,30,22.287810940258385,15.711485060471091
0.4397501986566554,0.726784709358526,601,30,22.287810940258385,15.711485060471091
0.44701620647335555,0.7267774432037547,601,30,22.287810940258385,15.711485060471091
0.454282140586829,0.7267701771228723,601,30,22.287810940258385,15.711485060471091
0.46154800107938815,0.7267629111157823,601,30,22.287810940258385,15.711485060471091
0.46881378802706836,0.7267556451823953,601,30,22.287810940258385,15.711485060471091
0.4760795015001103,0.7267483793226294,601,30,22.287810940258385,15.711485060471091
0.4833451415634063,0.7267411135364084,601,30,22.287810940258385,15.711485060471091
0.4906107082769115,0.7267338478236619,601,30,22.287810940258385,15.711485060471091
0.49787620169602376,0.7267265821843252,601,30,22.287810940258385,15.711485060471091
0.5051416218719348,0.7267193166183382,601,30,22.287810940258385,15.711485060471091
0.5124069688519529,0.7267120511256456,601,30,22.287810940258385,15.711485060471091
0.5196722426798026,0.7267047857061963,601,30,22.287810940258385,15.711485060471091
0.5269374433959003,0.7266975203599428,601,30,22.287810940258385,15.711485060471091
0.5342025710376078,0.7266902550868415,601,30,22.287810940258385,15.711485060471091
0.5414676256394689,0.726682989886852,601,30,22.287810940258385,15.711485060471091
0.5487326072334249,0.7266757247599368,601,30,22.287810940258385,15.711485060471091
0.5559975158490156,0.7266684597060614,601,30,22.287810940258385,15.711485060471091
0.5632623515135636,0.726661194725194,601,30,22.287810940258385,15.711485060471091
0.5705271142523454,0.7266539298173049,601,30,22.287810940258385,15.711485060471091
0.5777918040887484,0.7266466649823669,601,30,22.287810940258385,15.711485060471091
0.5850564210444164,0.7266394002203546,601,30,22.287810940258385,15.711485060471091
0.5923209651393836,0.7266321355312446,601,30,22.287810940258385,15.711485060471091
0.5995854363921989,0.7266248709150155,601,30,22.287810940258385,15.711485060471091
0.6068498348200398,0.726617606371647,601,30,22.287810940258385,15.711485060471091
0.6141141604388178,0.7266103419011206,601,30,22.287810940258385,15.711485060471091
0.6213784132632764,0.7266030775034192,601,30,22.287810940258385,15.711485060471091
0.6286425933070799,0.726595813178527,601,30,22.287810940258385,15.711485060471091
0.635906700582898,0.7265885489264289,601,30,22.287810940258385,15.711485060471091
0.6431707351024806,0.7265812847471115,601,30,22.287810940258385,15.711485060471091
0.65043469687673,0.7265740206405621,601,30,22.287810940258385,15.711485060471091
0.657698585915765,0.726566756606769,601,30,22.287810940258385,15.711485060471091
0.6649624022289823,0.7265594926457212,601,30,22.287810940258385,15.711485060471091
0.672226145825111,0.7265522287574084,601,30,22.287810940258385,15.711485060471091
0.6794898167122643,0.7265449649418216,601,30,22.287810940258385,15.711485060471091
0.6867534148979877,0.7265377011989519,601,30,22.287810940258385,15.711485060471091
0.6940169403893015,0.7265304375287912,601,30,22.287810940258385,15.711485060471091
0.7012803931927416,0.7265231739313318,601,30,22.287810940258385,15.711485060471091
0.7085437733143972,0.7265159104065668,601,30,22.287810940258385,15.711485060471091
0.7158070807599445,0.7265086469544898,601,30,22.287810940258385,15.711485060471091
0.723070315534679,0.7265013835750945,601,30,22.287810940258385,15.711485060471091
0.7303334776435448,0.7264941202683752,601,30,22.287810940258385,15.711485060471091
0.7375965670911611,0.7264868570343269,601,30,22.287810940258385,15.711485060471091
0.7448595838818478,0.7264795938729444,601,30,22.287810940258385,15.711485060471091
0.752122528019648,0.726472330784223,601,30,22.287810940258385,15.711485060471091
0.7593853995083499,0.7264650677681587,601,30,22.287810940258385,15.711485060471091
0.766648198351506,0.7264578048247472,601,30,22.287810940258385,15.711485060471091
0.7739109245524509,0.7264505419539848,601,30,22.287810940258385,15.711485060471091
0.7811735781143188,0.7264432791558679,601,30,22.287810940258385,15.711485060471091
0.788436159040059,0.7264360164303932,601,30,22.287810940258385,15.711485060471091
0.7956986673324491,0.7264287537775577,601,30,22.287810940258385,15.711485060471091
0.8029611029941092,0.7264214911973582,601,30,22.287810940258385,15.711485060471091
0.8102234660275133,0.7264142286897921,601,30,22.287810940258385,15.711485060471091
0.8174857564350012,0.7264069662548567,601,30,22.287810940258385,15.711485060471091
0.8247479742187883,0.7263997038925495,601,30,22.287810940258385,15.711485060471091
0.8320101193809754,0.7263924416028683,601,30,22.287810940258385,15.711485060471091
0.8392721919235581,0.7263851793858107,601,30,22.287810940258385,15.711485060471091
0.8465341918484333,0.7263779172413748,601,30,22.287810940258385,15.711485060471091
0.8537961191574085,0.7263706551695585,601,30,22.287810940258385,15.711485060471091
0.861057973852208,0.7263633931703598,601,30,22.287810940258385,15.711485060471091
0.8683197559344786,0.726356131243777,601,30,22.287810940258385,15.711485060471091
0.8755814654057971,0.7263488693898084,601,30,22.287810940258385,15.711485060471091
0.8828431022676739,0.7263416076084523,601,30,22.287810940258385,15.711485060471091
0.89010466652156,0.7263343458997071,601,30,22.287810940258385,15.711485060471091
0.8973661581688499,0.7263270842635715,601,30,22.287810940258385,15.711485060471091
0.904627577210887,0.7263198227000438,601,30,22.287810940258385,15.711485060471091
0.9118889236489668,0.7263125612091227,601,30,22.287810940258385,15.711485060471091
0.9191501974843412,0.7263052997908067,601,30,22.287810940258385,15.711485060471091
0.9264113987182219,0.7262980384450948,601,30,22.287810940258385,15.711485060471091
0.9336725273517827,0.7262907771719856,601,30,22.287810940258385,15.711485060471091
0.9409335833861632,0.7262835159714779,601,30,22.287810940258385,15.711485060471091
0.948194566822471,0.7262762548435704,601,30,22.287810940258385,15.711485060471091
0.9554554776617845,0.7262689937882622,601,30,22.287810940258385,15.711485060471091
0.962716315905155,0.726261732805552,601,30,22.287810940258385,15.711485060471091
0.9699770815536084,0.7262544718954388,601,30,22.287810940258385,15.711485060471091
0.9772377746081479,0.7262472110579214,601,30,22.287810940258385,15.711485060471091
0.9844983950697549,0.7262399502929991,601,30,22.287810940258385,15.711485060471091
0.9917589429393916,0.7262326896006707,601,30,22.287810940258385,15.711485060471091
0.9990194182180014,0.7262254289809351,601,30,22.287810940258385,15.711485060471091
1.0062798209065118,0.7262181684337916,601,30,22.287810940258385,15.711485060471091
1.0135401510058342,0.726210907959239,601,30,22.287810940258385,15.711485060471091
1.0208004085168656,0.7262036475572765,601,30,22.287810940258385,15.711485060471091
1.0280605934404898,0.7261963872279033,601,30,22.287810940258385,15.711485060471091
1.0353207057775793,0.7261891269711183,601,30,22.287810940258385,15.711485060471091
1.0425807455289944,0.7261818667869206,601,30,22.287810940258385,15.711485060471091
1.0498407126955847,0.7261746066753096,601,30,22.287810940258385,15.711485060471091
1.057100607278191,0.7261673466362842,601,30,22.287810940258385,15.711485060471091
1.0643604292776456,0.7261600866698437,601,30,22.287810940258385,15.711485060471091
1.0716201786947717,0.726152826775987,601,30,22.287810940258385,15.711485060471091
1.0788798555303853,0.7261455669547136,601,30,22.287810940258385,15.711485060471091
1.0861394597852954,0.7261383072060225,601,30,22.287810940258385,15.711485060471091
1.093398991460305,0.7261310475299129,601,30,22.287810940258385,15.711485060471091
1.1006584505562107,0.7261237879263839,601,30,22.287810940258385,15.711485060471091
1.1079178370738034,0.7261165283954348,601,30,22.287810940258385,15.711485060471091
1.115177151013869,0.726109268937065,601,30,22.287810940258385,15.711485060471091
1.12243639237719,0.7261020095512732,601,30,22.287810940258385,15.711485060471091
1.1296955611645432,0.7260947502380591,601,30,22.287810940258385,15.711485060471091
1.136954657376701,0.7260874909974218,601,30,22.287810940258385,15.711485060471091
1.1442136810144339,0.7260802318293603,601,30,22.287810940258385,15.711485060471091
1.1514726320785078,0.7260729727338742,601,30,22.287810940258385,15.711485060471091
1.1587315105696858,0.7260657137109623,601,30,22.287810940258385,15.711485060471091
1.1659903164887278,0.7260584547606241,601,30,22.287810940258385,15.711485060471091
1.1732490498363914,0.7260511958828588,601,30,22.287810940258385,15.711485060471091
1.1805077106134318,0.7260439370776657,601,30,22.287810940258385,15.711485060471091
1.1877662988206013,0.7260366783450439,601,30,22.287810940258385,15.711485060471091
1.1950248144586508,0.7260294196849928,601,30,22.287810940258385,15.711485060471091
1.2022832575283289,0.7260221610975115,601,30,22.287810940258385,15.711485060471091
1.2095416280303826,0.7260149025825993,601,30,22.287810940258385,15.711485060471091
1.2167999259655573,0.7260076441402554,601,30,22.287810940258385,15.711485060471091
1.2240581513345965,0.7260003857704793,601,30,22.287810940258385,15.711485060471091
1.2313163041382424,0.7259931274732699,601,30,22.287810940258385,15.711485060471091
1.238574384377236,0.7259858692486267,601,30,22.287810940258385,15.711485060471091
1.2458323920523175,0.7259786110965489,601,30,22.287810940258385,15.711485060471091
1.2530903271642255,0.7259713530170357,601,30,22.287810940258385,15.711485060471091
1.2603481897136974,0.7259640950100865,601,30,22.287810940258385,15.711485060471091
1.26760597970147,0.7259568370757004,601,30,22.287810940258385,15.711485060471091
1.2748636971282794,0.7259495792138767,601,30,22.287810940258385,15.711485060471091
1.2821213419948603,0.7259423214246148,601,30,22.287810940258385,15.711485060471091
1.289378914301947,0.7259350637079137,601,30,22.287810940258385,15.711485060471091
1.2966364140502735,0.7259278060637729,601,30,22.287810940258385,15.711485060471091
1.3038938412405725,0.7259205484921916,601,30,22.287810940258385,15.711485060471091
1.3111511958735764,0.725913290993169,601,30,22.287810940258385,15.711485060471091
1.3184084779500167,0.7259060335667045,601,30,22.287810940258385,15.711485060471091
1.3256656874706256,0.7258987762127972,601,30,22.287810940258385,15.711485060471091
1.332922824436133,0.7258915189314465,601,30,22.287810940258385,15.711485060471091
1.34017988884727,0.7258842617226516,601,30,22.287810940258385,15.711485060471091
1.3474368807047665,0.7258770045864119,601,30,22.287810940258385,15.711485060471091
1.354693800009352,0.7258697475227265,601,30,22.287810940258385,15.711485060471091
1.3619506467617564,0.7258624905315947,601,30,22.287810940258385,15.711485060471091
1.3692074209627079,0.7258552336130158,601,30,22.287810940258385,15.711485060471091
1.376464122612935,0.7258479767669891,601,30,22.287810940258385,15.711485060471091
1.3837207517131673,0.7258407199935138,601,30,22.287810940258385,15.711485060471091
1.3909773082641328,0.7258334632925894,601,30,22.287810940258385,15.711485060471091
1.398233792266559,0.7258262066642147,601,30,22.287810940258385,15.711485060471091
1.4054902037211736,0.7258189501083895,601,30,22.287810940258385,15.711485060471091
1.412746542628705,0.7258116936251127,601,30,22.287810940258385,15.711485060471091
1.4200028089898795,0.7258044372143837,601,30,22.287810940258385,15.711485060471091
1.4272590028054253,0.7257971808762018,601,30,22.287810940258385,15.711485060471091
1.4345151240760692,0.7257899246105664,601,30,22.287810940258385,15.711485060471091
1.4417711728025373,0.7257826684174764,601,30,22.287810940258385,15.711485060471091
1.4490271489855577,0.7257754122969314,601,30,22.287810940258385,15.711485060471091
1.4562830526258563,0.7257681562489305,601,30,22.287810940258385,15.711485060471091
1.4635388837241599,0.7257609002734732,601,30,22.287810940258385,15.711485060471091
1.4707946422811946,0.7257536443705584,601,30,22.287810940258385,15.711485060471091
1.478050328297687,0.7257463885401857,601,30,22.287810940258385,15.711485060471091
1.4853059417743635,0.7257391327823542,601,30,22.287810940258385,15.711485060471091
1.4925614827119504,0.7257318770970633,601,30,22.287810940258385,15.711485060471091
1.4998169511111732,0.7257246214843123,601,30,22.287810940258385,15.711485060471091
1.507072346972758,0.7257173659441003,601,30,22.287810940258385,15.711485060471091
1.514327670297431,0.7257101104764266,601,30,22.287810940258385,15.711485060471091
1.5215829210859186,0.7257028550812905,601,30,22.287810940258385,15.711485060471091
1.5288380993389457,0.7256955997586915,601,30,22.287810940258385,15.711485060471091
1.5360932050572385,0.7256883445086285,601,30,22.287810940258385,15.711485060471091
1.5433482382415227,0.725681089331101,601,30,22.287810940258385,15.711485060471091
1.5506031988925237,0.7256738342261082,601,30,22.287810940258385,15.711485060471091
1.5578580870109673,0.7256665791936494,601,30,22.287810940258385,15.711485060471091
1.5651129025975794,0.7256593242337239,601,30,22.287810940258385,15.711485060471091
1.5723676456530848,0.725652069346331,601,30,22.287810940258385,15.711485060471091
1.57962231617821,0.7256448145314699,601,30,22.287810940258385,15.711485060471091
1.5868769141736796,0.7256375597891399,601,30,22.287810940258385,15.711485060471091
1.5941314396402193,0.7256303051193402,601,30,22.287810940258385,15.711485060471091
1.6013858925785547,0.7256230505220702,601,30,22.287810940258385,15.711485060471091
1.608640272989411,0.7256157959973292,601,30,22.287810940258385,15.711485060471091
1.6158945808735137,0.7256085415451163,601,30,22.287810940258385,15.711485060471091
1.6231488162315881,0.7256012871654309,601,30,22.287810940258385,15.711485060471091
1.6304029790643593,0.7255940328582723,601,30,22.287810940258385,15.711485060471091
1.6376570693725525,0.7255867786236396,601,30,22.287810940258385,15.711485060471091
1.6449110871568933,0.7255795244615323,601,30,22.287810940258385,15.711485060471091
1.6521650324181067,0.7255722703719495,601,30,22.287810940258385,15.711485060471091
1.6594189051569181,0.7255650163548906,601,30,22.287810940258385,15.711485060471091
1.6666727053740524,0.7255577624103547,601,30,22.287810940258385,15.711485060471091
1.6739264330702353,0.7255505085383414,601,30,22.287810940258385,15.711485060471091
1.681180088246191,0.7255432547388496,601,30,22.287810940258385,15.711485060471091
1.6884336709026457,0.7255360010118789,601,30,22.287810940258385,15.711485060471091
1.6956871810403238,0.7255287473574282,601,30,22.287810940258385,15.711485060471091
1.702940618659951,0.7255214937754971,601,30,22.287810940258385,15.711485060471091
1.7101939837622515,0.7255142402660848,601,30,22.287810940258385,15.711485060471091
1.7174472763479516,0.7255069868291906,601,30,22.287810940258385,15.711485060471091
