Vout,Iout,Irradiance,Temperature,MaxVoltage,MaxPower
0.007446128402611515,1.4892400000000001,1201,45,22.8926756679835,33.51285999029239
0.022338247521872898,1.4892400000000001,1201,45,22.8926756679835,33.51285999029239
0.037230063888087875,1.4892324049475976,1201,45,22.8926756679835,33.51285999029239
0.052121523414524966,1.4892175128284781,1201,45,22.8926756679835,33.51285999029239
0.067012608424702,1.4892026210128715,1201,45,22.8926756679835,33.51285999029239
0.08190333628254318,1.4891877295548344,1201,45,22.8926756679835,33.51285999029239
0.09679372301657456,1.4891728384713132,1201,45,22.8926756679835,33.51285999029239
0.1116837834223416,1.4891579477449446,1201,45,22.8926756679835,33.51285999029239
0.12657353115711187,1.4891430573596998,1201,45,22.8926756679835,33.51285999029239
0.1414629788274557,1.489128167300783,1201,45,22.8926756679835,33.51285999029239
0.15635213807008874,1.4891132775545373,1201,45,22.8926756679835,33.51285999029239
0.17124101962649377,1.489098388108356,1201,45,22.8926756679835,33.51285999029239
0.18612963341180155,1.4890834989506023,1201,45,22.8926756679835,33.51285999029239
0.20101798857837164,1.4890686100705348,1201,45,22.8926756679835,33.51285999029239
0.21590609357448104,1.4890537214582384,1201,45,22.8926756679835,33.51285999029239
0.23079395619849766,1.4890388331045608,1201,45,22.8926756679835,33.51285999029239
0.24568158364888512,1.4890239450010534,1201,45,22.8926756679835,33.51285999029239
0.26056898257036043,1.4890090571399184,1201,45,22.8926756679835,33.51285999029239
0.27545615909650023,1.4889941695139568,1201,45,22.8926756679835,33.51285999029239
0.2903431188890683,1.488979282116524,1201,45,22.8926756679835,33.51285999029239
0.3052298671743183,1.4889643949414866,1201,45,22.8926756679835,33.51285999029239
0.3201164087765019,1.488949507983183,1201,45,22.8926756679835,33.51285999029239
0.3350027481487998,1.4889346212363863,1201,45,22.8926756679835,33.51285999029239
0.3498888894018726,1.4889197346962728,1201,45,22.8926756679835,33.51285999029239
0.3647748363302144,1.488904848358389,1201,45,22.8926756679835,33.51285999029239
0.3796605924364797,1.4888899622186247,1201,45,22.8926756679835,33.51285999029239
0.3945461609539376,1.488875076273185,1201,45,22.8926756679835,33.51285999029239
0.40943154486719874,1.4888601905185674,1201,45,22.8926756679835,33.51285999029239
0.424316746931348,1.4888453049515387,1201,45,22.8926756679835,33.51285999029239
0.43920176968960367,1.4888304195691138,1201,45,22.8926756679835,33.51285999029239
0.4540866154896196,1.4888155343685383,1201,45,22.8926756679835,33.51285999029239
0.46897128649853165,1.4888006493472685,1201,45,22.8926756679835,33.51285999029239
0.48385578471684765,1.488785764502957,1201,45,22.8926756679835,33.51285999029239
0.4987401119912675,1.4887708798334367,1201,45,22.8926756679835,33.51285999029239
0.5136242700265176,1.4887559953367069,1201,45,22.8926756679835,33.51285999029239
0.5285082603962741,1.4887411110109208,1201,45,22.8926756679835,33.51285999029239
0.5433920845532473,1.4887262268543742,1201,45,22.8926756679835,33.51285999029239
0.5582757438384872,1.4887113428654928,1201,45,22.8926756679835,33.51285999029239
0.5731592394899767,1.4886964590428242,1201,45,22.8926756679835,33.51285999029239
0.5880425726505599,1.4886815753850273,1201,45,22.8926756679835,33.51285999029239
0.6029257443752638,1.4886666918908642,1201,45,22.8926756679835,33.51285999029239
0.6178087556380542,1.488651808559192,1201,45,22.8926756679835,33.51285999029239
0.6326916073380725,1.4886369253889558,1201,45,22.8926756679835,33.51285999029239
0.6475743003053938,1.4886220423791812,1201,45,22.8926756679835,33.51285999029239
0.6624568353063403,1.4886071595289696,1201,45,22.8926756679835,33.51285999029239
0.6773392130483856,1.4885922768374904,1201,45,22.8926756679835,33.51285999029239
0.6922214341846853,1.4885773943039777,1201,45,22.8926756679835,33.51285999029239
0.7071034993182534,1.4885625119277242,1201,45,22.8926756679835,33.51285999029239
0.7219854090058216,1.488547629708076,1201,45,22.8926756679835,33.51285999029239
0.736867163761401,1.4885327476444308,1201,45,22.8926756679835,33.51285999029239
0.7517487640595673,1.4885178657362312,1201,45,22.8926756679835,33.51285999029239
0.7666302103384965,1.488502983982964,1201,45,22.8926756679835,33.51285999029239
0.7815115030027655,1.488488102384154,1201,45,22.8926756679835,33.51285999029239
0.7963926424259359,1.4884732209393632,1201,45,22.8926756679835,33.51285999029239
0.8112736289529421,1.4884583396481872,1201,45,22.8926756679835,33.51285999029239
0.8261544629022932,1.4884434585102522,1201,45,22.8926756679835,33.51285999029239
0.8410351445681054,1.4884285775252133,1201,45,22.8926756679835,33.51285999029239
0.85591567422198,1.488413696692752,1201,45,22.8926756679835,33.51285999029239
0.8707960521147354,1.4883988160125743,1201,45,22.8926756679835,33.51285999029239
0.885676278478006,1.4883839354844084,1201,45,22.8926756679835,33.51285999029239
0.9005563535257183,1.4883690551080038,1201,45,22.8926756679835,33.51285999029239
0.9154362774554532,1.4883541748831286,1201,45,22.8926756679835,33.51285999029239
0.930316050449704,1.4883392948095688,1201,45,22.8926756679835,33.51285999029239
0.945195672677037,1.488324414887127,1201,45,22.8926756679835,33.51285999029239
0.9600751442931634,1.488309535115621,1201,45,22.8926756679835,33.51285999029239
0.974954465441928,1.4882946554948815,1201,45,22.8926756679835,33.51285999029239
0.9898336362562223,1.4882797760247535,1201,45,22.8926756679835,33.51285999029239
1.0047126568588274,1.4882648967050927,1201,45,22.8926756679835,33.51285999029239
1.0195915273631917,1.4882500175357662,1201,45,22.8926756679835,33.51285999029239
1.0344702478741499,1.4882351385166517,1201,45,22.8926756679835,33.51285999029239
1.0493488184885833,1.4882202596476353,1201,45,22.8926756679835,33.51285999029239
1.0642272392960352,1.4882053809286122,1201,45,22.8926756679835,33.51285999029239
1.0791055103792728,1.4881905023594855,1201,45,22.8926756679835,33.51285999029239
1.0939836318148093,1.488175623940166,1201,45,22.8926756679835,33.51285999029239
1.108861603673386,1.4881607456705706,1201,45,22.8926756679835,33.51285999029239
1.1237394260204152,1.488145867550623,1201,45,22.8926756679835,33.51285999029239
1.1386170989163904,1.4881309895802521,1201,45,22.8926756679835,33.51285999029239
1.1534946224172657,1.4881161117593928,1201,45,22.8926756679835,33.51285999029239
1.1683719965748038,1.4881012340879847,1201,45,22.8926756679835,33.51285999029239
1.1832492214369,1.4880863565659717,1201,45,22.8926756679835,33.51285999029239
1.1981262970478774,1.4880714791933018,1201,45,22.8926756679835,33.51285999029239
1.2130032234487644,1.4880566019699275,1201,45,22.8926756679835,33.51285999029239
1.2278800006775463,1.4880417248958042,1201,45,22.8926756679835,33.51285999029239
1.2427566287694014,1.4880268479708911,1201,45,22.8926756679835,33.51285999029239
1.257633107756914,1.48801197119515,1201,45,22.8926756679835,33.51285999029239
1.2725094376702772,1.487997094568546,1201,45,22.8926756679835,33.51285999029239
1.287385618537474,1.487982218091046,1201,45,22.8926756679835,33.51285999029239
1.3022616503844497,1.4879673417626205,1201,45,22.8926756679835,33.51285999029239
1.3171375332352677,1.4879524655832408,1201,45,22.8926756679835,33.51285999029239
1.3320132671122538,1.4879375895528815,1201,45,22.8926756679835,33.51285999029239
1.3468888520361308,1.4879227136715183,1201,45,22.8926756679835,33.51285999029239
1.3617642880261414,1.4879078379391288,1201,45,22.8926756679835,33.51285999029239
1.3766395751001623,1.4878929623556927,1201,45,22.8926756679835,33.51285999029239
1.3915147132748087,1.4878780869211903,1201,45,22.8926756679835,33.51285999029239
1.406389702565532,1.4878632116356036,1201,45,22.8926756679835,33.51285999029239
1.421264542986709,1.4878483364989166,1201,45,22.8926756679835,33.51285999029239
1.4361392345517248,1.4878334615111135,1201,45,22.8926756679835,33.51285999029239
1.4510137772730491,1.4878185866721798,1201,45,22.8926756679835,33.51285999029239
1.4658881711623064,1.4878037119821022,1201,45,22.8926756679835,33.51285999029239
1.4807624162303414,1.4877888374408683,1201,45,22.8926756679835,33.51285999029239
1.4956365124872786,1.4877739630484665,1201,45,22.8926756679835,33.51285999029239
1.5105104599425774,1.487759088804886,1201,45,22.8926756679835,33.51285999029239
1.5253842586050852,1.4877442147101165,1201,45,22.8926756679835,33.51285999029239
1.5402579084830814,1.4877293407641488,1201,45,22.8926756679835,33.51285999029239
1.5551314095843238,1.4877144669669735,1201,45,22.8926756679835,33.51285999029239
1.5700047619160868,1.487699593318583,1201,45,22.8926756679835,33.51285999029239
1.5848779654852008,1.487684719818969,1201,45,22.8926756679835,33.51285999029239
1.5997510202980838,1.4876698464681246,1201,45,22.8926756679835,33.51285999029239
1.6146239263607742,1.487654973266043,1201,45,22.8926756679835,33.51285999029239
1.6294966836789615,1.4876401002127173,1201,45,22.8926756679835,33.51285999029239
1.6443692922580104,1.487625227308142,1201,45,22.8926756679835,33.51285999029239
1.6592417521029887,1.4876103545523112,1201,45,22.8926756679835,33.51285999029239
1.6741140632186873,1.4875954819452193,1201,45,22.8926756679835,33.51285999029239
1.6889862256096426,1.4875806094868618,1201,45,22.8926756679835,33.51285999029239
1.703858239280158,1.4875657371772333,1201,45,22.8926756679835,33.51285999029239
1.7187301042343195,1.4875508650163296,1201,45,22.8926756679835,33.51285999029239
1.733601820476012,1.4875359930041463,1201,45,22.8926756679835,33.51285999029239
1.748473388008937,1.4875211211406794,1201,45,22.8926756679835,33.51285999029239
1.763344806836625,1.4875062494259248,1201,45,22.8926756679835,33.51285999029239
1.7782160769624493,1.487491377859879,1201,45,22.8926756679835,33.51285999029239
1.7930871983896384,1.4874765064425386,1201,45,22.8926756679835,33.51285999029239
1.8079581711212864,1.4874616351738998,1201,45,22.8926756679835,33.51285999029239
1.8228289951603636,1.48744676405396,1201,45,22.8926756679835,33.51285999029239
1.837699670509726,1.4874318930827153,1201,45,22.8926756679835,33.51285999029239
1.852570197172125,1.4874170222601633,1201,45,22.8926756679835,33.51285999029239
1.867440575150214,1.4874021515863012,1201,45,22.8926756679835,33.51285999029239
1.8823108044465566,1.4873872810611257,1201,45,22.8926756679835,33.51285999029239
1.8971808850636336,1.4873724106846347,1201,45,22.8926756679835,33.51285999029239
1.912050817003849,1.4873575404568256,1201,45,22.8926756679835,33.51285999029239
1.9269206002695367,1.4873426703776955,1201,45,22.8926756679835,33.51285999029239
1.9417902348629656,1.4873278004472423,1201,45,22.8926756679835,33.51285999029239
1.9566597207863428,1.4873129306654636,1201,45,22.8926756679835,33.51285999029239
1.9715290580418214,1.4872980610323572,1201,45,22.8926756679835,33.51285999029239
1.9863982466315036,1.4872831915479208,1201,45,22.8926756679835,33.51285999029239
2.0012672865574426,1.487268322212152,1201,45,22.8926756679835,33.51285999029239
2.0161361778216493,1.4872534530250494,1201,45,22.8926756679835,33.51285999029239
2.031004920426093,1.4872385839866105,1201,45,22.8926756679835,33.51285999029239
2.0458735143727074,1.4872237150968333,1201,45,22.8926756679835,33.51285999029239
2.06074195966339,1.4872088463557156,1201,45,22.8926756679835,33.51285999029239
2.0756102563000076,1.487193977763256,1201,45,22.8926756679835,33.51285999029239
2.0904784042843976,1.4871791093194522,1201,45,22.8926756679835,33.51285999029239
2.1053464036183707,1.4871642410243022,1201,45,22.8926756679835,33.51285999029239
2.1202142543037117,1.4871493728778047,1201,45,22.8926756679835,33.51285999029239
2.1350819563421837,1.4871345048799576,1201,45,22.8926756679835,33.51285999029239
2.1499495097355275,1.4871196370307591,1201,45,22.8926756679835,33.51285999029239
2.1648169144854634,1.4871047693302075,1201,45,22.8926756679835,33.51285999029239
2.179684170593696,1.4870899017783008,1201,45,22.8926756679835,33.51285999029239
2.194551278061911,1.4870750343750376,1201,45,22.8926756679835,33.51285999029239
2.2094182368917803,1.4870601671204162,1201,45,22.8926756679835,33.51285999029239
2.224285047084961,1.4870453000144348,1201,45,22.8926756679835,33.51285999029239
2.2391517086430954,1.4870304330570916,1201,45,22.8926756679835,33.51285999029239
2.2540182215678164,1.4870155662483853,1201,45,22.8926756679835,33.51285999029239
2.2688845858607434,1.4870006995883138,1201,45,22.8926756679835,33.51285999029239
2.283750801523487,1.4869858330768757,1201,45,22.8926756679835,33.51285999029239
2.298616868557648,1.4869709667140694,1201,45,22.8926756679835,33.51285999029239
2.3134827869648174,1.4869561004998932,1201,45,22.8926756679835,33.51285999029239
2.3283485567465783,1.4869412344343458,1201,45,22.8926756679835,33.51285999029239
2.343214177904507,1.4869263685174252,1201,45,22.8926756679835,33.51285999029239
2.358079650440173,1.4869115027491302,1201,45,22.8926756679835,33.51285999029239
2.3729449743551383,1.4868966371294587,1201,45,22.8926756679835,33.51285999029239
2.3878101496509596,1.4868817716584097,1201,45,22.8926756679835,33.51285999029239
2.4026751763291885,1.4868669063359812,1201,45,22.8926756679835,33.51285999029239
2.4175400543913708,1.486852041162172,1201,45,22.8926756679835,33.51285999029239
2.432404783839048,1.4868371761369803,1201,45,22.8926756679835,33.51285999029239
2.4472693646737573,1.4868223112604046,1201,45,22.8926756679835,33.51285999029239
2.462133796897032,1.4868074465324435,1201,45,22.8926756679835,33.51285999029239
2.476998080510402,1.4867925819530952,1201,45,22.8926756679835,33.51285999029239
2.4918622155153924,1.4867777175223584,1201,45,22.8926756679835,33.51285999029239
2.5067262019135277,1.4867628532402315,1201,45,22.8926756679835,33.51285999029239
2.521590039706327,1.486747989106713,1201,45,22.8926756679835,33.51285999029239
2.5364537288953075,1.4867331251218012,1201,45,22.8926756679835,33.51285999029239
2.5513172694819857,1.4867182612854948,1201,45,22.8926756679835,33.51285999029239
2.566180661467875,1.4867033975977924,1201,45,22.8926756679835,33.51285999029239
2.5810439048544835,1.486688534058692,1201,45,22.8926756679835,33.51285999029239
2.5959069996433204,1.4866736706681924,1201,45,22.8926756679835,33.51285999029239
2.610769945835894,1.4866588074262923,1201,45,22.8926756679835,33.51285999029239
2.625632743433709,1.4866439443329897,1201,45,22.8926756679835,33.51285999029239
2.640495392438269,1.4866290813882834,1201,45,22.8926756679835,33.51285999029239
2.6553578928510766,1.486614218592172,1201,45,22.8926756679835,33.51285999029239
2.670220244673632,1.4865993559446538,1201,45,22.8926756679835,33.51285999029239
2.685082447907437,1.486584493445727,1201,45,22.8926756679835,33.51285999029239
2.6999445025539877,1.4865696310953909,1201,45,22.8926756679835,33.51285999029239
2.7148064086147827,1.4865547688936434,1201,45,22.8926756679835,33.51285999029239
2.72966816609132,1.486539906840483,1201,45,22.8926756679835,33.51285999029239
2.744529774985094,1.4865250449359084,1201,45,22.8926756679835,33.51285999029239
2.7593912352976004,1.4865101831799181,1201,45,22.8926756679835,33.51285999029239
2.7742525470303336,1.4864953215725105,1201,45,22.8926756679835,33.51285999029239
2.789113710184787,1.4864804601136843,1201,45,22.8926756679835,33.51285999029239
2.803974724762453,1.4864655988034376,1201,45,22.8926756679835,33.51285999029239
2.8188355907648264,1.4864507376417693,1201,45,22.8926756679835,33.51285999029239
2.8336963081933955,1.4864358766286778,1201,45,22.8926756679835,33.51285999029239
2.848556877049653,1.4864210157641615,1201,45,22.8926756679835,33.51285999029239
2.8634172973350913,1.486406155048219,1201,45,22.8926756679835,33.51285999029239
2.8782775690511992,1.4863912944808488,1201,45,22.8926756679835,33.51285999029239
2.8931376921994665,1.4863764340620496,1201,45,22.8926756679835,33.51285999029239
2.907997666781384,1.4863615737918194,1201,45,22.8926756679835,33.51285999029239
2.9228574927984394,1.4863467136701571,1201,45,22.8926756679835,33.51285999029239
2.9377171702521228,1.4863318536970613,1201,45,22.8926756679835,33.51285999029239
2.952576699143923,1.4863169938725302,1201,45,22.8926756679835,33.51285999029239
2.9674360794753274,1.4863021341965625,1201,45,22.8926756679835,33.51285999029239
2.9822953112478254,1.4862872746691569,1201,45,22.8926756679835,33.51285999029239
2.9971543944629038,1.4862724152903113,1201,45,22.8926756679835,33.51285999029239
3.0120133291220497,1.4862575560600249,1201,45,22.8926756679835,33.51285999029239
3.026872115226753,1.4862426969782956,1201,45,22.8926756679835,33.51285999029239
3.041730752778499,1.4862278380451224,1201,45,22.8926756679835,33.51285999029239
3.0565892417787763,1.4862129792605037,1201,45,22.8926756679835,33.51285999029239
3.0714475822290703,1.486198120624438,1201,45,22.8926756679835,33.51285999029239
3.086305774130869,1.4861832621369233,1201,45,22.8926756679835,33.51285999029239
3.1011638174856584,1.486168403797959,1201,45,22.8926756679835,33.51285999029239
3.116021712294925,1.486153545607543,1201,45,22.8926756679835,33.51285999029239
3.130879458560155,1.4861386875656741,1201,45,22.8926756679835,33.51285999029239
3.145737056282835,1.4861238296723507,1201,45,22.8926756679835,33.51285999029239
3.160594505464451,1.4861089719275713,1201,45,22.8926756679835,33.51285999029239
3.1754518061064902,1.4860941143313344,1201,45,22.8926756679835,33.51285999029239
3.190308958210437,1.4860792568836385,1201,45,22.8926756679835,33.51285999029239
3.205165961777778,1.4860643995844822,1201,45,22.8926756679835,33.51285999029239
3.2200228168099985,1.486049542433864,1201,45,22.8926756679835,33.51285999029239
3.234879523308585,1.4860346854317823,1201,45,22.8926756679835,33.51285999029239
3.2497360812750227,1.4860198285782358,1201,45,22.8926756679835,33.51285999029239
3.264592490710798,1.486004971873223,1201,45,22.8926756679835,33.51285999029239
3.2794487516173954,1.4859901153167423,1201,45,22.8926756679835,33.51285999029239
3.2943048639963006,1.4859752589087922,1201,45,22.8926756679835,33.51285999029239
3.3091608278489995,1.4859604026493711,1201,45,22.8926756679835,33.51285999029239
3.3240166431769773,1.4859455465384779,1201,45,22.8926756679835,33.51285999029239
3.3388723099817184,1.485930690576111,1201,45,22.8926756679835,33.51285999029239
3.3537278282647094,1.4859158347622685,1201,45,22.8926756679835,33.51285999029239
3.3685831980274354,1.4859009790969493,1201,45,22.8926756679835,33.51285999029239
3.3834384192713802,1.485886123580152,1201,45,22.8926756679835,33.51285999029239
3.398293491998031,1.4858712682118749,1201,45,22.8926756679835,33.51285999029239
3.4131484162088714,1.4858564129921163,1201,45,22.8926756679835,33.51285999029239
3.4280031919053866,1.4858415579208752,1201,45,22.8926756679835,33.51285999029239
3.442857819089063,1.48582670299815,1201,45,22.8926756679835,33.51285999029239
3.457712297761383,1.4858118482239389,1201,45,22.8926756679835,33.51285999029239
3.472566627923834,1.4857969935982407,1201,45,22.8926756679835,33.51285999029239
3.4874208095778996,1.485782139121054,1201,45,22.8926756679835,33.51285999029239
3.5022748427250647,1.4857672847923769,1201,45,22.8926756679835,33.51285999029239
3.5171287273668157,1.4857524306122083,1201,45,22.8926756679835,33.51285999029239
3.531982463504636,1.4857375765805465,1201,45,22.8926756679835,33.51285999029239
3.546836051140011,1.4857227226973901,1201,45,22.8926756679835,33.51285999029239
3.5616894902744254,1.4857078689627379,1201,45,22.8926756679835,33.51285999029239
3.576542780909363,1.485693015376588,1201,45,22.8926756679835,33.51285999029239
3.5913959230463104,1.4856781619389388,1201,45,22.8926756679835,33.51285999029239
3.6062489166867504,1.4856633086497892,1201,45,22.8926756679835,33.51285999029239
3.6211017618321697,1.4856484555091376,1201,45,22.8926756679835,33.51285999029239
