Vout,Iout,Irradiance,Temperature,MaxVoltage,MaxPower
0.004445507254737935,0.8891099999999998,801,-20,18.61605713147447,16.20548738443175
0.013336439562577157,0.8891099999999998,801,-20,18.61605713147447,16.20548738443175
0.022227191119992613,0.8891054655817451,801,-20,18.61605713147447,16.20548738443175
0.031117729635980963,0.8890965746494373,801,-20,18.61605713147447,16.20548738443175
0.04000804455728208,0.8890876838983333,801,-20,18.61605713147447,16.20548738443175
0.04889814625055193,0.8890787933607064,801,-20,18.61605713147447,16.20548738443175
0.05778804428518343,0.8890699030466742,801,-20,18.61605713147447,16.20548738443175
0.0666777474944523,0.8890610129458699,801,-20,18.61605713147447,16.20548738443175
0.07556726403205642,0.8890521230487244,801,-20,18.61605713147447,16.20548738443175
0.08445660142440382,0.8890432333464041,801,-20,18.61605713147447,16.20548738443175
0.09334576661887715,0.8890343438307555,801,-20,18.61605713147447,16.20548738443175
0.10223476602838484,0.8890254544942521,801,-20,18.61605713147447,16.20548738443175
0.1111236055724845,0.8890165653299466,801,-20,18.61605713147447,16.20548738443175
0.120012290715342,0.889007676331426,801,-20,18.61605713147447,16.20548738443175
0.12890082650077003,0.8889987874927708,801,-20,18.61605713147447,16.20548738443175
0.13778921758457074,0.8889898988085169,801,-20,18.61605713147447,16.20548738443175
0.14667746826438996,0.8889810102736203,801,-20,18.61605713147447,16.20548738443175
0.15556558250727426,0.8889721218834254,801,-20,18.61605713147447,16.20548738443175
0.16445356397510755,0.8889632336336344,801,-20,18.61605713147447,16.20548738443175
0.17334141604809125,0.8889543455202804,801,-20,18.61605713147447,16.20548738443175
0.18222914184641695,0.8889454575397013,801,-20,18.61605713147447,16.20548738443175
0.19111674425027225,0.8889365696885172,801,-20,18.61605713147447,16.20548738443175
0.2000042259183068,0.8889276819636077,801,-20,18.61605713147447,16.20548738443175
0.20889158930467808,0.8889187943620926,801,-20,18.61605713147447,16.20548738443175
0.21777883667478498,0.8889099068813133,801,-20,18.61605713147447,16.20548738443175
0.22666597011979156,0.8889010195188157,801,-20,18.61605713147447,16.20548738443175
0.23555299157003257,0.8888921322723343,801,-20,18.61605713147447,16.20548738443175
0.24443990280738837,0.8888832451397781,801,-20,18.61605713147447,16.20548738443175
0.2533267054767067,0.8888743581192166,801,-20,18.61605713147447,16.20548738443175
0.2622134010963467,0.8888654712088679,801,-20,18.61605713147447,16.20548738443175
0.2710999910679108,0.8888565844070874,801,-20,18.61605713147447,16.20548738443175
0.27998647668522825,0.8888476977123564,801,-20,18.61605713147447,16.20548738443175
0.2888728591426475,0.8888388111232735,801,-20,18.61605713147447,16.20548738443175
0.29775913954269007,0.8888299246385448,801,-20,18.61605713147447,16.20548738443175
0.30664531890311625,0.8888210382569761,801,-20,18.61605713147447,16.20548738443175
0.3155313981634466,0.8888121519774647,801,-20,18.61605713147447,16.20548738443175
0.3244173781909817,0.8888032657989929,801,-20,18.61605713147447,16.20548738443175
0.3333032597863591,0.8887943797206213,801,-20,18.61605713147447,16.20548738443175
0.34218904368868225,0.8887854937414823,801,-20,18.61605713147447,16.20548738443175
0.35107473058025523,0.8887766078607755,801,-20,18.61605713147447,16.20548738443175
0.35996032109095294,0.8887677220777618,801,-20,18.61605713147447,16.20548738443175
0.368845815802255,0.8887588363917588,801,-20,18.61605713147447,16.20548738443175
0.37773121525096937,0.8887499508021367,801,-20,18.61605713147447,16.20548738443175
0.38661651993266954,0.888741065308314,801,-20,18.61605713147447,16.20548738443175
0.39550173030486707,0.8887321799097538,801,-20,18.61605713147447,16.20548738443175
0.4043868467899401,0.8887232946059607,801,-20,18.61605713147447,16.20548738443175
0.4132718697778369,0.888714409396477,801,-20,18.61605713147447,16.20548738443175
0.4221567996285706,0.8887055242808805,801,-20,18.61605713147447,16.20548738443175
0.4310416366745229,0.8886966392587811,801,-20,18.61605713147447,16.20548738443175
0.43992638122256955,0.8886877543298188,801,-20,18.61605713147447,16.20548738443175
0.44881103355604346,0.8886788694936614,801,-20,18.61605713147447,16.20548738443175
0.4576955939365455,0.8886699847500018,801,-20,18.61605713147447,16.20548738443175
0.4665800626056171,0.8886611000985568,801,-20,18.61605713147447,16.20548738443175
0.4754644397862831,0.8886522155390648,801,-20,18.61605713147447,16.20548738443175
0.4843487256844773,0.8886433310712842,801,-20,18.61605713147447,16.20548738443175
0.49323292049035644,0.888634446694992,801,-20,18.61605713147447,16.20548738443175
0.5021170243795148,0.8886255624099823,801,-20,18.61605713147447,16.20548738443175
0.5110010375141046,0.8886166782160648,801,-20,18.61605713147447,16.20548738443175
0.51988496004387,0.8886077941130641,801,-20,18.61605713147447,16.20548738443175
0.528768792107102,0.8885989101008179,801,-20,18.61605713147447,16.20548738443175
0.5376525338315195,0.8885900261791766,801,-20,18.61605713147447,16.20548738443175
0.5465361853350826,0.8885811423480018,801,-20,18.61605713147447,16.20548738443175
0.5554197467267444,0.8885722586071657,801,-20,18.61605713147447,16.20548738443175
0.5643032181071426,0.8885633749565506,801,-20,18.61605713147447,16.20548738443175
0.57318659956924,0.8885544913960473,801,-20,18.61605713147447,16.20548738443175
0.5820698911989156,0.8885456079255553,801,-20,18.61605713147447,16.20548738443175
0.5909530930755085,0.8885367245449814,801,-20,18.61605713147447,16.20548738443175
0.5998362052723218,0.8885278412542401,801,-20,18.61605713147447,16.20548738443175
0.6087192278570869,0.8885189580532519,801,-20,18.61605713147447,16.20548738443175
0.6176021608923918,0.8885100749419435,801,-20,18.61605713147447,16.20548738443175
0.626485004436078,0.8885011919202469,801,-20,18.61605713147447,16.20548738443175
0.635367758541604,0.8884923089880999,801,-20,18.61605713147447,16.20548738443175
0.6442504232583838,0.8884834261454446,801,-20,18.61605713147447,16.20548738443175
0.653132998632098,0.8884745433922273,801,-20,18.61605713147447,16.20548738443175
0.6620154847049801,0.8884656607283988,801,-20,18.61605713147447,16.20548738443175
0.6708978815160832,0.8884567781539134,801,-20,18.61605713147447,16.20548738443175
0.679780189101523,0.8884478956687288,801,-20,18.61605713147447,16.20548738443175
0.6886624074947058,0.8884390132728059,801,-20,18.61605713147447,16.20548738443175
0.6975445367265345,0.8884301309661088,801,-20,18.61605713147447,16.20548738443175
0.7064265768256037,0.8884212487486038,801,-20,18.61605713147447,16.20548738443175
0.7153085278183761,0.8884123666202602,801,-20,18.61605713147447,16.20548738443175
0.7241903897293458,0.8884034845810493,801,-20,18.61605713147447,16.20548738443175
0.7330721625811915,0.8883946026309448,801,-20,18.61605713147447,16.20548738443175
0.7419538463949145,0.8883857207699221,801,-20,18.61605713147447,16.20548738443175
0.7508354411899694,0.8883768389979584,801,-20,18.61605713147447,16.20548738443175
0.7597169469843813,0.8883679573150328,801,-20,18.61605713147447,16.20548738443175
0.7685983637948574,0.8883590757211259,801,-20,18.61605713147447,16.20548738443175
0.7774796916368872,0.8883501942162197,801,-20,18.61605713147447,16.20548738443175
0.7863609305248374,0.8883413128002974,801,-20,18.61605713147447,16.20548738443175
0.7952420804720368,0.8883324314733435,801,-20,18.61605713147447,16.20548738443175
0.8041231414908573,0.8883235502353437,801,-20,18.61605713147447,16.20548738443175
0.8130041135927873,0.8883146690862846,801,-20,18.61605713147447,16.20548738443175
0.8218849967884998,0.888305788026154,801,-20,18.61605713147447,16.20548738443175
0.8307657910879139,0.8882969070549401,801,-20,18.61605713147447,16.20548738443175
0.839646496500255,0.8882880261726326,801,-20,18.61605713147447,16.20548738443175
0.8485271130341061,0.8882791453792213,801,-20,18.61605713147447,16.20548738443175
0.8574076406974588,0.8882702646746969,801,-20,18.61605713147447,16.20548738443175
0.8662880794977573,0.8882613840590512,801,-20,18.61605713147447,16.20548738443175
0.875168429441942,0.8882525035322759,801,-20,18.61605713147447,16.20548738443175
0.8840486905364872,0.8882436230943637,801,-20,18.61605713147447,16.20548738443175
0.8929288627874375,0.8882347427453076,801,-20,18.61605713147447,16.20548738443175
0.9018089462004408,0.888225862485101,801,-20,18.61605713147447,16.20548738443175
0.9106889407807786,0.8882169823137381,801,-20,18.61605713147447,16.20548738443175
0.919568846533394,0.8882081022312132,801,-20,18.61605713147447,16.20548738443175
0.928448663462919,0.8881992222375208,801,-20,18.61605713147447,16.20548738443175
0.9373283915736963,0.8881903423326563,801,-20,18.61605713147447,16.20548738443175
0.9462080308698034,0.8881814625166147,801,-20,18.61605713147447,16.20548738443175
0.9550875813550725,0.8881725827893919,801,-20,18.61605713147447,16.20548738443175
0.9639670430331089,0.8881637031509838,801,-20,18.61605713147447,16.20548738443175
0.9728464159073087,0.8881548236013865,801,-20,18.61605713147447,16.20548738443175
0.9817256999808756,0.8881459441405964,801,-20,18.61605713147447,16.20548738443175
0.9906048952568342,0.8881370647686102,801,-20,18.61605713147447,16.20548738443175
0.9994840017380454,0.8881281854854246,801,-20,18.61605713147447,16.20548738443175
1.0083630194272173,0.8881193062910365,801,-20,18.61605713147447,16.20548738443175
1.0172419483269195,0.8881104271854432,801,-20,18.61605713147447,16.20548738443175
1.0261207884395909,0.888101548168642,801,-20,18.61605713147447,16.20548738443175
1.0349995397675509,0.8880926692406302,801,-20,18.61605713147447,16.20548738443175
1.0438782023130095,0.8880837904014054,801,-20,18.61605713147447,16.20548738443175
1.052756776078075,0.8880749116509654,801,-20,18.61605713147447,16.20548738443175
1.0616352610647606,0.8880660329893078,801,-20,18.61605713147447,16.20548738443175
1.070513657274994,0.8880571544164306,801,-20,18.61605713147447,16.20548738443175
1.0793919647106227,0.8880482759323318,801,-20,18.61605713147447,16.20548738443175
1.0882701833734199,0.8880393975370094,801,-20,18.61605713147447,16.20548738443175
1.0971483132650905,0.8880305192304616,801,-20,18.61605713147447,16.20548738443175
1.1060263543872775,0.8880216410126867,801,-20,18.61605713147447,16.20548738443175
1.1149043067415647,0.8880127628836828,801,-20,18.61605713147447,16.20548738443175
1.1237821703294826,0.8880038848434485,801,-20,18.61605713147447,16.20548738443175
1.1326599451525128,0.887995006891982,801,-20,18.61605713147447,16.20548738443175
1.1415376312120902,0.8879861290292819,801,-20,18.61605713147447,16.20548738443175
1.150415228509608,0.8879772512553467,801,-20,18.61605713147447,16.20548738443175
1.159292737046421,0.8879683735701749,801,-20,18.61605713147447,16.20548738443175
1.1681701568238474,0.8879594959737651,801,-20,18.61605713147447,16.20548738443175
1.1770474878431723,0.8879506184661161,801,-20,18.61605713147447,16.20548738443175
1.18592473010565,0.8879417410472265,801,-20,18.61605713147447,16.20548738443175
1.1948018836125067,0.8879328637170948,801,-20,18.61605713147447,16.20548738443175
1.2036789483649433,0.8879239864757201,801,-20,18.61605713147447,16.20548738443175
1.2125559243641357,0.8879151093231009,801,-20,18.61605713147447,16.20548738443175
1.2214328116112376,0.8879062322592363,801,-20,18.61605713147447,16.20548738443175
1.2303096101073823,0.8878973552841247,801,-20,18.61605713147447,16.20548738443175
1.2391863198536848,0.8878884783977654,801,-20,18.61605713147447,16.20548738443175
1.2480629408512414,0.8878796016001569,801,-20,18.61605713147447,16.20548738443175
1.256939473101133,0.8878707248912984,801,-20,18.61605713147447,16.20548738443175
1.2658159166044256,0.8878618482711884,801,-20,18.61605713147447,16.20548738443175
1.2746922713621713,0.8878529717398262,801,-20,18.61605713147447,16.20548738443175
1.2835685373754102,0.8878440952972106,801,-20,18.61605713147447,16.20548738443175
1.292444714645169,0.8878352189433405,801,-20,18.61605713147447,16.20548738443175
1.3013208031724652,0.8878263426782149,801,-20,18.61605713147447,16.20548738443175
1.3101968029583058,0.8878174665018328,801,-20,18.61605713147447,16.20548738443175
1.319072714003688,0.8878085904141931,801,-20,18.61605713147447,16.20548738443175
1.3279485363096013,0.8877997144152949,801,-20,18.61605713147447,16.20548738443175
1.336824269877027,0.8877908385051371,801,-20,18.61605713147447,16.20548738443175
1.3456999147069395,0.8877819626837188,801,-20,18.61605713147447,16.20548738443175
1.3545754708003053,0.887773086951039,801,-20,18.61605713147447,16.20548738443175
1.3634509381580864,0.8877642113070966,801,-20,18.61605713147447,16.20548738443175
1.3723263167812383,0.8877553357518908,801,-20,18.61605713147447,16.20548738443175
1.3812016066707105,0.8877464602854206,801,-20,18.61605713147447,16.20548738443175
1.3900768078274488,0.8877375849076851,801,-20,18.61605713147447,16.20548738443175
1.398951920252395,0.8877287096186831,801,-20,18.61605713147447,16.20548738443175
1.407826943946484,0.887719834418414,801,-20,18.61605713147447,16.20548738443175
1.4167018789106502,0.8877109593068765,801,-20,18.61605713147447,16.20548738443175
1.4255767251458222,0.8877020842840699,801,-20,18.61605713147447,16.20548738443175
1.4344514826529262,0.8876932093499933,801,-20,18.61605713147447,16.20548738443175
1.4433261514328857,0.8876843345046456,801,-20,18.61605713147447,16.20548738443175
1.4522007314866205,0.887675459748026,801,-20,18.61605713147447,16.20548738443175
1.4610752228150485,0.8876665850801335,801,-20,18.61605713147447,16.20548738443175
1.4699496254190854,0.8876577105009672,801,-20,18.61605713147447,16.20548738443175
1.4788239392996438,0.8876488360105262,801,-20,18.61605713147447,16.20548738443175
1.4876981644576355,0.8876399616088098,801,-20,18.61605713147447,16.20548738443175
1.4965723008939695,0.8876310872958166,801,-20,18.61605713147447,16.20548738443175
1.505446348609553,0.8876222130715461,801,-20,18.61605713147447,16.20548738443175
1.514320307605293,0.8876133389359971,801,-20,18.61605713147447,16.20548738443175
1.5231941778820928,0.887604464889169,801,-20,18.61605713147447,16.20548738443175
1.532067959440856,0.8875955909310607,801,-20,18.61605713147447,16.20548738443175
1.5409416522824846,0.8875867170616712,801,-20,18.61605713147447,16.20548738443175
1.5498152564078795,0.8875778432809999,801,-20,18.61605713147447,16.20548738443175
1.5586887718179399,0.8875689695890456,801,-20,18.61605713147447,16.20548738443175
1.5675621985135655,0.8875600959858077,801,-20,18.61605713147447,16.20548738443175
1.5764355364956533,0.8875512224712849,801,-20,18.61605713147447,16.20548738443175
1.5853087857651005,0.8875423490454767,801,-20,18.61605713147447,16.20548738443175
1.5941819463228026,0.8875334757083819,801,-20,18.61605713147447,16.20548738443175
1.6030550181696555,0.8875246024599999,801,-20,18.61605713147447,16.20548738443175
1.6119280013065542,0.8875157293003295,801,-20,18.61605713147447,16.20548738443175
1.6208008957343927,0.88750685622937,801,-20,18.61605713147447,16.20548738443175
1.6296737014540643,0.8874979832471204,801,-20,18.61605713147447,16.20548738443175
1.6385464184664624,0.8874891103535798,801,-20,18.61605713147447,16.20548738443175
1.6474190467724792,0.8874802375487475,801,-20,18.61605713147447,16.20548738443175
1.6562915863730074,0.8874713648326223,801,-20,18.61605713147447,16.20548738443175
1.6651640372689382,0.8874624922052036,801,-20,18.61605713147447,16.20548738443175
1.6740363994611633,0.8874536196664904,801,-20,18.61605713147447,16.20548738443175
1.6829086729505736,0.8874447472164817,801,-20,18.61605713147447,16.20548738443175
1.6917808577380593,0.8874358748551767,801,-20,18.61605713147447,16.20548738443175
1.7006529538245112,0.8874270025825746,801,-20,18.61605713147447,16.20548738443175
1.7095249612108194,0.8874181303986743,801,-20,18.61605713147447,16.20548738443175
1.7183968798978735,0.8874092583034751,801,-20,18.61605713147447,16.20548738443175
1.7272687098865631,0.887400386296976,801,-20,18.61605713147447,16.20548738443175
1.7361404511777774,0.8873915143791762,801,-20,18.61605713147447,16.20548738443175
1.7450121037724058,0.8873826425500747,801,-20,18.61605713147447,16.20548738443175
1.7538836676713372,0.8873737708096706,801,-20,18.61605713147447,16.20548738443175
1.7627551428754602,0.8873648991579632,801,-20,18.61605713147447,16.20548738443175
1.771626529385664,0.8873560275949515,801,-20,18.61605713147447,16.20548738443175
1.7804978272028362,0.8873471561206344,801,-20,18.61605713147447,16.20548738443175
1.7893690363278654,0.8873382847350114,801,-20,18.61605713147447,16.20548738443175
1.7982401567616397,0.8873294134380814,801,-20,18.61605713147447,16.20548738443175
1.8071111885050475,0.8873205422298435,801,-20,18.61605713147447,16.20548738443175
1.8159821315589766,0.8873116711102969,801,-20,18.61605713147447,16.20548738443175
1.8248529859243146,0.8873028000794406,801,-20,18.61605713147447,16.20548738443175
1.8337237516019498,0.8872939291372738,801,-20,18.61605713147447,16.20548738443175
1.8425944285927691,0.8872850582837956,801,-20,18.61605713147447,16.20548738443175
1.8514650168976607,0.8872761875190049,801,-20,18.61605713147447,16.20548738443175
1.860335516517512,0.8872673168429013,801,-20,18.61605713147447,16.20548738443175
1.8692059274532098,0.8872584462554834,801,-20,18.61605713147447,16.20548738443175
1.878076249705642,0.8872495757567507,801,-20,18.61605713147447,16.20548738443175
1.886946483275696,0.887240705346702,801,-20,18.61605713147447,16.20548738443175
1.8958166281642583,0.8872318350253366,801,-20,18.61605713147447,16.20548738443175
1.904686684372217,0.8872229647926536,801,-20,18.61605713147447,16.20548738443175
1.9135566519004585,0.8872140946486521,801,-20,18.61605713147447,16.20548738443175
1.9224265307498707,0.8872052245933312,801,-20,18.61605713147447,16.20548738443175
1.9312963209213396,0.8871963546266899,801,-20,18.61605713147447,16.20548738443175
1.9401660224157522,0.8871874847487276,801,-20,18.61605713147447,16.20548738443175
1.9490356352339964,0.8871786149594431,801,-20,18.61605713147447,16.20548738443175
1.9579051593769585,0.8871697452588356,801,-20,18.61605713147447,16.20548738443175
1.9667745948455255,0.8871608756469044,801,-20,18.61605713147447,16.20548738443175
1.9756439416405842,0.8871520061236483,801,-20,18.61605713147447,16.20548738443175
1.9845131997630214,0.8871431366890667,801,-20,18.61605713147447,16.20548738443175
1.9933823692137238,0.8871342673431587,801,-20,18.61605713147447,16.20548738443175
2.002251449993578,0.8871253980859232,801,-20,18.61605713147447,16.20548738443175
2.0111204421034716,0.8871165289173594,801,-20,18.61605713147447,16.20548738443175
2.01998934554429,0.8871076598374664,801,-20,18.61605713147447,16.20548738443175
2.0288581603169202,0.8870987908462434,801,-20,18.61605713147447,16.20548738443175
2.037726886422249,0.8870899219436895,801,-20,18.61605713147447,16.20548738443175
2.0465955238611637,0.8870810531298038,801,-20,18.61605713147447,16.20548738443175
2.0554640726345497,0.8870721844045854,801,-20,18.61605713147447,16.20548738443175
2.0643325327432946,0.8870633157680333,801,-20,18.61605713147447,16.20548738443175
2.0732009041882846,0.8870544472201468,801,-20,18.61605713147447,16.20548738443175
2.0820691869704055,0.8870455787609249,801,-20,18.61605713147447,16.20548738443175
2.090937381090545,0.8870367103903668,801,-20,18.61605713147447,16.20548738443175
2.09980548654959,0.8870278421084715,801,-20,18.61605713147447,16.20548738443175
2.1086735033484247,0.8870189739152382,801,-20,18.61605713147447,16.20548738443175
2.117541431487938,0.8870101058106661,801,-20,18.61605713147447,16.20548738443175
2.1264092709690146,0.887001237794754,801,-20,18.61605713147447,16.20548738443175
