Vout,Iout,Irradiance,Temperature,MaxVoltage,MaxPower
0.009306110518168096,1.86124,1501,45,22.904066263256674,42.042485479550294
0.02791815947571292,1.86124,1501,45,22.904066263256674,42.042485479550294
0.04652983005497077,1.8612305077654818,1501,45,22.904066263256674,42.042485479550294
0.06514105465878599,1.8612118957165242,1501,45,22.904066263256674,42.042485479550294
0.08375181119523538,1.8611932840468943,1501,45,22.904066263256674,42.042485479550294
0.10236212136560975,1.8611746728241516,1501,45,22.904066263256674,42.042485479550294
0.12097200520223012,1.8611560620694763,1501,45,22.904066263256674,42.042485479550294
0.1395814811964486,1.8611374517611672,1501,45,22.904066263256674,42.042485479550294
0.15819056641700663,1.8611188418791915,1501,45,22.904066263256674,42.042485479550294
0.17679927661949302,1.8611002324050583,1501,45,22.904066263256674,42.042485479550294
0.1954076263473799,1.861081623321699,1501,45,22.904066263256674,42.042485479550294
0.21401562902528487,1.8610630146133573,1501,45,22.904066263256674,42.042485479550294
0.23262329704505758,1.8610444062654903,1501,45,22.904066263256674,42.042485479550294
0.2512306418452422,1.8610257982646732,1501,45,22.904066263256674,42.042485479550294
0.2698376739844264,1.8610071905985144,1501,45,22.904066263256674,42.042485479550294
0.28844440320894676,1.860988583255575,1501,45,22.904066263256674,42.042485479550294
0.3070508385153844,1.8609699762252965,1501,45,22.904066263256674,42.042485479550294
0.32565698820825245,1.8609513694979327,1501,45,22.904066263256674,42.042485479550294
0.34426285995324474,1.860932763064487,1501,45,22.904066263256674,42.042485479550294
0.3628684608263878,1.8609141569166547,1501,45,22.904066263256674,42.042485479550294
0.38147379735941045,1.8608955510467704,1501,45,22.904066263256674,42.042485479550294
0.40007887558162325,1.8608769454477578,1501,45,22.904066263256674,42.042485479550294
0.4186837010585751,1.8608583401130856,1501,45,22.904066263256674,42.042485479550294
0.43728827892773603,1.8608397350367238,1501,45,22.904066263256674,42.042485479550294
0.45589261393143377,1.8608211302131075,1501,45,22.904066263256674,42.042485479550294
0.4744967104472574,1.8608025256370988,1501,45,22.904066263256674,42.042485479550294
0.4931005725161203,1.8607839213039556,1501,45,22.904066263256674,42.042485479550294
0.5117042038681646,1.8607653172093002,1501,45,22.904066263256674,42.042485479550294
0.5303076079466724,1.8607467133490918,1501,45,22.904066263256674,42.042485479550294
0.5489107879301375,1.8607281097196,1501,45,22.904066263256674,42.042485479550294
0.5675137467526385,1.860709506317382,1501,45,22.904066263256674,42.042485479550294
0.5861164871226445,1.860690903139259,1501,45,22.904066263256674,42.042485479550294
0.6047190115403733,1.8606723001822967,1501,45,22.904066263256674,42.042485479550294
0.6233213223138157,1.860653697443787,1501,45,22.904066263256674,42.042485479550294
0.6419234215735243,1.8606350949212296,1501,45,22.904066263256674,42.042485479550294
0.6605253112862678,1.8606164926123165,1501,45,22.904066263256674,42.042485479550294
0.6791269932676305,1.860597890514917,1501,45,22.904066263256674,42.042485479550294
0.6977284691936466,1.8605792886270645,1501,45,22.904066263256674,42.042485479550294
0.7163297406115364,1.8605606869469433,1501,45,22.904066263256674,42.042485479550294
0.7349308089496175,1.8605420854728776,1501,45,22.904066263256674,42.042485479550294
0.7535316755264541,1.8605234842033198,1501,45,22.904066263256674,42.042485479550294
0.7721323415593001,1.8605048831368418,1501,45,22.904066263256674,42.042485479550294
0.790732808171896,1.860486282272125,1501,45,22.904066263256674,42.042485479550294
0.8093330764016622,1.8604676816079524,1501,45,22.904066263256674,42.042485479550294
0.8279331472063418,1.8604490811432,1501,45,22.904066263256674,42.042485479550294
0.8465330214701308,1.8604304808768302,1501,45,22.904066263256674,42.042485479550294
0.8651327000093364,1.8604118808078856,1501,45,22.904066263256674,42.042485479550294
0.883732183577601,1.8603932809354817,1501,45,22.904066263256674,42.042485479550294
0.9023314728707237,1.8603746812588027,1501,45,22.904066263256674,42.042485479550294
0.9209305685311103,1.8603560817770943,1501,45,22.904066263256674,42.042485479550294
0.9395294711518826,1.8603374824896612,1501,45,22.904066263256674,42.042485479550294
0.9581281812806693,1.8603188833958608,1501,45,22.904066263256674,42.042485479550294
0.9767266994231067,1.8603002844950998,1501,45,22.904066263256674,42.042485479550294
0.99532502604607,1.860281685786831,1501,45,22.904066263256674,42.042485479550294
1.013923161580655,1.8602630872705483,1501,45,22.904066263256674,42.042485479550294
1.032521106424931,1.8602444889457854,1501,45,22.904066263256674,42.042485479550294
1.0511188609464832,1.8602258908121105,1501,45,22.904066263256674,42.042485479550294
1.069716425484756,1.8602072928691262,1501,45,22.904066263256674,42.042485479550294
1.0883138003532207,1.8601886951164643,1501,45,22.904066263256674,42.042485479550294
1.1069109858413715,1.860170097553786,1501,45,22.904066263256674,42.042485479550294
1.1255079822165721,1.8601515001807774,1501,45,22.904066263256674,42.042485479550294
1.144104789725758,1.860132902997149,1501,45,22.904066263256674,42.042485479550294
1.1627014085970073,1.8601143060026335,1501,45,22.904066263256674,42.042485479550294
1.1812978390409932,1.8600957091969839,1501,45,22.904066263256674,42.042485479550294
1.1998940812523218,1.8600771125799724,1501,45,22.904066263256674,42.042485479550294
1.2184901354107693,1.860058516151388,1501,45,22.904066263256674,42.042485479550294
1.2370860016824228,1.8600399199110365,1501,45,22.904066263256674,42.042485479550294
1.2556816802207327,1.8600213238587375,1501,45,22.904066263256674,42.042485479550294
1.2742771711674865,1.8600027279943256,1501,45,22.904066263256674,42.042485479550294
1.2928724746537046,1.859984132317647,1501,45,22.904066263256674,42.042485479550294
1.3114675908004696,1.8599655368285597,1501,45,22.904066263256674,42.042485479550294
1.330062519719691,1.859946941526933,1501,45,22.904066263256674,42.042485479550294
1.3486572615148118,1.859928346412646,1501,45,22.904066263256674,42.042485479550294
1.3672518162814564,1.8599097514855862,1501,45,22.904066263256674,42.042485479550294
1.3858461841080374,1.8598911567456506,1501,45,22.904066263256674,42.042485479550294
1.4044403650763058,1.8598725621927434,1501,45,22.904066263256674,42.042485479550294
1.4230343592618673,1.8598539678267763,1501,45,22.904066263256674,42.042485479550294
1.4416281667346513,1.8598353736476674,1501,45,22.904066263256674,42.042485479550294
1.4602217875593515,1.8598167796553413,1501,45,22.904066263256674,42.042485479550294
1.478815221795826,1.859798185849728,1501,45,22.904066263256674,42.042485479550294
1.4974084694994707,1.8597795922307627,1501,45,22.904066263256674,42.042485479550294
1.5160015307215617,1.8597609987983856,1501,45,22.904066263256674,42.042485479550294
1.5345944055095733,1.8597424055525413,1501,45,22.904066263256674,42.042485479550294
1.55318709390747,1.8597238124931785,1501,45,22.904066263256674,42.042485479550294
1.5717795959559764,1.85970521962025,1501,45,22.904066263256674,42.042485479550294
1.590371911692827,1.8596866269337113,1501,45,22.904066263256674,42.042485479550294
1.6089640411529957,1.8596680344335221,1501,45,22.904066263256674,42.042485479550294
1.627555984368908,1.8596494421196446,1501,45,22.904066263256674,42.042485479550294
1.646147741370638,1.8596308499920435,1501,45,22.904066263256674,42.042485479550294
1.664739312186089,1.8596122580506869,1501,45,22.904066263256674,42.042485479550294
1.683330696841159,1.8595936662955443,1501,45,22.904066263256674,42.042485479550294
1.7019218953598985,1.859575074726588,1501,45,22.904066263256674,42.042485479550294
1.720512907764649,1.8595564833437923,1501,45,22.904066263256674,42.042485479550294
1.7391037340761761,1.8595378921471326,1501,45,22.904066263256674,42.042485479550294
1.7576943743137912,1.859519301136587,1501,45,22.904066263256674,42.042485479550294
1.7762848284954615,1.8595007103121346,1501,45,22.904066263256674,42.042485479550294
1.7948750966379166,1.859482119673756,1501,45,22.904066263256674,42.042485479550294
1.8134651787567406,1.8594635292214334,1501,45,22.904066263256674,42.042485479550294
1.8320550748664615,1.8594449389551502,1501,45,22.904066263256674,42.042485479550294
1.8506447849806333,1.8594263488748903,1501,45,22.904066263256674,42.042485479550294
1.8692343091119095,1.8594077589806397,1501,45,22.904066263256674,42.042485479550294
1.8878236472721128,1.8593891692723845,1501,45,22.904066263256674,42.042485479550294
1.9064127994722992,1.859370579750112,1501,45,22.904066263256674,42.042485479550294
1.9250017657228178,1.859351990413811,1501,45,22.904066263256674,42.042485479550294
1.9435905460333633,1.8593334012634697,1501,45,22.904066263256674,42.042485479550294
1.9621791404130273,1.8593148122990781,1501,45,22.904066263256674,42.042485479550294
1.9807675488703458,1.8592962235206265,1501,45,22.904066263256674,42.042485479550294
1.9993557714133408,1.8592776349281057,1501,45,22.904066263256674,42.042485479550294
2.017943808049559,1.8592590465215073,1501,45,22.904066263256674,42.042485479550294
2.036531658786111,1.859240458300823,1501,45,22.904066263256674,42.042485479550294
2.055119323629703,1.8592218702660457,1501,45,22.904066263256674,42.042485479550294
2.0737068025866656,1.859203282417168,1501,45,22.904066263256674,42.042485479550294
2.0922940956629885,1.8591846947541832,1501,45,22.904066263256674,42.042485479550294
2.1108812028643413,1.859166107277085,1501,45,22.904066263256674,42.042485479550294
2.1294681241961015,1.8591475199858676,1501,45,22.904066263256674,42.042485479550294
2.1480548596633757,1.859128932880525,1501,45,22.904066263256674,42.042485479550294
2.1666414092710196,1.8591103459610518,1501,45,22.904066263256674,42.042485479550294
2.1852277730236596,1.8590917592274434,1501,45,22.904066263256674,42.042485479550294
2.2038139509257073,1.8590731726796943,1501,45,22.904066263256674,42.042485479550294
2.22239994298138,1.8590545863178005,1501,45,22.904066263256674,42.042485479550294
2.240985749194711,1.859036000141757,1501,45,22.904066263256674,42.042485479550294
2.2595713695695676,1.85901741415156,1501,45,22.904066263256674,42.042485479550294
2.278156804109663,1.8589988283472052,1501,45,22.904066263256674,42.042485479550294
2.296742052818567,1.858980242728689,1501,45,22.904066263256674,42.042485479550294
2.315327115699717,1.8589616572960075,1501,45,22.904066263256674,42.042485479550294
2.333911992756429,1.858943072049157,1501,45,22.904066263256674,42.042485479550294
2.3524966839919075,1.8589244869881345,1501,45,22.904066263256674,42.042485479550294
2.3710811894092534,1.8589059021129364,1501,45,22.904066263256674,42.042485479550294
2.3896655090114716,1.8588873174235594,1501,45,22.904066263256674,42.042485479550294
2.408249642801478,1.8588687329200004,1501,45,22.904066263256674,42.042485479550294
2.4268335907821075,1.8588501486022568,1501,45,22.904066263256674,42.042485479550294
2.4454173529561203,1.8588315644703253,1501,45,22.904066263256674,42.042485479550294
2.464000929326207,1.858812980524203,1501,45,22.904066263256674,42.042485479550294
2.4825843198949937,1.8587943967638874,1501,45,22.904066263256674,42.042485479550294
2.5011675246650475,1.8587758131893757,1501,45,22.904066263256674,42.042485479550294
2.5197505436388807,1.8587572298006654,1501,45,22.904066263256674,42.042485479550294
2.538333376818956,1.8587386465977536,1501,45,22.904066263256674,42.042485479550294
2.5569160242076885,1.8587200635806382,1501,45,22.904066263256674,42.042485479550294
2.5754984858074508,1.8587014807493163,1501,45,22.904066263256674,42.042485479550294
2.594080761620576,1.858682898103786,1501,45,22.904066263256674,42.042485479550294
2.6126628516493597,1.8586643156440446,1501,45,22.904066263256674,42.042485479550294
2.6312447558960654,1.8586457333700896,1501,45,22.904066263256674,42.042485479550294
2.6498264743629245,1.858627151281919,1501,45,22.904066263256674,42.042485479550294
2.6684080070521383,1.8586085693795307,1501,45,22.904066263256674,42.042485479550294
2.6869893539658833,1.858589987662922,1501,45,22.904066263256674,42.042485479550294
2.7055705151063125,1.8585714061320908,1501,45,22.904066263256674,42.042485479550294
2.724151490475552,1.8585528247870353,1501,45,22.904066263256674,42.042485479550294
2.7427322800757117,1.858534243627753,1501,45,22.904066263256674,42.042485479550294
2.7613128839088783,1.858515662654242,1501,45,22.904066263256674,42.042485479550294
2.7798933019771233,1.8584970818664999,1501,45,22.904066263256674,42.042485479550294
2.7984735342825027,1.8584785012645249,1501,45,22.904066263256674,42.042485479550294
2.817053580827053,1.8584599208483148,1501,45,22.904066263256674,42.042485479550294
2.8356334416128024,1.8584413406178675,1501,45,22.904066263256674,42.042485479550294
2.8542131166417595,1.858422760573181,1501,45,22.904066263256674,42.042485479550294
2.872792605915927,1.858404180714253,1501,45,22.904066263256674,42.042485479550294
2.8913719094372925,1.8583856010410822,1501,45,22.904066263256674,42.042485479550294
2.9099510272078355,1.858367021553666,1501,45,22.904066263256674,42.042485479550294
2.928529959229527,1.8583484422520027,1501,45,22.904066263256674,42.042485479550294
2.947108705504326,1.85832986313609,1501,45,22.904066263256674,42.042485479550294
2.965687266034187,1.8583112842059262,1501,45,22.904066263256674,42.042485479550294
2.9842656408210546,1.8582927054615093,1501,45,22.904066263256674,42.042485479550294
3.002843829866867,1.8582741269028373,1501,45,22.904066263256674,42.042485479550294
3.0214218331735583,1.8582555485299084,1501,45,22.904066263256674,42.042485479550294
3.039999650743053,1.8582369703427204,1501,45,22.904066263256674,42.042485479550294
3.0585772825772737,1.8582183923412716,1501,45,22.904066263256674,42.042485479550294
3.0771547286781353,1.8581998145255598,1501,45,22.904066263256674,42.042485479550294
3.0957319890475503,1.8581812368955835,1501,45,22.904066263256674,42.042485479550294
3.1143090636874273,1.8581626594513405,1501,45,22.904066263256674,42.042485479550294
3.132885952599668,1.8581440821928288,1501,45,22.904066263256674,42.042485479550294
3.1514626557861725,1.8581255051200467,1501,45,22.904066263256674,42.042485479550294
3.170039173248838,1.858106928232992,1501,45,22.904066263256674,42.042485479550294
3.1886155049895573,1.8580883515316633,1501,45,22.904066263256674,42.042485479550294
3.2071916510102216,1.8580697750160584,1501,45,22.904066263256674,42.042485479550294
3.2257676113127194,1.8580511986861752,1501,45,22.904066263256674,42.042485479550294
3.2443433858989352,1.8580326225420123,1501,45,22.904066263256674,42.042485479550294
3.2629189747707525,1.8580140465835675,1501,45,22.904066263256674,42.042485479550294
3.2814943779300525,1.8579954708108388,1501,45,22.904066263256674,42.042485479550294
3.300069595378715,1.8579768952238247,1501,45,22.904066263256674,42.042485479550294
3.3186446271186187,1.857958319822523,1501,45,22.904066263256674,42.042485479550294
3.3372194731516376,1.8579397446069317,1501,45,22.904066263256674,42.042485479550294
3.3557941334796477,1.8579211695770494,1501,45,22.904066263256674,42.042485479550294
3.374368608104521,1.857902594732874,1501,45,22.904066263256674,42.042485479550294
3.39294289702813,1.8578840200744033,1501,45,22.904066263256674,42.042485479550294
3.4115170002523447,1.857865445601636,1501,45,22.904066263256674,42.042485479550294
3.430090917779036,1.85784687131457,1501,45,22.904066263256674,42.042485479550294
3.448664649610071,1.8578282972132032,1501,45,22.904066263256674,42.042485479550294
3.467238195747317,1.857809723297534,1501,45,22.904066263256674,42.042485479550294
3.485811556192641,1.8577911495675603,1501,45,22.904066263256674,42.042485479550294
3.5043847309479097,1.8577725760232804,1501,45,22.904066263256674,42.042485479550294
3.522957720014988,1.8577540026646924,1501,45,22.904066263256674,42.042485479550294
3.5415305233957395,1.8577354294917945,1501,45,22.904066263256674,42.042485479550294
3.560103141092029,1.8577168565045847,1501,45,22.904066263256674,42.042485479550294
3.5786755731057194,1.8576982837030613,1501,45,22.904066263256674,42.042485479550294
3.597247819438673,1.8576797110872223,1501,45,22.904066263256674,42.042485479550294
3.615819880092753,1.8576611386570658,1501,45,22.904066263256674,42.042485479550294
3.634391755069821,1.8576425664125902,1501,45,22.904066263256674,42.042485479550294
3.6529634443717356,1.8576239943537933,1501,45,22.904066263256674,42.042485479550294
3.671534948000361,1.8576054224806735,1501,45,22.904066263256674,42.042485479550294
3.690106265957557,1.857586850793229,1501,45,22.904066263256674,42.042485479550294
3.708677398245183,1.8575682792914574,1501,45,22.904066263256674,42.042485479550294
3.727248344865098,1.8575497079753573,1501,45,22.904066263256674,42.042485479550294
3.7458191058191646,1.857531136844927,1501,45,22.904066263256674,42.042485479550294
3.764389681109239,1.8575125659001641,1501,45,22.904066263256674,42.042485479550294
3.782960070737182,1.8574939951410672,1501,45,22.904066263256674,42.042485479550294
3.801530274704852,1.8574754245676341,1501,45,22.904066263256674,42.042485479550294
3.8201002930141077,1.8574568541798633,1501,45,22.904066263256674,42.042485479550294
3.8386701256668068,1.8574382839777528,1501,45,22.904066263256674,42.042485479550294
3.8572397726648076,1.8574197139613005,1501,45,22.904066263256674,42.042485479550294
3.875809234009969,1.8574011441305047,1501,45,22.904066263256674,42.042485479550294
3.8943785097041483,1.8573825744853638,1501,45,22.904066263256674,42.042485479550294
3.9129475997492027,1.8573640050258757,1501,45,22.904066263256674,42.042485479550294
3.9315165041469897,1.8573454357520385,1501,45,22.904066263256674,42.042485479550294
3.950085222899368,1.8573268666638503,1501,45,22.904066263256674,42.042485479550294
3.968653756008194,1.8573082977613093,1501,45,22.904066263256674,42.042485479550294
3.9872221034753244,1.857289729044414,1501,45,22.904066263256674,42.042485479550294
4.005790265302617,1.857271160513162,1501,45,22.904066263256674,42.042485479550294
4.024358241491929,1.8572525921675518,1501,45,22.904066263256674,42.042485479550294
4.042926032045117,1.8572340240075813,1501,45,22.904066263256674,42.042485479550294
4.061493636964038,1.8572154560332488,1501,45,22.904066263256674,42.042485479550294
4.080061056250548,1.8571968882445524,1501,45,22.904066263256674,42.042485479550294
4.098628289906504,1.8571783206414905,1501,45,22.904066263256674,42.042485479550294
4.117195337933762,1.8571597532240607,1501,45,22.904066263256674,42.042485479550294
4.135762200334179,1.8571411859922615,1501,45,22.904066263256674,42.042485479550294
4.154328877109611,1.857122618946091,1501,45,22.904066263256674,42.042485479550294
4.1728953682619165,1.8571040520855473,1501,45,22.904066263256674,42.042485479550294
4.191461673792949,1.8570854854106285,1501,45,22.904066263256674,42.042485479550294
4.2100277937045645,1.857066918921333,1501,45,22.904066263256674,42.042485479550294
4.2285937279986205,1.8570483526176584,1501,45,22.904066263256674,42.042485479550294
4.247159476676974,1.8570297864996035,1501,45,22.904066263256674,42.042485479550294
4.26572503974148,1.857011220567166,1501,45,22.904066263256674,42.042485479550294
4.284290417193994,1.8569926548203444,1501,45,22.904066263256674,42.042485479550294
4.302855609036373,1.8569740892591364,1501,45,22.904066263256674,42.042485479550294
4.321420615270473,1.8569555238835405,1501,45,22.904066263256674,42.042485479550294
4.339985435898149,1.8569369586935547,1501,45,22.904066263256674,42.042485479550294
4.358550070921257,1.856918393689177,1501,45,22.904066263256674,42.042485479550294
4.377114520341653,1.856899828870406,1501,45,22.904066263256674,42.042485479550294
