Vout,Iout,Irradiance,Temperature,MaxVoltage,MaxPower
0.01000615378698282,2.00125,1601,50,22.92676388162132,45.28050337848666
0.030018276337694487,2.00125,1601,50,22.92676388162132,45.28050337848666
0.0500299920469742,2.001239793721213,1601,50,22.92676388162132,45.28050337848666
0.07004122823273488,2.0012197815986625,1601,50,22.92676388162132,45.28050337848666
0.09005196114120953,2.0011997698839736,1601,50,22.92676388162132,45.28050337848666
0.11006221410614782,2.0011797586497893,1601,50,22.92676388162132,45.28050337848666
0.13007200866678295,2.001159747918882,1601,50,22.92676388162132,45.28050337848666
0.1500813647054613,2.001139737667918,1601,50,22.92676388162132,45.28050337848666
0.17009030057490407,2.0011197278753587,1601,50,22.92676388162132,45.28050337848666
0.1900988332158993,2.001099718521321,1601,50,22.92676388162132,45.28050337848666
0.21010697826593777,2.0010797095874526,1601,50,22.92676388162132,45.28050337848666
0.2301147501594912,2.0010597010568123,1601,50,22.92676388162132,45.28050337848666
0.25012216222057415,2.0010396929137633,1601,50,22.92676388162132,45.28050337848666
0.2701292267481844,2.0010196851438704,1601,50,22.92676388162132,45.28050337848666
0.2901359550951695,2.00099967773381,1601,50,22.92676388162132,45.28050337848666
0.3101423577410246,2.0009796706712835,1601,50,22.92676388162132,45.28050337848666
0.33014844435909013,2.000959663944937,1601,50,22.92676388162132,45.28050337848666
0.3501542238785783,2.000939657544292,1601,50,22.92676388162132,45.28050337848666
0.37015970454182745,2.0009196514596748,1601,50,22.92676388162132,45.28050337848666
0.3901648939571514,2.0008996456821557,1601,50,22.92676388162132,45.28050337848666
0.4101697991476221,2.000879640203493,1601,50,22.92676388162132,45.28050337848666
0.43017442659609906,2.0008596350160786,1601,50,22.92676388162132,45.28050337848666
0.4501787822867946,2.0008396301128886,1601,50,22.92676388162132,45.28050337848666
0.47018287174363954,2.0008196254874404,1601,50,22.92676388162132,45.28050337848666
0.4901867000656991,2.0007996211337504,1601,50,22.92676388162132,45.28050337848666
0.5101902719598622,2.000779617046294,1601,50,22.92676388162132,45.28050337848666
0.530193591771016,2.0007596132199725,1601,50,22.92676388162132,45.28050337848666
0.550196663509899,2.0007396096500787,1601,50,22.92676388162132,45.28050337848666
0.5701994908788108,2.0007196063322676,1601,50,22.92676388162132,45.28050337848666
0.590202077295345,2.0006996032625293,1601,50,22.92676388162132,45.28050337848666
0.6102044259142928,2.0006796004371608,1601,50,22.92676388162132,45.28050337848666
0.6302065396478652,2.0006595978527444,1601,50,22.92676388162132,45.28050337848666
0.650208421184357,2.000639595506126,1601,50,22.92676388162132,45.28050337848666
0.6702100730053748,2.0006195933943927,1601,50,22.92676388162132,45.28050337848666
0.6902114974017409,2.0005995915148564,1601,50,22.92676388162132,45.28050337848666
0.7102126964881713,2.0005795898650356,1601,50,22.92676388162132,45.28050337848666
0.7302136722168265,2.0005595884426395,1601,50,22.92676388162132,45.28050337848666
0.7502144263898186,2.000539587245553,1601,50,22.92676388162132,45.28050337848666
0.7702149606707559,2.0005195862718246,1601,50,22.92676388162132,45.28050337848666
0.7902152765954,2.0004995855196515,1601,50,22.92676388162132,45.28050337848666
0.8102153755815027,2.000479584987371,1601,50,22.92676388162132,45.28050337848666
0.8302152589378851,2.0004595846734463,1601,50,22.92676388162132,45.28050337848666
0.8502149278728194,2.00043958457646,1601,50,22.92676388162132,45.28050337848666
0.8702143835017658,2.000419584695104,1601,50,22.92676388162132,45.28050337848666
0.8902136268545118,2.000399585028169,1601,50,22.92676388162132,45.28050337848666
0.9102126588817665,2.00037958557454,1601,50,22.92676388162132,45.28050337848666
0.9302114804612431,2.0003595863331873,1601,50,22.92676388162132,45.28050337848666
0.9502100924032763,2.0003395873031597,1601,50,22.92676388162132,45.28050337848666
0.9702084954560052,2.0003195884835803,1601,50,22.92676388162132,45.28050337848666
0.9902066903101611,2.000299589873638,1601,50,22.92676388162132,45.28050337848666
1.0102046776034819,2.0002795914725855,1601,50,22.92676388162132,45.28050337848666
1.0302024579247917,2.000259593279731,1601,50,22.92676388162132,45.28050337848666
1.0502000318177624,2.0002395952944374,1601,50,22.92676388162132,45.28050337848666
1.0701973997843899,2.000219597516116,1601,50,22.92676388162132,45.28050337848666
1.0901945622881979,2.000199599944223,1601,50,22.92676388162132,45.28050337848666
1.1101915197572014,2.000179602578256,1601,50,22.92676388162132,45.28050337848666
1.1301882725866355,2.000159605417752,1601,50,22.92676388162132,45.28050337848666
1.15018482114148,2.0001396084622827,1601,50,22.92676388162132,45.28050337848666
1.1701811657587862,2.000119611711453,1601,50,22.92676388162132,45.28050337848666
1.1901773067498254,2.0000996151648978,1601,50,22.92676388162132,45.28050337848666
1.2101732444020734,2.00007961882228,1601,50,22.92676388162132,45.28050337848666
1.230168978981041,2.0000596226832887,1601,50,22.92676388162132,45.28050337848666
1.250164510731964,2.000039626747636,1601,50,22.92676388162132,45.28050337848666
1.2701598398813625,2.000019631015057,1601,50,22.92676388162132,45.28050337848666
1.2901549666384822,1.9999996354853056,1601,50,22.92676388162132,45.28050337848666
1.310149891196623,1.9999796401581558,1601,50,22.92676388162132,45.28050337848666
1.3301446137343644,1.999959645033398,1601,50,22.92676388162132,45.28050337848666
1.3501391344167015,1.9999396501108395,1601,50,22.92676388162132,45.28050337848666
1.3701334533960865,1.9999196553903014,1601,50,22.92676388162132,45.28050337848666
1.3901275708133962,1.9998996608716184,1601,50,22.92676388162132,45.28050337848666
1.410121486798822,1.9998796665546386,1601,50,22.92676388162132,45.28050337848666
1.4301152014726912,1.9998596724392208,1601,50,22.92676388162132,45.28050337848666
1.4501087149462275,1.9998396785252348,1601,50,22.92676388162132,45.28050337848666
1.4701020273222503,1.9998196848125602,1601,50,22.92676388162132,45.28050337848666
1.4900951386958208,1.999799691301086,1601,50,22.92676388162132,45.28050337848666
1.5100880491548412,1.9997796979907094,1601,50,22.92676388162132,45.28050337848666
1.5300807587806042,1.9997597048813351,1601,50,22.92676388162132,45.28050337848666
1.5500732676482991,1.9997397119728755,1601,50,22.92676388162132,45.28050337848666
1.5700655758274866,1.9997197192652492,1601,50,22.92676388162132,45.28050337848666
1.5900576833825275,1.9996997267583807,1601,50,22.92676388162132,45.28050337848666
1.6100495903729846,1.9996797344522008,1601,50,22.92676388162132,45.28050337848666
1.6300412968539917,1.999659742346645,1601,50,22.92676388162132,45.28050337848666
1.6500328028765945,1.9996397504416539,1601,50,22.92676388162132,45.28050337848666
1.6700241084880634,1.999619758737172,1601,50,22.92676388162132,45.28050337848666
1.6900152137321875,1.9995997672331485,1601,50,22.92676388162132,45.28050337848666
1.7100061186495394,1.9995797759295362,1601,50,22.92676388162132,45.28050337848666
1.729996823277724,1.9995597848262914,1601,50,22.92676388162132,45.28050337848666
1.7499873276516063,1.999539793923373,1601,50,22.92676388162132,45.28050337848666
1.7699776318035223,1.999519803220744,1601,50,22.92676388162132,45.28050337848666
1.7899677357634742,1.9994998127183692,1601,50,22.92676388162132,45.28050337848666
1.8099576395593093,1.9994798224162162,1601,50,22.92676388162132,45.28050337848666
1.8299473432168853,1.9994598323142554,1601,50,22.92676388162132,45.28050337848666
1.8499368467602257,1.9994398424124586,1601,50,22.92676388162132,45.28050337848666
1.869926150211658,1.9994198527108,1601,50,22.92676388162132,45.28050337848666
1.8899152535919457,1.9993998632092558,1601,50,22.92676388162132,45.28050337848666
1.909904156920409,1.9993798739078033,1601,50,22.92676388162132,45.28050337848666
1.9298928602150345,1.999359884806422,1601,50,22.92676388162132,45.28050337848666
1.949881363492579,1.9993398959050923,1601,50,22.92676388162132,45.28050337848666
1.9698696667686637,1.9993199072037966,1601,50,22.92676388162132,45.28050337848666
1.9898577700578615,1.999299918702518,1601,50,22.92676388162132,45.28050337848666
2.0098456733737784,1.9992799304012407,1601,50,22.92676388162132,45.28050337848666
2.029833376729126,1.9992599422999504,1601,50,22.92676388162132,45.28050337848666
2.0498208801357922,1.9992399543986334,1601,50,22.92676388162132,45.28050337848666
2.069808183604904,1.9992199666972768,1601,50,22.92676388162132,45.28050337848666
2.0897952871468854,1.999199979195869,1601,50,22.92676388162132,45.28050337848666
2.1097821907715137,1.9991799918943987,1601,50,22.92676388162132,45.28050337848666
2.129768894487966,1.9991600047928555,1601,50,22.92676388162132,45.28050337848666
2.1497553983048667,1.9991400178912295,1601,50,22.92676388162132,45.28050337848666
2.1697417022303327,1.9991200311895116,1601,50,22.92676388162132,45.28050337848666
2.1897278062720065,1.9991000446876936,1601,50,22.92676388162132,45.28050337848666
2.2097137104370987,1.9990800583857666,1601,50,22.92676388162132,45.28050337848666
2.2296994147324196,1.9990600722837237,1601,50,22.92676388162132,45.28050337848666
2.249684919164406,1.9990400863815572,1601,50,22.92676388162132,45.28050337848666
2.2696702237391557,1.9990201006792605,1601,50,22.92676388162132,45.28050337848666
2.2896553284624503,1.999000115176827,1601,50,22.92676388162132,45.28050337848666
2.3096402333397803,1.9989801298742509,1601,50,22.92676388162132,45.28050337848666
2.329624938376368,1.9989601447715262,1601,50,22.92676388162132,45.28050337848666
2.349609443577186,1.9989401598686474,1601,50,22.92676388162132,45.28050337848666
2.369593748946979,1.9989201751656094,1601,50,22.92676388162132,45.28050337848666
2.389577854490281,1.998900190662407,1601,50,22.92676388162132,45.28050337848666
2.409561760211428,1.9988802063590356,1601,50,22.92676388162132,45.28050337848666
2.429545466114581,1.9988602222554908,1601,50,22.92676388162132,45.28050337848666
2.4495289722037294,1.998840238351768,1601,50,22.92676388162132,45.28050337848666
2.4695122784827115,1.9988202546478633,1601,50,22.92676388162132,45.28050337848666
2.4894953849552253,1.9988002711437727,1601,50,22.92676388162132,45.28050337848666
2.5094782916248355,1.998780287839492,1601,50,22.92676388162132,45.28050337848666
2.529460998494988,1.9987603047350178,1601,50,22.92676388162132,45.28050337848666
2.5494435055690157,1.9987403218303466,1601,50,22.92676388162132,45.28050337848666
2.56942581285015,1.9987203391254746,1601,50,22.92676388162132,45.28050337848666
2.5894079203415266,1.998700356620399,1601,50,22.92676388162132,45.28050337848666
2.6093898280461945,1.998680374315116,1601,50,22.92676388162132,45.28050337848666
2.62937153596712,1.998660392209623,1601,50,22.92676388162132,45.28050337848666
2.6493530441071966,1.9986404103039166,1601,50,22.92676388162132,45.28050337848666
2.669334352469247,1.9986204285979938,1601,50,22.92676388162132,45.28050337848666
2.6893154610560344,1.998600447091852,1601,50,22.92676388162132,45.28050337848666
2.7092963698702563,1.998580465785488,1601,50,22.92676388162132,45.28050337848666
2.729277078914564,1.9985604846788994,1601,50,22.92676388162132,45.28050337848666
2.7492575881915515,1.9985405037720834,1601,50,22.92676388162132,45.28050337848666
2.7692378977037717,1.9985205230650371,1601,50,22.92676388162132,45.28050337848666
2.7892180074537323,1.9985005425577582,1601,50,22.92676388162132,45.28050337848666
2.8091979174439023,1.9984805622502442,1601,50,22.92676388162132,45.28050337848666
2.829177627676714,1.9984605821424921,1601,50,22.92676388162132,45.28050337848666
2.849157138154568,1.9984406022345,1601,50,22.92676388162132,45.28050337848666
2.8691364488798317,1.9984206225262653,1601,50,22.92676388162132,45.28050337848666
2.889115559854845,1.9984006430177854,1601,50,22.92676388162132,45.28050337848666
2.9090944710819198,1.9983806637090582,1601,50,22.92676388162132,45.28050337848666
2.929073182563347,1.998360684600081,1601,50,22.92676388162132,45.28050337848666
2.949051694301392,1.998340705690852,1601,50,22.92676388162132,45.28050337848666
2.9690300062983006,1.9983207269813683,1601,50,22.92676388162132,45.28050337848666
2.989008118556299,1.9983007484716282,1601,50,22.92676388162132,45.28050337848666
3.008986031077596,1.9982807701616292,1601,50,22.92676388162132,45.28050337848666
3.0289637438643853,1.998260792051369,1601,50,22.92676388162132,45.28050337848666
3.048941256918843,1.9982408141408456,1601,50,22.92676388162132,45.28050337848666
3.068918570243133,1.9982208364300567,1601,50,22.92676388162132,45.28050337848666
3.088895683839407,1.998200858919,1601,50,22.92676388162132,45.28050337848666
3.1088725977098015,1.9981808816076734,1601,50,22.92676388162132,45.28050337848666
3.1288493118564467,1.9981609044960749,1601,50,22.92676388162132,45.28050337848666
3.148825826281458,1.9981409275842021,1601,50,22.92676388162132,45.28050337848666
3.1688021409869465,1.9981209508720532,1601,50,22.92676388162132,45.28050337848666
3.1887782559750097,1.998100974359626,1601,50,22.92676388162132,45.28050337848666
3.208754171247741,1.998080998046918,1601,50,22.92676388162132,45.28050337848666
3.2287298868072236,1.9980610219339277,1601,50,22.92676388162132,45.28050337848666
3.2487054026555375,1.9980410460206526,1601,50,22.92676388162132,45.28050337848666
3.268680718794752,1.9980210703070909,1601,50,22.92676388162132,45.28050337848666
3.288655835226933,1.99800109479324,1601,50,22.92676388162132,45.28050337848666
3.308630751954142,1.9979811194790984,1601,50,22.92676388162132,45.28050337848666
3.3286054689784335,1.9979611443646639,1601,50,22.92676388162132,45.28050337848666
3.348579986301859,1.997941169449934,1601,50,22.92676388162132,45.28050337848666
3.368554303926465,1.9979211947349074,1601,50,22.92676388162132,45.28050337848666
3.3885284218542933,1.9979012202195814,1601,50,22.92676388162132,45.28050337848666
3.408502340087385,1.9978812459039543,1601,50,22.92676388162132,45.28050337848666
3.428476058627775,1.997861271788024,1601,50,22.92676388162132,45.28050337848666
3.4484495774774953,1.9978412978717883,1601,50,22.92676388162132,45.28050337848666
3.468422896638577,1.9978213241552452,1601,50,22.92676388162132,45.28050337848666
3.488396016113048,1.997801350638393,1601,50,22.92676388162132,45.28050337848666
3.5083689359029324,1.9977813773212292,1601,50,22.92676388162132,45.28050337848666
3.528341656010254,1.9977614042037521,1601,50,22.92676388162132,45.28050337848666
3.5483141764370325,1.9977414312859596,1601,50,22.92676388162132,45.28050337848666
3.568286497185286,1.9977214585678496,1601,50,22.92676388162132,45.28050337848666
3.5882586182570333,1.99770148604942,1601,50,22.92676388162132,45.28050337848666
3.6082305396542904,1.9976815137306692,1601,50,22.92676388162132,45.28050337848666
3.6282022613790694,1.9976615416115946,1601,50,22.92676388162132,45.28050337848666
3.648173783433384,1.9976415696921945,1601,50,22.92676388162132,45.28050337848666
3.6681451058192454,1.997621597972467,1601,50,22.92676388162132,45.28050337848666
3.688116228538663,1.99760162645241,1601,50,22.92676388162132,45.28050337848666
3.708087151593646,1.9975816551320211,1601,50,22.92676388162132,45.28050337848666
3.7280578749862032,1.9975616840112989,1601,50,22.92676388162132,45.28050337848666
3.748028398718342,1.997541713090241,1601,50,22.92676388162132,45.28050337848666
3.7679987227920675,1.9975217423688456,1601,50,22.92676388162132,45.28050337848666
3.7879688472093855,1.9975017718471106,1601,50,22.92676388162132,45.28050337848666
3.807938771972302,1.997481801525034,1601,50,22.92676388162132,45.28050337848666
3.82790849708282,1.9974618314026136,1601,50,22.92676388162132,45.28050337848666
3.8478780225429423,1.9974418614798477,1601,50,22.92676388162132,45.28050337848666
3.867847348354672,1.9974218917567341,1601,50,22.92676388162132,45.28050337848666
3.8878164745200112,1.997401922233271,1601,50,22.92676388162132,45.28050337848666
3.9077854010409623,1.9973819529094563,1601,50,22.92676388162132,45.28050337848666
3.9277541279195263,1.997361983785288,1601,50,22.92676388162132,45.28050337848666
3.9477226551577043,1.997342014860764,1601,50,22.92676388162132,45.28050337848666
3.9676909827574964,1.9973220461358823,1601,50,22.92676388162132,45.28050337848666
3.9876591107209034,1.997302077610641,1601,50,22.92676388162132,45.28050337848666
4.0076270390499245,1.9972821092850381,1601,50,22.92676388162132,45.28050337848666
4.0275947677465584,1.9972621411590716,1601,50,22.92676388162132,45.28050337848666
4.047562296812806,1.9972421732327394,1601,50,22.92676388162132,45.28050337848666
4.067529626250666,1.9972222055060396,1601,50,22.92676388162132,45.28050337848666
4.0874967560621345,1.99720223797897,1601,50,22.92676388162132,45.28050337848666
4.107463686249212,1.997182270651529,1601,50,22.92676388162132,45.28050337848666
4.1274304168138976,1.9971623035237143,1601,50,22.92676388162132,45.28050337848666
4.147396947758187,1.9971423365955239,1601,50,22.92676388162132,45.28050337848666
4.167363279084078,1.997122369866956,1601,50,22.92676388162132,45.28050337848666
4.187329410793573,1.9971024033380083,1601,50,22.92676388162132,45.28050337848666
4.207295342888662,1.997082437008679,1601,50,22.92676388162132,45.28050337848666
4.227261075371347,1.9970624708789664,1601,50,22.92676388162132,45.28050337848666
4.247226608243624,1.9970425049488678,1601,50,22.92676388162132,45.28050337848666
4.26719194150749,1.9970225392183818,1601,50,22.92676388162132,45.28050337848666
4.2871570751649415,1.997002573687506,1601,50,22.92676388162132,45.28050337848666
4.307122009217976,1.9969826083562388,1601,50,22.92676388162132,45.28050337848666
4.32708674366859,1.996962643224578,1601,50,22.92676388162132,45.28050337848666
4.347051278518779,1.9969426782925215,1601,50,22.92676388162132,45.28050337848666
4.367015613770541,1.9969227135600673,1601,50,22.92676388162132,45.28050337848666
4.386979749425872,1.9969027490272135,1601,50,22.92676388162132,45.28050337848666
4.406943685486768,1.9968827846939583,1601,50,22.92676388162132,45.28050337848666
4.426907421955224,1.9968628205602994,1601,50,22.92676388162132,45.28050337848666
4.446870958833238,1.996842856626235,1601,50,22.92676388162132,45.28050337848666
4.466834296122805,1.9968228928917628,1601,50,22.92676388162132,45.28050337848666
4.486797433825922,1.9968029293568812,1601,50,22.92676388162132,45.28050337848666
4.5067603719445835,1.9967829660215881,1601,50,22.92676388162132,45.28050337848666
4.526723110480787,1.9967630028858814,1601,50,22.92676388162132,45.28050337848666
4.546685649436527,1.996743039949759,1601,50,22.92676388162132,45.28050337848666
4.5666479888137985,1.9967230772132192,1601,50,22.92676388162132,45.28050337848666
4.586610128614599,1.9967031146762597,1601,50,22.92676388162132,45.28050337848666
4.606572068840924,1.9966831523388786,1601,50,22.92676388162132,45.28050337848666
4.626533809494768,1.996663190201074,1601,50,22.92676388162132,45.28050337848666
4.646495350578127,1.9966432282628441,1601,50,22.92676388162132,45.28050337848666
4.666456692092997,1.9966232665241863,1601,50,22.92676388162132,45.28050337848666
4.6864178340413725,1.9966033049850993,1601,50,22.92676388162132,45.28050337848666
4.706378776425249,1.9965833436455807,1601,50,22.92676388162132,45.28050337848666
4.726339519246625,1.9965633825056284,1601,50,22.92676388162132,45.28050337848666
4.7463000625074905,1.9965434215652407,1601,50,22.92676388162132,45.28050337848666
4.766260406209845,1.9965234608244153,1601,50,22.92676388162132,45.28050337848666
4.786220550355681,1.9965035002831506,1601,50,22.92676388162132,45.28050337848666
4.8061804949469975,1.9964835399414442,1601,50,22.92676388162132,45.28050337848666
4.826140239985786,1.9964635797992945,1601,50,22.92676388162132,45.28050337848666
