Vout,Iout,Irradiance,Temperature,MaxVoltage,MaxPower
5.649945673599293e-06,0.00113,1,-10,0.20479632964113892,0.00018948208564371688
1.694973254795491e-05,0.00113,1,-10,0.20479632964113892,0.00018948208564371688
2.8249289700477617e-05,0.0011299942370543263,1,-10,0.20479632964113892,0.00018948208564371688
3.9548576091438044e-05,0.0011299829372674519,1,-10,0.20479632964113892,0.00018948208564371688
5.0847578308340644e-05,0.0011299716377108757,1,-10,0.20479632964113892,0.00018948208564371688
6.214630952651942e-05,0.0011299603384256147,1,-10,0.20479632964113892,0.00018948208564371688
7.34447819080398e-05,0.0011299490394245278,1,-10,0.20479632964113892,0.00018948208564371688
8.474300667941097e-05,0.0011299377406944395,1,-10,0.20479632964113892,0.00018948208564371688
9.604099420344363e-05,0.001129926442223188,1,-10,0.20479632964113892,0.00018948208564371688
0.0001073387540457045,0.0011299151439995464,1,-10,0.20479632964113892,0.00018948208564371688
0.00011863629503585738,0.0011299038460131524,1,-10,0.20479632964113892,0.00018948208564371688
0.0001299336253242848,0.0011298925482544399,1,-10,0.20479632964113892,0.00018948208564371688
0.0001412307524343529,0.0011298812507145794,1,-10,0.20479632964113892,0.00018948208564371688
0.000152527683310655,0.0011298699533854209,1,-10,0.20479632964113892,0.00018948208564371688
0.0001638244243635435,0.0011298586562594405,1,-10,0.20479632964113892,0.00018948208564371688
0.00017512098151023498,0.0011298473593296938,1,-10,0.20479632964113892,0.00018948208564371688
0.00018641736021275286,0.0011298360625897708,1,-10,0.20479632964113892,0.00018948208564371688
0.00019771356551295105,0.0011298247660337538,1,-10,0.20479632964113892,0.00018948208564371688
0.0002090096020648419,0.0011298134696561808,1,-10,0.20479632964113892,0.00018948208564371688
0.00022030547416443765,0.0011298021734520104,1,-10,0.20479632964113892,0.00018948208564371688
0.00023160118577729557,0.001129790877416588,1,-10,0.20479632964113892,0.00018948208564371688
0.00024289674056394343,0.0011297795815456181,1,-10,0.20479632964113892,0.00018948208564371688
0.00025419214190334924,0.0011297682858351348,1,-10,0.20479632964113892,0.00018948208564371688
0.0002654873929145846,0.001129756990281478,1,-10,0.20479632964113892,0.00018948208564371688
0.00027678249647682194,0.001129745694881268,1,-10,0.20479632964113892,0.00018948208564371688
0.00028807745524779224,0.0011297343996313862,1,-10,0.20479632964113892,0.00018948208564371688
0.00029937227168082346,0.0011297231045289536,1,-10,0.20479632964113892,0.00018948208564371688
0.0003106669480405674,0.0011297118095713122,1,-10,0.20479632964113892,0.00018948208564371688
0.00032196148641751716,0.0011297005147560086,1,-10,0.20479632964113892,0.00018948208564371688
0.0003332558887414064,0.0011296892200807784,1,-10,0.20479632964113892,0.00018948208564371688
0.0003445501567935792,0.0011296779255435309,1,-10,0.20479632964113892,0.00018948208564371688
0.00035584429221840715,0.0011296666311423366,1,-10,0.20479632964113892,0.00018948208564371688
0.0003671382965338278,0.0011296553368754139,1,-10,0.20479632964113892,0.00018948208564371688
0.0003784321711410733,0.0011296440427411183,1,-10,0.20479632964113892,0.00018948208564371688
0.0003897259173336497,0.0011296327487379323,1,-10,0.20479632964113892,0.00018948208564371688
0.0004010195363056254,0.0011296214548644546,1,-10,0.20479632964113892,0.00018948208564371688
0.0004123130291592821,0.0011296101611193913,1,-10,0.20479632964113892,0.00018948208564371688
0.0004236063969121771,0.0011295988675015488,1,-10,0.20479632964113892,0.00018948208564371688
0.00043489964050366203,0.0011295875740098245,1,-10,0.20479632964113892,0.00018948208564371688
0.00044619276080090035,0.001129576280643201,1,-10,0.20479632964113892,0.00018948208564371688
0.0004574857586044212,0.0011295649874007389,1,-10,0.20479632964113892,0.00018948208564371688
0.0004687786346532467,0.001129553694281571,1,-10,0.20479632964113892,0.00018948208564371688
0.00048007138962962445,0.0011295424012848967,1,-10,0.20479632964113892,0.00018948208564371688
0.0004913640241633953,0.0011295311084099772,1,-10,0.20479632964113892,0.00018948208564371688
0.0005026565388360266,0.0011295198156561301,1,-10,0.20479632964113892,0.00018948208564371688
0.0005139489341843328,0.0011295085230227256,1,-10,0.20479632964113892,0.00018948208564371688
0.0005252412107039123,0.0011294972305091824,1,-10,0.20479632964113892,0.00018948208564371688
0.0005365333688523182,0.0011294859381149633,1,-10,0.20479632964113892,0.00018948208564371688
0.0005478254090519854,0.001129474645839573,1,-10,0.20479632964113892,0.00018948208564371688
0.0005591173316929328,0.0011294633536825538,1,-10,0.20479632964113892,0.00018948208564371688
0.0005704091371352576,0.0011294520616434833,1,-10,0.20479632964113892,0.00018948208564371688
0.0005817008257114375,0.0011294407697219717,1,-10,0.20479632964113892,0.00018948208564371688
0.0005929923977284555,0.0011294294779176585,1,-10,0.20479632964113892,0.00018948208564371688
0.0006042838534697615,0.0011294181862302115,1,-10,0.20479632964113892,0.00018948208564371688
0.0006155751931970837,0.0011294068946593237,1,-10,0.20479632964113892,0.00018948208564371688
0.0006268664171520987,0.0011293956032047115,1,-10,0.20479632964113892,0.00018948208564371688
0.0006381575255579753,0.0011293843118661134,1,-10,0.20479632964113892,0.00018948208564371688
0.0006494485186207981,0.0011293730206432876,1,-10,0.20479632964113892,0.00018948208564371688
0.0006607393965308823,0.0011293617295360108,1,-10,0.20479632964113892,0.00018948208564371688
0.0006720301594639863,0.001129350438544077,1,-10,0.20479632964113892,0.00018948208564371688
0.0006833208075824324,0.0011293391476672962,1,-10,0.20479632964113892,0.00018948208564371688
0.0006946113410361408,0.0011293278569054922,1,-10,0.20479632964113892,0.00018948208564371688
0.0007059017599635826,0.0011293165662585028,1,-10,0.20479632964113892,0.00018948208564371688
0.0007171920644926619,0.0011293052757261782,1,-10,0.20479632964113892,0.00018948208564371688
0.0007284822547415292,0.0011292939853083798,1,-10,0.20479632964113892,0.00018948208564371688
0.00073977233081933,0.0011292826950049797,1,-10,0.20479632964113892,0.00018948208564371688
0.0007510622928268994,0.00112927140481586,1,-10,0.20479632964113892,0.00018948208564371688
0.0007623521408574008,0.0011292601147409112,1,-10,0.20479632964113892,0.00018948208564371688
0.0007736418749969163,0.0011292488247800325,1,-10,0.20479632964113892,0.00018948208564371688
0.0007849314953249912,0.0011292375349331312,1,-10,0.20479632964113892,0.00018948208564371688
0.0007962210019151377,0.0011292262452001205,1,-10,0.20479632964113892,0.00018948208564371688
0.0008075103948352988,0.0011292149555809214,1,-10,0.20479632964113892,0.00018948208564371688
0.0008187996741482762,0.0011292036660754603,1,-10,0.20479632964113892,0.00018948208564371688
0.0008300888399121266,0.001129192376683669,1,-10,0.20479632964113892,0.00018948208564371688
0.0008413778921805263,0.0011291810874054851,1,-10,0.20479632964113892,0.00018948208564371688
0.0008526668310031091,0.0011291697982408501,1,-10,0.20479632964113892,0.00018948208564371688
0.0008639556564257755,0.0011291585091897107,1,-10,0.20479632964113892,0.00018948208564371688
0.0008752443684909827,0.001129147220252017,1,-10,0.20479632964113892,0.00018948208564371688
0.0008865329672380067,0.0011291359314277232,1,-10,0.20479632964113892,0.00018948208564371688
0.0008978214527031892,0.001129124642716787,1,-10,0.20479632964113892,0.00018948208564371688
0.000909109824920162,0.0011291133541191688,1,-10,0.20479632964113892,0.00018948208564371688
0.000920398083920056,0.0011291020656348325,1,-10,0.20479632964113892,0.00018948208564371688
0.0009316862297316941,0.0011290907772637444,1,-10,0.20479632964113892,0.00018948208564371688
0.000942974262381768,0.0011290794890058734,1,-10,0.20479632964113892,0.00018948208564371688
0.0009542621818950024,0.0011290682008611905,1,-10,0.20479632964113892,0.00018948208564371688
0.0009655499882943068,0.0011290569128296693,1,-10,0.20479632964113892,0.00018948208564371688
0.0009768376816009143,0.0011290456249112848,1,-10,0.20479632964113892,0.00018948208564371688
0.0009881252618345118,0.0011290343371060144,1,-10,0.20479632964113892,0.00018948208564371688
0.0009994127290133576,0.0011290230494138366,1,-10,0.20479632964113892,0.00018948208564371688
0.001010700083154392,0.0011290117618347317,1,-10,0.20479632964113892,0.00018948208564371688
0.0010219873242733391,0.0011290004743686817,1,-10,0.20479632964113892,0.00018948208564371688
0.0010332744523848,0.0011289891870156694,1,-10,0.20479632964113892,0.00018948208564371688
0.0010445614675023388,0.001128977899775679,1,-10,0.20479632964113892,0.00018948208564371688
0.0010558483696385629,0.0011289666126486964,1,-10,0.20479632964113892,0.00018948208564371688
0.0010671351588051963,0.0011289553256347076,1,-10,0.20479632964113892,0.00018948208564371688
0.001078421835013148,0.0011289440387337,1,-10,0.20479632964113892,0.00018948208564371688
0.0010897083982725742,0.0011289327519456622,1,-10,0.20479632964113892,0.00018948208564371688
0.0011009948485929367,0.0011289214652705829,1,-10,0.20479632964113892,0.00018948208564371688
0.0011122811859830555,0.0011289101787084522,1,-10,0.20479632964113892,0.00018948208564371688
0.0011235674104511598,0.0011288988922592605,1,-10,0.20479632964113892,0.00018948208564371688
0.0011348535220049316,0.001128887605922999,1,-10,0.20479632964113892,0.00018948208564371688
0.0011461395206515486,0.0011288763196996596,1,-10,0.20479632964113892,0.00018948208564371688
0.0011574254063977235,0.0011288650335892344,1,-10,0.20479632964113892,0.00018948208564371688
0.0011687111792497394,0.0011288537475917164,1,-10,0.20479632964113892,0.00018948208564371688
0.001179996839213482,0.001128842461707099,1,-10,0.20479632964113892,0.00018948208564371688
0.0011912823862944713,0.0011288311759353755,1,-10,0.20479632964113892,0.00018948208564371688
0.0012025678204978893,0.0011288198902765403,1,-10,0.20479632964113892,0.00018948208564371688
0.0012138531418286068,0.001128808604730588,1,-10,0.20479632964113892,0.00018948208564371688
0.0012251383502912053,0.001128797319297513,1,-10,0.20479632964113892,0.00018948208564371688
0.0012364234458900017,0.0011287860339773109,1,-10,0.20479632964113892,0.00018948208564371688
0.0012477084286290673,0.0011287747487699767,1,-10,0.20479632964113892,0.00018948208564371688
0.001258993298512246,0.0011287634636755065,1,-10,0.20479632964113892,0.00018948208564371688
0.0012702780555431741,0.001128752178693896,1,-10,0.20479632964113892,0.00018948208564371688
0.001281562699725294,0.0011287408938251413,1,-10,0.20479632964113892,0.00018948208564371688
0.0012928472310618701,0.0011287296090692388,1,-10,0.20479632964113892,0.00018948208564371688
0.001304131649556003,0.0011287183244261853,1,-10,0.20479632964113892,0.00018948208564371688
0.0013154159552106405,0.0011287070398959772,1,-10,0.20479632964113892,0.00018948208564371688
0.0013267001480285912,0.0011286957554786114,1,-10,0.20479632964113892,0.00018948208564371688
0.0013379842280125346,0.0011286844711740852,1,-10,0.20479632964113892,0.00018948208564371688
0.0013492681951650296,0.0011286731869823959,1,-10,0.20479632964113892,0.00018948208564371688
0.001360552049488526,0.0011286619029035403,1,-10,0.20479632964113892,0.00018948208564371688
0.0013718357909853717,0.0011286506189375162,1,-10,0.20479632964113892,0.00018948208564371688
0.00138311941965782,0.001128639335084321,1,-10,0.20479632964113892,0.00018948208564371688
0.0013944029355080388,0.0011286280513439528,1,-10,0.20479632964113892,0.00018948208564371688
0.001405686338538115,0.0011286167677164085,1,-10,0.20479632964113892,0.00018948208564371688
0.0014169696287500626,0.0011286054842016867,1,-10,0.20479632964113892,0.00018948208564371688
0.001428252806145826,0.0011285942007997851,1,-10,0.20479632964113892,0.00018948208564371688
0.001439535870727288,0.0011285829175107015,1,-10,0.20479632964113892,0.00018948208564371688
0.0014508188224962735,0.001128571634334434,1,-10,0.20479632964113892,0.00018948208564371688
0.0014621016614545523,0.0011285603512709809,1,-10,0.20479632964113892,0.00018948208564371688
0.001473384387603846,0.0011285490683203402,1,-10,0.20479632964113892,0.00018948208564371688
0.0014846670009458307,0.0011285377854825102,1,-10,0.20479632964113892,0.00018948208564371688
0.001495949501482139,0.0011285265027574892,1,-10,0.20479632964113892,0.00018948208564371688
0.0015072318892143655,0.0011285152201452756,1,-10,0.20479632964113892,0.00018948208564371688
0.0015185141641440685,0.0011285039376458675,1,-10,0.20479632964113892,0.00018948208564371688
0.0015297963262727741,0.0011284926552592636,1,-10,0.20479632964113892,0.00018948208564371688
0.0015410783756019768,0.0011284813729854621,1,-10,0.20479632964113892,0.00018948208564371688
0.0015523603121331427,0.0011284700908244616,1,-10,0.20479632964113892,0.00018948208564371688
0.001563642135867713,0.0011284588087762607,1,-10,0.20479632964113892,0.00018948208564371688
0.0015749238468071034,0.0011284475268408577,1,-10,0.20479632964113892,0.00018948208564371688
0.0015862054449527084,0.0011284362450182514,1,-10,0.20479632964113892,0.00018948208564371688
0.0015974869303059017,0.0011284249633084402,1,-10,0.20479632964113892,0.00018948208564371688
0.001608768302868038,0.0011284136817114228,1,-10,0.20479632964113892,0.00018948208564371688
0.001620049562640454,0.0011284024002271977,1,-10,0.20479632964113892,0.00018948208564371688
0.0016313307096244714,0.0011283911188557636,1,-10,0.20479632964113892,0.00018948208564371688
0.001642611743821396,0.0011283798375971194,1,-10,0.20479632964113892,0.00018948208564371688
0.0016538926652325198,0.0011283685564512636,1,-10,0.20479632964113892,0.00018948208564371688
0.0016651734738591239,0.0011283572754181947,1,-10,0.20479632964113892,0.00018948208564371688
0.0016764541697024751,0.0011283459944979118,1,-10,0.20479632964113892,0.00018948208564371688
0.0016877347527638313,0.0011283347136904133,1,-10,0.20479632964113892,0.00018948208564371688
0.0016990152230444392,0.001128323432995698,1,-10,0.20479632964113892,0.00018948208564371688
0.0017102955805455367,0.0011283121524137648,1,-10,0.20479632964113892,0.00018948208564371688
0.0017215758252683536,0.0011283008719446123,1,-10,0.20479632964113892,0.00018948208564371688
0.0017328559572141113,0.001128289591588239,1,-10,0.20479632964113892,0.00018948208564371688
0.0017441359763840242,0.0011282783113446444,1,-10,0.20479632964113892,0.00018948208564371688
0.0017554158827793006,0.0011282670312138267,1,-10,0.20479632964113892,0.00018948208564371688
0.001766695676401141,0.0011282557511957847,1,-10,0.20479632964113892,0.00018948208564371688
0.0017779753572507418,0.0011282444712905175,1,-10,0.20479632964113892,0.00018948208564371688
0.0017892549253292935,0.0011282331914980236,1,-10,0.20479632964113892,0.00018948208564371688
0.0018005343806379815,0.001128221911818302,1,-10,0.20479632964113892,0.00018948208564371688
0.0018118137231779871,0.0011282106322513515,1,-10,0.20479632964113892,0.00018948208564371688
0.0018230929529504875,0.0011281993527971707,1,-10,0.20479632964113892,0.00018948208564371688
0.0018343720699566556,0.0011281880734557586,1,-10,0.20479632964113892,0.00018948208564371688
0.0018456510741976613,0.0011281767942271142,1,-10,0.20479632964113892,0.00018948208564371688
0.0018569299656746709,0.001128165515111236,1,-10,0.20479632964113892,0.00018948208564371688
0.0018682087443888473,0.0011281542361081228,1,-10,0.20479632964113892,0.00018948208564371688
0.001879487410341352,0.0011281429572177737,1,-10,0.20479632964113892,0.00018948208564371688
0.001890765963533342,0.0011281316784401874,1,-10,0.20479632964113892,0.00018948208564371688
0.001902044403965974,0.0011281203997753628,1,-10,0.20479632964113892,0.00018948208564371688
0.001913322731640401,0.0011281091212232987,1,-10,0.20479632964113892,0.00018948208564371688
0.0019246009465577743,0.001128097842783994,1,-10,0.20479632964113892,0.00018948208564371688
0.0019358790487192434,0.0011280865644574475,1,-10,0.20479632964113892,0.00018948208564371688
0.0019471570381259565,0.0011280752862436578,1,-10,0.20479632964113892,0.00018948208564371688
0.0019584349147790596,0.0011280640081426242,1,-10,0.20479632964113892,0.00018948208564371688
0.001969712678679698,0.0011280527301543455,1,-10,0.20479632964113892,0.00018948208564371688
0.0019809903298290145,0.00112804145227882,1,-10,0.20479632964113892,0.00018948208564371688
0.0019922678682281515,0.0011280301745160471,1,-10,0.20479632964113892,0.00018948208564371688
0.00200354529387825,0.0011280188968660256,1,-10,0.20479632964113892,0.00018948208564371688
0.00201482260678045,0.0011280076193287544,1,-10,0.20479632964113892,0.00018948208564371688
0.00202609980693589,0.001127996341904232,1,-10,0.20479632964113892,0.00018948208564371688
0.002037376894345709,0.0011279850645924577,1,-10,0.20479632964113892,0.00018948208564371688
0.0020486538690110434,0.0011279737873934298,1,-10,0.20479632964113892,0.00018948208564371688
0.00205993073093303,0.0011279625103071478,1,-10,0.20479632964113892,0.00018948208564371688
0.002071207480112804,0.0011279512333336101,1,-10,0.20479632964113892,0.00018948208564371688
0.002082484116551501,0.0011279399564728158,1,-10,0.20479632964113892,0.00018948208564371688
0.0020937606402502544,0.0011279286797247637,1,-10,0.20479632964113892,0.00018948208564371688
0.0021050370512102,0.0011279174030894529,1,-10,0.20479632964113892,0.00018948208564371688
0.002116313349432469,0.0011279061265668817,1,-10,0.20479632964113892,0.00018948208564371688
0.0021275895349181957,0.0011278948501570495,1,-10,0.20479632964113892,0.00018948208564371688
0.0021388656076685116,0.0011278835738599549,1,-10,0.20479632964113892,0.00018948208564371688
0.002150141567684549,0.0011278722976755967,1,-10,0.20479632964113892,0.00018948208564371688
0.0021614174149674394,0.001127861021603974,1,-10,0.20479632964113892,0.00018948208564371688
0.002172693149518314,0.0011278497456450856,1,-10,0.20479632964113892,0.00018948208564371688
0.0021839687713383037,0.0011278384697989304,1,-10,0.20479632964113892,0.00018948208564371688
0.0021952442804285387,0.001127827194065507,1,-10,0.20479632964113892,0.00018948208564371688
0.00220651967679015,0.0011278159184448147,1,-10,0.20479632964113892,0.00018948208564371688
0.0022177949604242674,0.001127804642936852,1,-10,0.20479632964113892,0.00018948208564371688
0.002229070131332021,0.001127793367541618,1,-10,0.20479632964113892,0.00018948208564371688
0.0022403451895145394,0.0011277820922591113,1,-10,0.20479632964113892,0.00018948208564371688
0.002251620134972953,0.0011277708170893313,1,-10,0.20479632964113892,0.00018948208564371688
0.00226289496770839,0.0011277595420322761,1,-10,0.20479632964113892,0.00018948208564371688
0.002274169687721981,0.0011277482670879453,1,-10,0.20479632964113892,0.00018948208564371688
0.002285444295014852,0.0011277369922563373,1,-10,0.20479632964113892,0.00018948208564371688
0.0022967187895881346,0.0011277257175374513,1,-10,0.20479632964113892,0.00018948208564371688
0.0023079931714429557,0.0011277144429312858,1,-10,0.20479632964113892,0.00018948208564371688
0.002319267440580444,0.0011277031684378401,1,-10,0.20479632964113892,0.00018948208564371688
0.002330541597001728,0.0011276918940571127,1,-10,0.20479632964113892,0.00018948208564371688
0.002341815640707935,0.0011276806197891027,1,-10,0.20479632964113892,0.00018948208564371688
0.002353089571700194,0.0011276693456338089,1,-10,0.20479632964113892,0.00018948208564371688
0.0023643633899796323,0.00112765807159123,1,-10,0.20479632964113892,0.00018948208564371688
0.0023756370955473785,0.001127646797661365,1,-10,0.20479632964113892,0.00018948208564371688
0.00238691068840456,0.0011276355238442131,1,-10,0.20479632964113892,0.00018948208564371688
0.002398184168552304,0.0011276242501397729,1,-10,0.20479632964113892,0.00018948208564371688
