Vout,Iout,Irradiance,Temperature,MaxVoltage,MaxPower
0.002755473505062451,0.5510999999999999,501,-25,18.24518350989042,9.72222733663406
0.008266369563874292,0.5510999999999999,501,-25,18.24518350989042,9.72222733663406
0.013777153587551518,0.5510971894164949,501,-25,18.24518350989042,9.72222733663406
0.019287805561054437,0.5510916785204361,501,-25,18.24518350989042,9.72222733663406
0.02479831894312083,0.5510861677366934,501,-25,18.24518350989042,9.72222733663406
0.03030870015934943,0.551080657085271,501,-25,18.24518350989042,9.72222733663406
0.0358189551411688,0.5510751465724401,501,-25,18.24518350989042,9.72222733663406
0.04132908936373751,0.5510696361917748,501,-25,18.24518350989042,9.72222733663406
0.0468391078809892,0.5510641259373441,501,-25,18.24518350989042,9.72222733663406
0.05234901535804226,0.5510586158036725,501,-25,18.24518350989042,9.72222733663406
0.057858816101115956,0.5510531057857063,501,-25,18.24518350989042,9.72222733663406
0.06336851408514459,0.5510475958787803,501,-25,18.24518350989042,9.72222733663406
0.06887811297926717,0.5510420860785882,501,-25,18.24518350989042,9.72222733663406
0.07438761617035575,0.5510365763811552,501,-25,18.24518350989042,9.72222733663406
0.07989702678473348,0.551031066782812,501,-25,18.24518350989042,9.72222733663406
0.08540634770822166,0.5510255572801719,501,-25,18.24518350989042,9.72222733663406
0.09091558160464436,0.5510200478701085,501,-25,18.24518350989042,9.72222733663406
0.09642473093290914,0.5510145385497359,501,-25,18.24518350989042,9.72222733663406
0.10193379796277378,0.5510090293163905,501,-25,18.24518350989042,9.72222733663406
0.10744278478939967,0.5510035201676131,501,-25,18.24518350989042,9.72222733663406
0.1129516933467855,0.5509980111011342,501,-25,18.24518350989042,9.72222733663406
0.11846052542016748,0.5509925021148585,501,-25,18.24518350989042,9.72222733663406
0.1239692826574653,0.5509869932068521,501,-25,18.24518350989042,9.72222733663406
0.12947796657984742,0.5509814843753296,501,-25,18.24518350989042,9.72222733663406
0.13498657859148372,0.5509759756186431,501,-25,18.24518350989042,9.72222733663406
0.1404951199885472,0.5509704669352716,501,-25,18.24518350989042,9.72222733663406
0.14600359196752372,0.5509649583238109,501,-25,18.24518350989042,9.72222733663406
0.15151199563288206,0.5509594497829646,501,-25,18.24518350989042,9.72222733663406
0.15702033200415375,0.5509539413115365,501,-25,18.24518350989042,9.72222733663406
0.16252860202246824,0.5509484329084221,501,-25,18.24518350989042,9.72222733663406
0.16803680655658546,0.5509429245726016,501,-25,18.24518350989042,9.72222733663406
0.17354494640846396,0.5509374163031342,501,-25,18.24518350989042,9.72222733663406
0.1790530223184005,0.5509319080991509,501,-25,18.24518350989042,9.72222733663406
0.18456103496977486,0.5509263999598498,501,-25,18.24518350989042,9.72222733663406
0.1900689849934287,0.5509208918844907,501,-25,18.24518350989042,9.72222733663406
0.19557687297170817,0.5509153838723901,501,-25,18.24518350989042,9.72222733663406
0.20108469944219504,0.5509098759229173,501,-25,18.24518350989042,9.72222733663406
0.20659246490115118,0.5509043680354898,501,-25,18.24518350989042,9.72222733663406
0.2121001698066975,0.5508988602095701,501,-25,18.24518350989042,9.72222733663406
0.21760781458174877,0.550893352444662,501,-25,18.24518350989042,9.72222733663406
0.22311539961672255,0.5508878447403072,501,-25,18.24518350989042,9.72222733663406
0.22862292527203917,0.5508823370960829,501,-25,18.24518350989042,9.72222733663406
0.2341303918804301,0.5508768295115988,501,-25,18.24518350989042,9.72222733663406
0.23963779974906835,0.5508713219864941,501,-25,18.24518350989042,9.72222733663406
0.24514514916153476,0.5508658145204366,501,-25,18.24518350989042,9.72222733663406
0.25065244037963347,0.5508603071131186,501,-25,18.24518350989042,9.72222733663406
0.2561596736450673,0.5508547997642569,501,-25,18.24518350989042,9.72222733663406
0.26166684918098454,0.5508492924735896,501,-25,18.24518350989042,9.72222733663406
0.2671739671934062,0.5508437852408749,501,-25,18.24518350989042,9.72222733663406
0.2726810278725444,0.5508382780658897,501,-25,18.24518350989042,9.72222733663406
0.27818803139401804,0.550832770948428,501,-25,18.24518350989042,9.72222733663406
0.2836949779199763,0.5508272638882996,501,-25,18.24518350989042,9.72222733663406
0.28920186760013433,0.5508217568853289,501,-25,18.24518350989042,9.72222733663406
0.29470870057273063,0.5508162499393535,501,-25,18.24518350989042,9.72222733663406
0.30021547696540957,0.5508107430502241,501,-25,18.24518350989042,9.72222733663406
0.30572219689603675,0.5508052362178022,501,-25,18.24518350989042,9.72222733663406
0.3112288604734515,0.5507997294419602,501,-25,18.24518350989042,9.72222733663406
0.3167354677981609,0.5507942227225803,501,-25,18.24518350989042,9.72222733663406
0.3222420189629816,0.5507887160595535,501,-25,18.24518350989042,9.72222733663406
0.32774851405363087,0.5507832094527795,501,-25,18.24518350989042,9.72222733663406
0.333254953149273,0.5507777029021653,501,-25,18.24518350989042,9.72222733663406
0.338761336323024,0.5507721964076253,501,-25,18.24518350989042,9.72222733663406
0.3442676636424162,0.5507666899690804,501,-25,18.24518350989042,9.72222733663406
0.34977393516982846,0.5507611835864572,501,-25,18.24518350989042,9.72222733663406
0.3552801509628821,0.5507556772596885,501,-25,18.24518350989042,9.72222733663406
0.36078631107480774,0.5507501709887117,501,-25,18.24518350989042,9.72222733663406
0.3662924155547825,0.5507446647734693,501,-25,18.24518350989042,9.72222733663406
0.371798464448242,0.550739158613908,501,-25,18.24518350989042,9.72222733663406
0.37730445779716837,0.5507336525099786,501,-25,18.24518350989042,9.72222733663406
0.3828103956403561,0.5507281464616358,501,-25,18.24518350989042,9.72222733663406
0.38831627801365687,0.5507226404688375,501,-25,18.24518350989042,9.72222733663406
0.39382210495020614,0.5507171345315449,501,-25,18.24518350989042,9.72222733663406
0.3993278764806325,0.5507116286497222,501,-25,18.24518350989042,9.72222733663406
0.40483359263325025,0.5507061228233363,501,-25,18.24518350989042,9.72222733663406
0.410339253434237,0.5507006170523564,501,-25,18.24518350989042,9.72222733663406
0.41584485890779926,0.5506951113367544,501,-25,18.24518350989042,9.72222733663406
0.42135040907632276,0.5506896056765039,501,-25,18.24518350989042,9.72222733663406
0.4268559039605136,0.550684100071581,501,-25,18.24518350989042,9.72222733663406
0.4323613435795269,0.550678594521963,501,-25,18.24518350989042,9.72222733663406
0.4378667279510863,0.5506730890276293,501,-25,18.24518350989042,9.72222733663406
0.44337205709159394,0.5506675835885609,501,-25,18.24518350989042,9.72222733663406
0.44887733101623256,0.5506620782047399,501,-25,18.24518350989042,9.72222733663406
0.4543825497390589,0.55065657287615,501,-25,18.24518350989042,9.72222733663406
0.4598877132730904,0.5506510676027758,501,-25,18.24518350989042,9.72222733663406
0.4653928216303856,0.5506455623846036,501,-25,18.24518350989042,9.72222733663406
0.4708978748221171,0.5506400572216201,501,-25,18.24518350989042,9.72222733663406
0.47640287285864036,0.5506345521138133,501,-25,18.24518350989042,9.72222733663406
0.48190781574955677,0.5506290470611721,501,-25,18.24518350989042,9.72222733663406
0.48741270350377097,0.550623542063686,501,-25,18.24518350989042,9.72222733663406
0.4929175361295446,0.5506180371213456,501,-25,18.24518350989042,9.72222733663406
0.49842231363454625,0.550612532234142,501,-25,18.24518350989042,9.72222733663406
0.5039270360258968,0.5506070274020667,501,-25,18.24518350989042,9.72222733663406
0.5094317033102115,0.5506015226251122,501,-25,18.24518350989042,9.72222733663406
0.5149363154936389,0.5505960179032713,501,-25,18.24518350989042,9.72222733663406
0.5204408725818971,0.5505905132365374,501,-25,18.24518350989042,9.72222733663406
0.5259453745803062,0.5505850086249044,501,-25,18.24518350989042,9.72222733663406
0.5314498214938191,0.5505795040683668,501,-25,18.24518350989042,9.72222733663406
0.5369542133270508,0.5505739995669188,501,-25,18.24518350989042,9.72222733663406
0.5424585500843028,0.5505684951205557,501,-25,18.24518350989042,9.72222733663406
0.5479628317695878,0.550562990729273,501,-25,18.24518350989042,9.72222733663406
0.553467058386653,0.5505574863930661,501,-25,18.24518350989042,9.72222733663406
0.5589712299389987,0.5505519821119312,501,-25,18.24518350989042,9.72222733663406
0.5644753464298988,0.5505464778858646,501,-25,18.24518350989042,9.72222733663406
0.5699794078624173,0.5505409737148627,501,-25,18.24518350989042,9.72222733663406
0.5754834142394248,0.5505354695989222,501,-25,18.24518350989042,9.72222733663406
0.5809873655636134,0.5505299655380401,501,-25,18.24518350989042,9.72222733663406
0.5864912618375107,0.5505244615322136,501,-25,18.24518350989042,9.72222733663406
0.5919951030634913,0.5505189575814398,501,-25,18.24518350989042,9.72222733663406
0.5974988892437906,0.5505134536857162,501,-25,18.24518350989042,9.72222733663406
0.6030026203805133,0.5505079498450407,501,-25,18.24518350989042,9.72222733663406
0.6085062964756454,0.5505024460594108,501,-25,18.24518350989042,9.72222733663406
0.6140099175310612,0.5504969423288244,501,-25,18.24518350989042,9.72222733663406
0.6195134835485341,0.5504914386532797,501,-25,18.24518350989042,9.72222733663406
0.6250169945297431,0.5504859350327747,501,-25,18.24518350989042,9.72222733663406
0.6305204504762806,0.5504804314673075,501,-25,18.24518350989042,9.72222733663406
0.636023851389658,0.5504749279568767,501,-25,18.24518350989042,9.72222733663406
0.6415271972713136,0.5504694245014805,501,-25,18.24518350989042,9.72222733663406
0.647030488122617,0.5504639211011174,501,-25,18.24518350989042,9.72222733663406
0.6525337239448745,0.5504584177557862,501,-25,18.24518350989042,9.72222733663406
0.6580369047393346,0.5504529144654852,501,-25,18.24518350989042,9.72222733663406
0.663540030507192,0.5504474112302132,501,-25,18.24518350989042,9.72222733663406
0.6690431012495917,0.5504419080499692,501,-25,18.24518350989042,9.72222733663406
0.6745461169676326,0.5504364049247517,501,-25,18.24518350989042,9.72222733663406
0.6800490776623722,0.5504309018545596,501,-25,18.24518350989042,9.72222733663406
0.6855519833348278,0.5504253988393918,501,-25,18.24518350989042,9.72222733663406
0.6910548339859819,0.5504198958792473,501,-25,18.24518350989042,9.72222733663406
0.6965576296167834,0.5504143929741252,501,-25,18.24518350989042,9.72222733663406
0.7020603702281494,0.5504088901240244,501,-25,18.24518350989042,9.72222733663406
0.7075630558209705,0.5504033873289439,501,-25,18.24518350989042,9.72222733663406
0.7130656863961098,0.5503978845888827,501,-25,18.24518350989042,9.72222733663406
0.7185682619544072,0.5503923819038402,501,-25,18.24518350989042,9.72222733663406
0.7240707824966793,0.5503868792738154,501,-25,18.24518350989042,9.72222733663406
0.729573248023723,0.5503813766988074,501,-25,18.24518350989042,9.72222733663406
0.7350756585363157,0.5503758741788153,501,-25,18.24518350989042,9.72222733663406
0.740578014035218,0.5503703717138385,501,-25,18.24518350989042,9.72222733663406
0.7460803145211735,0.5503648693038762,501,-25,18.24518350989042,9.72222733663406
0.7515825599949111,0.5503593669489275,501,-25,18.24518350989042,9.72222733663406
0.7570847504571463,0.5503538646489918,501,-25,18.24518350989042,9.72222733663406
0.7625868859085813,0.5503483624040684,501,-25,18.24518350989042,9.72222733663406
0.7680889663499072,0.5503428602141563,501,-25,18.24518350989042,9.72222733663406
0.7735909917818037,0.5503373580792551,501,-25,18.24518350989042,9.72222733663406
0.7790929622049406,0.550331855999364,501,-25,18.24518350989042,9.72222733663406
0.7845948776199788,0.5503263539744823,501,-25,18.24518350989042,9.72222733663406
0.7900967380275706,0.5503208520046093,501,-25,18.24518350989042,9.72222733663406
0.79559854342836,0.5503153500897445,501,-25,18.24518350989042,9.72222733663406
0.801100293822984,0.5503098482298872,501,-25,18.24518350989042,9.72222733663406
0.8066019892120728,0.5503043464250366,501,-25,18.24518350989042,9.72222733663406
0.812103629596251,0.5502988446751921,501,-25,18.24518350989042,9.72222733663406
0.8176052149761367,0.5502933429803533,501,-25,18.24518350989042,9.72222733663406
0.823106745352343,0.5502878413405192,501,-25,18.24518350989042,9.72222733663406
0.8286082207254782,0.5502823397556895,501,-25,18.24518350989042,9.72222733663406
0.8341096410961463,0.5502768382258635,501,-25,18.24518350989042,9.72222733663406
0.8396110064649465,0.5502713367510405,501,-25,18.24518350989042,9.72222733663406
0.8451123168324751,0.55026583533122,501,-25,18.24518350989042,9.72222733663406
0.850613572199324,0.5502603339664013,501,-25,18.24518350989042,9.72222733663406
0.856114772566082,0.5502548326565839,501,-25,18.24518350989042,9.72222733663406
0.8616159179333356,0.5502493314017672,501,-25,18.24518350989042,9.72222733663406
0.8671170083016673,0.5502438302019506,501,-25,18.24518350989042,9.72222733663406
0.8726180436716582,0.5502383290571334,501,-25,18.24518350989042,9.72222733663406
0.8781190240438865,0.5502328279673152,501,-25,18.24518350989042,9.72222733663406
0.8836199494189282,0.5502273269324953,501,-25,18.24518350989042,9.72222733663406
0.8891208197973572,0.5502218259526732,501,-25,18.24518350989042,9.72222733663406
0.8946216351797461,0.5502163250278483,501,-25,18.24518350989042,9.72222733663406
0.9001223955666648,0.5502108241580199,501,-25,18.24518350989042,9.72222733663406
0.9056231009586821,0.5502053233431877,501,-25,18.24518350989042,9.72222733663406
0.9111237513563659,0.5501998225833509,501,-25,18.24518350989042,9.72222733663406
0.916624346760282,0.5501943218785089,501,-25,18.24518350989042,9.72222733663406
0.9221248871709953,0.5501888212286613,501,-25,18.24518350989042,9.72222733663406
0.9276253725890692,0.5501833206338075,501,-25,18.24518350989042,9.72222733663406
0.9331258030150661,0.5501778200939468,501,-25,18.24518350989042,9.72222733663406
0.9386261784495478,0.5501723196090788,501,-25,18.24518350989042,9.72222733663406
0.944126498893075,0.5501668191792028,501,-25,18.24518350989042,9.72222733663406
0.9496267643462074,0.5501613188043184,501,-25,18.24518350989042,9.72222733663406
0.9551269748095044,0.550155818484425,501,-25,18.24518350989042,9.72222733663406
0.9606271302835235,0.5501503182195219,501,-25,18.24518350989042,9.72222733663406
0.9661272307688229,0.5501448180096086,501,-25,18.24518350989042,9.72222733663406
0.9716272762659595,0.5501393178546846,501,-25,18.24518350989042,9.72222733663406
0.9771272667754897,0.5501338177547493,501,-25,18.24518350989042,9.72222733663406
0.9826272022979697,0.5501283177098022,501,-25,18.24518350989042,9.72222733663406
0.9881270828339548,0.5501228177198426,501,-25,18.24518350989042,9.72222733663406
0.993626908384,0.5501173177848702,501,-25,18.24518350989042,9.72222733663406
0.99912667894866,0.5501118179048842,501,-25,18.24518350989042,9.72222733663406
1.004626394528489,0.5501063180798842,501,-25,18.24518350989042,9.72222733663406
1.0101260551240407,0.5501008183098695,501,-25,18.24518350989042,9.72222733663406
1.015625660735869,0.5500953185948396,501,-25,18.24518350989042,9.72222733663406
1.0211252113645268,0.550089818934794,501,-25,18.24518350989042,9.72222733663406
1.0266247070105672,0.5500843193297322,501,-25,18.24518350989042,9.72222733663406
1.0321241476745429,0.5500788197796534,501,-25,18.24518350989042,9.72222733663406
1.0376235333570065,0.5500733202845575,501,-25,18.24518350989042,9.72222733663406
1.0431228640585104,0.5500678208444434,501,-25,18.24518350989042,9.72222733663406
1.0486221397796063,0.5500623214593109,501,-25,18.24518350989042,9.72222733663406
1.054121360520846,0.5500568221291593,501,-25,18.24518350989042,9.72222733663406
1.0596205262827814,0.5500513228539882,501,-25,18.24518350989042,9.72222733663406
1.0651196370659644,0.5500458236337968,501,-25,18.24518350989042,9.72222733663406
1.0706186928709451,0.5500403244685849,501,-25,18.24518350989042,9.72222733663406
1.0761176936982764,0.5500348253583516,501,-25,18.24518350989042,9.72222733663406
1.0816166395485085,0.5500293263030965,501,-25,18.24518350989042,9.72222733663406
1.0871155304221924,0.5500238273028191,501,-25,18.24518350989042,9.72222733663406
1.092614366319879,0.5500183283575187,501,-25,18.24518350989042,9.72222733663406
1.0981131472421193,0.550012829467195,501,-25,18.24518350989042,9.72222733663406
1.1036118731894642,0.5500073306318473,501,-25,18.24518350989042,9.72222733663406
1.1091105441624638,0.5500018318514749,501,-25,18.24518350989042,9.72222733663406
1.1146091601616688,0.5499963331260774,501,-25,18.24518350989042,9.72222733663406
1.1201077211876298,0.5499908344556542,501,-25,18.24518350989042,9.72222733663406
1.1256062272408964,0.5499853358402049,501,-25,18.24518350989042,9.72222733663406
1.1311046783220202,0.5499798372797289,501,-25,18.24518350989042,9.72222733663406
1.1366030744315507,0.5499743387742254,501,-25,18.24518350989042,9.72222733663406
1.142101415570038,0.5499688403236942,501,-25,18.24518350989042,9.72222733663406
1.1475997017380328,0.5499633419281345,501,-25,18.24518350989042,9.72222733663406
1.1530979329360844,0.5499578435875458,501,-25,18.24518350989042,9.72222733663406
1.1585961091647434,0.5499523453019277,501,-25,18.24518350989042,9.72222733663406
1.1640942304245596,0.5499468470712795,501,-25,18.24518350989042,9.72222733663406
1.1695922967160834,0.5499413488956006,501,-25,18.24518350989042,9.72222733663406
1.1750903080398647,0.5499358507748907,501,-25,18.24518350989042,9.72222733663406
1.1805882643964525,0.5499303527091489,501,-25,18.24518350989042,9.72222733663406
1.1860861657863975,0.5499248546983749,501,-25,18.24518350989042,9.72222733663406
1.1915840122102492,0.5499193567425682,501,-25,18.24518350989042,9.72222733663406
1.1970818036685575,0.549913858841728,501,-25,18.24518350989042,9.72222733663406
1.2025795401618724,0.549908360995854,501,-25,18.24518350989042,9.72222733663406
1.2080772216907432,0.5499028632049455,501,-25,18.24518350989042,9.72222733663406
1.2135748482557196,0.5498973654690019,501,-25,18.24518350989042,9.72222733663406
1.219072419857352,0.5498918677880229,501,-25,18.24518350989042,9.72222733663406
1.2245699364961893,0.5498863701620077,501,-25,18.24518350989042,9.72222733663406
1.2300673981727819,0.5498808725909557,501,-25,18.24518350989042,9.72222733663406
1.2355648048876786,0.5498753750748667,501,-25,18.24518350989042,9.72222733663406
1.24106215664143,0.5498698776137398,501,-25,18.24518350989042,9.72222733663406
1.246559453434585,0.5498643802075748,501,-25,18.24518350989042,9.72222733663406
1.2520566952676935,0.5498588828563707,501,-25,18.24518350989042,9.72222733663406
1.2575538821413048,0.5498533855601273,501,-25,18.24518350989042,9.72222733663406
1.2630510140559688,0.5498478883188439,501,-25,18.24518350989042,9.72222733663406
1.2685480910122349,0.5498423911325201,501,-25,18.24518350989042,9.72222733663406
1.2740451130106525,0.5498368940011551,501,-25,18.24518350989042,9.72222733663406
1.2795420800517714,0.5498313969247486,501,-25,18.24518350989042,9.72222733663406
1.285038992136141,0.5498258999032999,501,-25,18.24518350989042,9.72222733663406
1.2905358492643106,0.5498204029368085,501,-25,18.24518350989042,9.72222733663406
1.2960326514368303,0.5498149060252738,501,-25,18.24518350989042,9.72222733663406
1.301529398654249,0.5498094091686954,501,-25,18.24518350989042,9.72222733663406
1.3070260909171167,0.5498039123670725,501,-25,18.24518350989042,9.72222733663406
1.3125227282259824,0.5497984156204048,501,-25,18.24518350989042,9.72222733663406
1.3180193105813958,0.5497929189286915,501,-25,18.24518350989042,9.72222733663406
1.3235158379839058,0.5497874222919323,501,-25,18.24518350989042,9.72222733663406
1.3290123104340625,0.5497819257101266,501,-25,18.24518350989042,9.72222733663406
1.3345087279324153,0.5497764291832737,501,-25,18.24518350989042,9.72222733663406
