Vout,Iout,Irradiance,Temperature,MaxVoltage,MaxPower
0.006605436486187633,1.3211,1201,-25,18.25166654421674,23.779626440312477
0.019816187317790467,1.3211,1201,-25,18.25166654421674,23.779626440312477
0.03302666957814246,1.3210932624535137,1201,-25,18.25166654421674,23.779626440312477
0.04623683528707859,1.3210800517026822,1201,-25,18.25166654421674,23.779626440312477
0.05944666876384853,1.3210668412210955,1201,-25,18.25166654421674,23.779626440312477
0.07265618541193346,1.3210536310567076,1201,-25,18.25166654421674,23.779626440312477
0.08586539945018708,1.321040421224552,1201,-25,18.25166654421674,23.779626440312477
0.09907432400369012,1.321027211709225,1201,-25,18.25166654421674,23.779626440312477
0.11228297118776055,1.3210140024965076,1201,-25,18.25166654421674,23.779626440312477
0.12549135218564622,1.321000793573275,1201,-25,18.25166654421674,23.779626440312477
0.13869947732024002,1.320987584927412,1201,-25,18.25166654421674,23.779626440312477
0.15190735612027675,1.3209743765477349,1201,-25,18.25166654421674,23.779626440312477
0.16511499738143687,1.3209611684239213,1201,-25,18.25166654421674,23.779626440312477
0.17832240922274903,1.320947960546442,1201,-25,18.25166654421674,23.779626440312477
0.19152959913865253,1.3209347529065016,1201,-25,18.25166654421674,23.779626440312477
0.20473657404705436,1.320921545495981,1201,-25,18.25166654421674,23.779626440312477
0.21794334033368845,1.320908338307386,1201,-25,18.25166654421674,23.779626440312477
0.23114990389306173,1.3208951313337984,1201,-25,18.25166654421674,23.779626440312477
0.24435627016625022,1.3208819245688324,1201,-25,18.25166654421674,23.779626440312477
0.2575624441757865,1.3208687180065937,1201,-25,18.25166654421674,23.779626440312477
0.2707684305578631,1.3208555116416412,1201,-25,18.25166654421674,23.779626440312477
0.2839742335920583,1.3208423054689524,1201,-25,18.25166654421674,23.779626440312477
0.2971798572287742,1.320829099483891,1201,-25,18.25166654421674,23.779626440312477
0.31038530511456447,1.3208158936821774,1201,-25,18.25166654421674,23.779626440312477
0.3235905806155129,1.3208026880598611,1201,-25,18.25166654421674,23.779626440312477
0.3367956868388128,1.320789482613296,1201,-25,18.25166654421674,23.779626440312477
0.35000062665268683,1.3207762773391156,1201,-25,18.25166654421674,23.779626440312477
0.36320540270477336,1.320763072234213,1201,-25,18.25166654421674,23.779626440312477
0.37641001743909924,1.3207498672957194,1201,-25,18.25166654421674,23.779626440312477
0.38961447311174535,1.320736662520988,1201,-25,18.25166654421674,23.779626440312477
0.4028187718053078,1.3207234579075742,1201,-25,18.25166654421674,23.779626440312477
0.41602291544224596,1.320710253453222,1201,-25,18.25166654421674,23.779626440312477
0.4292269057972037,1.3206970491558487,1201,-25,18.25166654421674,23.779626440312477
0.44243074450838266,1.3206838450135323,1201,-25,18.25166654421674,23.779626440312477
0.45563443308803997,1.3206706410244977,1201,-25,18.25166654421674,23.779626440312477
0.468837972932179,1.3206574371871072,1201,-25,18.25166654421674,23.779626440312477
0.48204136532949377,1.3206442334998478,1201,-25,18.25166654421674,23.779626440312477
0.4952446114696262,1.320631029961324,1201,-25,18.25166654421674,23.779626440312477
0.5084477124507861,1.320617826570247,1201,-25,18.25166654421674,23.779626440312477
0.5216506692867875,1.3206046233254274,1201,-25,18.25166654421674,23.779626440312477
0.5348534829135408,1.3205914202257665,1201,-25,18.25166654421674,23.779626440312477
0.5480561541950484,1.320578217270251,1201,-25,18.25166654421674,23.779626440312477
0.5612586839289356,1.3205650144579444,1201,-25,18.25166654421674,23.779626440312477
0.5744610728515595,1.320551811787983,1201,-25,18.25166654421674,23.779626440312477
0.5876633216427214,1.3205386092595695,1201,-25,18.25166654421674,23.779626440312477
0.60086543093002,1.3205254068719672,1201,-25,18.25166654421674,23.779626440312477
0.6140674012928664,1.3205122046244964,1201,-25,18.25166654421674,23.779626440312477
0.6272692332661931,1.3204990025165293,1201,-25,18.25166654421674,23.779626440312477
0.6404709273438747,1.3204858005474867,1201,-25,18.25166654421674,23.779626440312477
0.6536724839818885,1.3204725987168335,1201,-25,18.25166654421674,23.779626440312477
0.6668739036012294,1.320459397024076,1201,-25,18.25166654421674,23.779626440312477
0.6800751865906023,1.320446195468758,1201,-25,18.25166654421674,23.779626440312477
0.6932763333089053,1.320432994050459,1201,-25,18.25166654421674,23.779626440312477
0.7064773440875242,1.3204197927687897,1201,-25,18.25166654421674,23.779626440312477
0.7196782192324491,1.3204065916233916,1201,-25,18.25166654421674,23.779626440312477
0.732878959026228,1.3203933906139331,1201,-25,18.25166654421674,23.779626440312477
0.746079563729771,1.3203801897401084,1201,-25,18.25166654421674,23.779626440312477
0.7592800335840147,1.3203669890016347,1201,-25,18.25166654421674,23.779626440312477
0.7724803688114592,1.3203537883982512,1201,-25,18.25166654421674,23.779626440312477
0.7856805696175863,1.320340587929717,1201,-25,18.25166654421674,23.779626440312477
0.7988806361921698,1.3203273875958097,1201,-25,18.25166654421674,23.779626440312477
0.812080568710483,1.3203141873963236,1201,-25,18.25166654421674,23.779626440312477
0.825280367334415,1.320300987331069,1201,-25,18.25166654421674,23.779626440312477
0.838480032213501,1.3202877873998706,1201,-25,18.25166654421674,23.779626440312477
0.8516795634858714,1.3202745876025668,1201,-25,18.25166654421674,23.779626440312477
0.8648789612791302,1.3202613879390077,1201,-25,18.25166654421674,23.779626440312477
0.8780782257111654,1.3202481884090553,1201,-25,18.25166654421674,23.779626440312477
0.8912773568908957,1.320234989012582,1201,-25,18.25166654421674,23.779626440312477
0.9044763549189611,1.32022178974947,1201,-25,18.25166654421674,23.779626440312477
0.9176752198883592,1.3202085906196102,1201,-25,18.25166654421674,23.779626440312477
0.9308739518850341,1.3201953916229021,1201,-25,18.25166654421674,23.779626440312477
0.944072550988419,1.3201821927592525,1201,-25,18.25166654421674,23.779626440312477
0.9572710172719362,1.3201689940285757,1201,-25,18.25166654421674,23.779626440312477
0.9704693508034605,1.3201557954307923,1201,-25,18.25166654421674,23.779626440312477
0.9836675516457462,1.3201425969658287,1201,-25,18.25166654421674,23.779626440312477
0.9968656198568203,1.320129398633617,1201,-25,18.25166654421674,23.779626440312477
1.0100635554903468,1.3201162004340945,1201,-25,18.25166654421674,23.779626440312477
1.023261358595962,1.3201030023672033,1201,-25,18.25166654421674,23.779626440312477
1.0364590292195848,1.3200898044328895,1201,-25,18.25166654421674,23.779626440312477
1.049656567403702,1.3200766066311038,1201,-25,18.25166654421674,23.779626440312477
1.0628539731876334,1.3200634089618,1201,-25,18.25166654421674,23.779626440312477
1.0760512466077754,1.3200502114249355,1201,-25,18.25166654421674,23.779626440312477
1.089248387697824,1.3200370140204714,1201,-25,18.25166654421674,23.779626440312477
1.1024453964889855,1.320023816748371,1201,-25,18.25166654421674,23.779626440312477
1.115642273010166,1.3200106196086008,1201,-25,18.25166654421674,23.779626440312477
1.1288390172881493,1.3199974226011293,1201,-25,18.25166654421674,23.779626440312477
1.1420356293477594,1.3199842257259278,1201,-25,18.25166654421674,23.779626440312477
1.1552321092120121,1.3199710289829696,1201,-25,18.25166654421674,23.779626440312477
1.1684284569022536,1.3199578323722296,1201,-25,18.25166654421674,23.779626440312477
1.1816246724382897,1.319944635893685,1201,-25,18.25166654421674,23.779626440312477
1.1948207558385033,1.3199314395473145,1201,-25,18.25166654421674,23.779626440312477
1.2080167071199646,1.319918243333098,1201,-25,18.25166654421674,23.779626440312477
1.2212125262985316,1.3199050472510174,1201,-25,18.25166654421674,23.779626440312477
1.2344082133889431,1.3198918513010556,1201,-25,18.25166654421674,23.779626440312477
1.2476037684049073,1.3198786554831967,1201,-25,18.25166654421674,23.779626440312477
1.2607991913591772,1.319865459797426,1201,-25,18.25166654421674,23.779626440312477
1.2739944822636264,1.3198522642437296,1201,-25,18.25166654421674,23.779626440312477
1.2871896411293176,1.3198390688220947,1201,-25,18.25166654421674,23.779626440312477
1.300384667966562,1.31982587353251,1201,-25,18.25166654421674,23.779626440312477
1.3135795627849802,1.3198126783749637,1201,-25,18.25166654421674,23.779626440312477
1.3267743255935536,1.319799483349446,1201,-25,18.25166654421674,23.779626440312477
1.339968956400674,1.319786288455947,1201,-25,18.25166654421674,23.779626440312477
1.353163455214189,1.319773093694458,1201,-25,18.25166654421674,23.779626440312477
1.3663578220414438,1.3197598990649704,1201,-25,18.25166654421674,23.779626440312477
1.37955205688932,1.3197467045674764,1201,-25,18.25166654421674,23.779626440312477
1.3927461597642712,1.3197335102019685,1201,-25,18.25166654421674,23.779626440312477
1.405940130672356,1.31972031596844,1201,-25,18.25166654421674,23.779626440312477
1.4191339696192682,1.3197071218668845,1201,-25,18.25166654421674,23.779626440312477
1.4323276766103645,1.319693927897296,1201,-25,18.25166654421674,23.779626440312477
1.4455212516506921,1.3196807340596686,1201,-25,18.25166654421674,23.779626440312477
1.45871469474501,1.3196675403539968,1201,-25,18.25166654421674,23.779626440312477
1.4719080058978136,1.319654346780276,1201,-25,18.25166654421674,23.779626440312477
1.4851011851133524,1.3196411533385008,1201,-25,18.25166654421674,23.779626440312477
1.4982942323956518,1.3196279600286676,1201,-25,18.25166654421674,23.779626440312477
1.5114871477485285,1.3196147668507712,1201,-25,18.25166654421674,23.779626440312477
1.524679931175607,1.3196015738048084,1201,-25,18.25166654421674,23.779626440312477
1.537872582680334,1.3195883808907747,1201,-25,18.25166654421674,23.779626440312477
1.5510651022659938,1.319575188108667,1201,-25,18.25166654421674,23.779626440312477
1.564257489935717,1.3195619954584814,1201,-25,18.25166654421674,23.779626440312477
1.5774497456924967,1.3195488029402151,1201,-25,18.25166654421674,23.779626440312477
1.5906418695391966,1.3195356105538647,1201,-25,18.25166654421674,23.779626440312477
1.6038338614785614,1.3195224182994272,1201,-25,18.25166654421674,23.779626440312477
1.6170257215132267,1.3195092261768997,1201,-25,18.25166654421674,23.779626440312477
1.6302174496457256,1.3194960341862796,1201,-25,18.25166654421674,23.779626440312477
1.6434090458784991,1.3194828423275642,1201,-25,18.25166654421674,23.779626440312477
1.6566005102139008,1.3194696506007508,1201,-25,18.25166654421674,23.779626440312477
1.6697918426542042,1.3194564590058373,1201,-25,18.25166654421674,23.779626440312477
1.682983043201611,1.319443267542821,1201,-25,18.25166654421674,23.779626440312477
1.696174111858254,1.3194300762117,1201,-25,18.25166654421674,23.779626440312477
1.709365048626203,1.3194168850124717,1201,-25,18.25166654421674,23.779626440312477
1.72255585350747,1.3194036939451341,1201,-25,18.25166654421674,23.779626440312477
1.7357465265040148,1.3193905030096853,1201,-25,18.25166654421674,23.779626440312477
1.7489370676177465,1.319377312206123,1201,-25,18.25166654421674,23.779626440312477
1.7621274768505286,1.3193641215344456,1201,-25,18.25166654421674,23.779626440312477
1.7753177542041845,1.319350930994651,1201,-25,18.25166654421674,23.779626440312477
1.7885078996804966,1.3193377405867373,1201,-25,18.25166654421674,23.779626440312477
1.801697913281213,1.3193245503107027,1201,-25,18.25166654421674,23.779626440312477
1.814887795008048,1.3193113601665454,1201,-25,18.25166654421674,23.779626440312477
1.8280775448626858,1.3192981701542636,1201,-25,18.25166654421674,23.779626440312477
1.8412671628467818,1.3192849802738558,1201,-25,18.25166654421674,23.779626440312477
1.8544566489619667,1.3192717905253202,1201,-25,18.25166654421674,23.779626440312477
1.867646003209846,1.319258600908655,1201,-25,18.25166654421674,23.779626440312477
1.8808352255920036,1.319245411423859,1201,-25,18.25166654421674,23.779626440312477
1.8940243161100028,1.31923222207093,1201,-25,18.25166654421674,23.779626440312477
1.9072132747653878,1.3192190328498667,1201,-25,18.25166654421674,23.779626440312477
1.920402101559686,1.3192058437606677,1201,-25,18.25166654421674,23.779626440312477
1.9335907964944083,1.3191926548033313,1201,-25,18.25166654421674,23.779626440312477
1.9467793595710507,1.319179465977856,1201,-25,18.25166654421674,23.779626440312477
1.9599677907910964,1.31916627728424,1201,-25,18.25166654421674,23.779626440312477
1.9731560901560143,1.3191530887224823,1201,-25,18.25166654421674,23.779626440312477
1.986344257667263,1.3191399002925812,1201,-25,18.25166654421674,23.779626440312477
1.9995322933262893,1.3191267119945351,1201,-25,18.25166654421674,23.779626440312477
2.012720197134531,1.3191135238283427,1201,-25,18.25166654421674,23.779626440312477
2.0259079690934163,1.3191003357940025,1201,-25,18.25166654421674,23.779626440312477
2.0390956092043653,1.319087147891513,1201,-25,18.25166654421674,23.779626440312477
2.0522831174687894,1.319073960120873,1201,-25,18.25166654421674,23.779626440312477
2.0654704938880935,1.3190607724820809,1201,-25,18.25166654421674,23.779626440312477
2.0786577384636757,1.319047584975135,1201,-25,18.25166654421674,23.779626440312477
2.0918448511969276,1.3190343976000345,1201,-25,18.25166654421674,23.779626440312477
2.105031832089235,1.3190212103567778,1201,-25,18.25166654421674,23.779626440312477
2.11821868114198,1.3190080232453631,1201,-25,18.25166654421674,23.779626440312477
2.131405398356537,1.3189948362657897,1201,-25,18.25166654421674,23.779626440312477
2.144591983734279,1.3189816494180557,1201,-25,18.25166654421674,23.779626440312477
2.157778437276574,1.3189684627021598,1201,-25,18.25166654421674,23.779626440312477
2.170964758984783,1.3189552761181007,1201,-25,18.25166654421674,23.779626440312477
2.1841509488602693,1.318942089665877,1201,-25,18.25166654421674,23.779626440312477
2.1973370069043874,1.3189289033454876,1201,-25,18.25166654421674,23.779626440312477
2.2105229331184924,1.3189157171569308,1201,-25,18.25166654421674,23.779626440312477
2.2237087275039347,1.3189025311002052,1201,-25,18.25166654421674,23.779626440312477
2.236894390062063,1.3188893451753096,1201,-25,18.25166654421674,23.779626440312477
2.250079920794224,1.318876159382243,1201,-25,18.25166654421674,23.779626440312477
2.263265319701761,1.3188629737210034,1201,-25,18.25166654421674,23.779626440312477
2.2764505867860163,1.3188497881915897,1201,-25,18.25166654421674,23.779626440312477
2.28963572204833,1.3188366027940008,1201,-25,18.25166654421674,23.779626440312477
2.302820725490041,1.3188234175282352,1201,-25,18.25166654421674,23.779626440312477
2.316005597112485,1.3188102323942914,1201,-25,18.25166654421674,23.779626440312477
2.3291903369169984,1.3187970473921682,1201,-25,18.25166654421674,23.779626440312477
2.3423749449049143,1.3187838625218642,1201,-25,18.25166654421674,23.779626440312477
2.3555594210775657,1.3187706777833783,1201,-25,18.25166654421674,23.779626440312477
2.3687437654362844,1.3187574931767088,1201,-25,18.25166654421674,23.779626440312477
2.3819279779824005,1.3187443087018547,1201,-25,18.25166654421674,23.779626440312477
2.3951120587172445,1.3187311243588142,1201,-25,18.25166654421674,23.779626440312477
2.408296007642144,1.3187179401475866,1201,-25,18.25166654421674,23.779626440312477
2.4214798247584266,1.3187047560681702,1201,-25,18.25166654421674,23.779626440312477
2.4346635100674194,1.3186915721205639,1201,-25,18.25166654421674,23.779626440312477
2.44784706357045,1.318678388304766,1201,-25,18.25166654421674,23.779626440312477
2.4610304852688425,1.3186652046207754,1201,-25,18.25166654421674,23.779626440312477
2.4742137751639217,1.3186520210685906,1201,-25,18.25166654421674,23.779626440312477
2.4873969332570134,1.3186388376482105,1201,-25,18.25166654421674,23.779626440312477
2.50057995954944,1.318625654359634,1201,-25,18.25166654421674,23.779626440312477
2.513762854042526,1.318612471202859,1201,-25,18.25166654421674,23.779626440312477
2.526945616737593,1.318599288177885,1201,-25,18.25166654421674,23.779626440312477
2.5401282476359652,1.3185861052847103,1201,-25,18.25166654421674,23.779626440312477
2.553310746738964,1.3185729225233336,1201,-25,18.25166654421674,23.779626440312477
2.566493114047911,1.3185597398937534,1201,-25,18.25166654421674,23.779626440312477
2.5796753495641283,1.3185465573959687,1201,-25,18.25166654421674,23.779626440312477
2.592857453288936,1.3185333750299781,1201,-25,18.25166654421674,23.779626440312477
2.6060394252236554,1.3185201927957801,1201,-25,18.25166654421674,23.779626440312477
2.619221265369607,1.3185070106933734,1201,-25,18.25166654421674,23.779626440312477
2.632402973728112,1.318493828722757,1201,-25,18.25166654421674,23.779626440312477
2.6455845503004887,1.3184806468839292,1201,-25,18.25166654421674,23.779626440312477
2.6587659950880584,1.318467465176889,1201,-25,18.25166654421674,23.779626440312477
2.671947308092141,1.3184542836016349,1201,-25,18.25166654421674,23.779626440312477
2.685128489314055,1.3184411021581655,1201,-25,18.25166654421674,23.779626440312477
2.69830953875512,1.3184279208464795,1201,-25,18.25166654421674,23.779626440312477
2.7114904564166564,1.3184147396665757,1201,-25,18.25166654421674,23.779626440312477
2.7246712422999817,1.3184015586184528,1201,-25,18.25166654421674,23.779626440312477
2.737851896406416,1.3183883777021093,1201,-25,18.25166654421674,23.779626440312477
2.7510324187372768,1.3183751969175441,1201,-25,18.25166654421674,23.779626440312477
2.764212809293884,1.3183620162647558,1201,-25,18.25166654421674,23.779626440312477
2.7773930680775556,1.318348835743743,1201,-25,18.25166654421674,23.779626440312477
2.7905731950896113,1.3183356553545045,1201,-25,18.25166654421674,23.779626440312477
2.8037531903313675,1.3183224750970388,1201,-25,18.25166654421674,23.779626440312477
2.816933053804143,1.3183092949713449,1201,-25,18.25166654421674,23.779626440312477
2.8301127855092565,1.318296114977421,1201,-25,18.25166654421674,23.779626440312477
2.8432923854480268,1.3182829351152663,1201,-25,18.25166654421674,23.779626440312477
2.856471853621771,1.3182697553848792,1201,-25,18.25166654421674,23.779626440312477
2.869651190031808,1.3182565757862583,1201,-25,18.25166654421674,23.779626440312477
2.8828303946794542,1.3182433963194027,1201,-25,18.25166654421674,23.779626440312477
2.8960094675660284,1.3182302169843105,1201,-25,18.25166654421674,23.779626440312477
2.9091884086928492,1.3182170377809808,1201,-25,18.25166654421674,23.779626440312477
2.922367218061233,1.3182038587094123,1201,-25,18.25166654421674,23.779626440312477
2.9355458956724982,1.3181906797696032,1201,-25,18.25166654421674,23.779626440312477
2.948724441527962,1.3181775009615528,1201,-25,18.25166654421674,23.779626440312477
2.9619028556289426,1.3181643222852595,1201,-25,18.25166654421674,23.779626440312477
2.975081137976757,1.3181511437407218,1201,-25,18.25166654421674,23.779626440312477
2.9882592885727233,1.3181379653279388,1201,-25,18.25166654421674,23.779626440312477
3.0014373074181586,1.3181247870469088,1201,-25,18.25166654421674,23.779626440312477
3.01461519451438,1.3181116088976308,1201,-25,18.25166654421674,23.779626440312477
3.027792949862706,1.3180984308801031,1201,-25,18.25166654421674,23.779626440312477
3.040970573464454,1.3180852529943248,1201,-25,18.25166654421674,23.779626440312477
3.0541480653209407,1.3180720752402941,1201,-25,18.25166654421674,23.779626440312477
3.0673254254334834,1.31805889761801,1201,-25,18.25166654421674,23.779626440312477
3.080502653803399,1.3180457201274716,1201,-25,18.25166654421674,23.779626440312477
3.0936797504320057,1.3180325427686768,1201,-25,18.25166654421674,23.779626440312477
3.1068567153206206,1.3180193655416246,1201,-25,18.25166654421674,23.779626440312477
