Vout,Iout,Irradiance,Temperature,MaxVoltage,MaxPower
0.0065508870107018205,1.31019,1101,20,21.55830745340355,27.78127093602004
0.019652539900004463,1.31019,1101,20,21.55830745340355,27.78127093602004
0.032753926435990066,1.3101833180939892,1101,20,21.55830745340355,27.78127093602004
0.04585499903472675,1.3101702164411,1101,20,21.55830745340355,27.78127093602004
0.05895574214496004,1.3101571150552322,1101,20,21.55830745340355,27.78127093602004
0.07205617104296504,1.3101440139839435,1101,20,21.55830745340355,27.78127093602004
0.08515629983017232,1.3101309132421435,1101,20,21.55830745340355,27.78127093602004
0.0982561415232721,1.3101178128145556,1101,20,21.55830745340355,27.78127093602004
0.11135570813753082,1.3101047126870784,1101,20,21.55830745340355,27.78127093602004
0.1244550107638421,1.3100916128466955,1101,20,21.55830745340355,27.78127093602004
0.13755405963984957,1.3100785132813912,1101,20,21.55830745340355,27.78127093602004
0.15065286421559712,1.310065413980075,1101,20,21.55830745340355,27.78127093602004
0.1637514332141282,1.3100523149325087,1101,20,21.55830745340355,27.78127093602004
0.17684977468742225,1.310039216129243,1101,20,21.55830745340355,27.78127093602004
0.18994789606802745,1.3100261175615544,1101,20,21.55830745340355,27.78127093602004
0.203045804216721,1.310013019221391,1101,20,21.55830745340355,27.78127093602004
0.2161435054665015,1.3099999211013202,1101,20,21.55830745340355,27.78127093602004
0.22924100566319763,1.3099868231944813,1101,20,21.55830745340355,27.78127093602004
0.24233831020295146,1.3099737254945414,1101,20,21.55830745340355,27.78127093602004
0.2554354240668182,1.3099606279956544,1101,20,21.55830745340355,27.78127093602004
0.26853235185270347,1.3099475306924244,1101,20,21.55830745340355,27.78127093602004
0.2816290978048434,1.3099344335798704,1101,20,21.55830745340355,27.78127093602004
0.2947256658410169,1.3099213366533942,1101,20,21.55830745340355,27.78127093602004
0.3078220595776634,1.3099082399087518,1101,20,21.55830745340355,27.78127093602004
0.3209182823530684,1.3098951433420254,1101,20,21.55830745340355,27.78127093602004
0.33401433724876534,1.3098820469495984,1101,20,21.55830745340355,27.78127093602004
0.3471102271092903,1.3098689507281325,1101,20,21.55830745340355,27.78127093602004
0.36020595456041693,1.3098558546745465,1101,20,21.55830745340355,27.78127093602004
0.37330152202598843,1.3098427587859955,1101,20,21.55830745340355,27.78127093602004
0.38639693174345435,1.309829663059854,1101,20,21.55830745340355,27.78127093602004
0.3994921857782122,1.3098165674936981,1101,20,21.55830745340355,27.78127093602004
0.41258728603684525,1.3098034720852902,1101,20,21.55830745340355,27.78127093602004
0.42568223427934176,1.309790376832565,1101,20,21.55830745340355,27.78127093602004
0.43877703213037456,1.309777281733616,1101,20,21.55830745340355,27.78127093602004
0.4518716810897124,1.309764186786683,1101,20,21.55830745340355,27.78127093602004
0.4649661825418298,1.3097510919901414,1101,20,21.55830745340355,27.78127093602004
0.4780605377647789,1.3097379973424916,1101,20,21.55830745340355,27.78127093602004
0.49115474793837655,1.309724902842349,1101,20,21.55830745340355,27.78127093602004
0.5042488141517639,1.3097118084884354,1101,20,21.55830745340355,27.78127093602004
0.5173427374103822,1.3096987142795713,1101,20,21.55830745340355,27.78127093602004
0.5304365186424131,1.3096856202146674,1101,20,21.55830745340355,27.78127093602004
0.5435301587047235,1.3096725262927182,1101,20,21.55830745340355,27.78127093602004
0.5566236583883521,1.3096594325127955,1101,20,21.55830745340355,27.78127093602004
0.5697170184235746,1.3096463388740427,1101,20,21.55830745340355,27.78127093602004
0.5828102394845787,1.3096332453756683,1101,20,21.55830745340355,27.78127093602004
0.5959033221937798,1.3096201520169426,1101,20,21.55830745340355,27.78127093602004
0.6089962671258046,1.3096070587971909,1101,20,21.55830745340355,27.78127093602004
0.6220890748111673,1.309593965715791,1101,20,21.55830745340355,27.78127093602004
0.6351817457396643,1.3095808727721683,1101,20,21.55830745340355,27.78127093602004
0.6482742803635075,1.3095677799657923,1101,20,21.55830745340355,27.78127093602004
0.6613666791002153,1.309554687296173,1101,20,21.55830745340355,27.78127093602004
0.6744589423352817,1.3095415947628584,1101,20,21.55830745340355,27.78127093602004
0.6875510704246417,1.309528502365431,1101,20,21.55830745340355,27.78127093602004
0.7006430636969443,1.3095154101035051,1101,20,21.55830745340355,27.78127093602004
0.7137349224556524,1.3095023179767251,1101,20,21.55830745340355,27.78127093602004
0.726826646980981,1.309489225984762,1101,20,21.55830745340355,27.78127093602004
0.7399182375316848,1.3094761341273125,1101,20,21.55830745340355,27.78127093602004
0.7530096943467115,1.3094630424040963,1101,20,21.55830745340355,27.78127093602004
0.7661010176467231,1.309449950814855,1101,20,21.55830745340355,27.78127093602004
0.779192207635505,1.309436859359349,1101,20,21.55830745340355,27.78127093602004
0.7922832645012633,1.3094237680373582,1101,20,21.55830745340355,27.78127093602004
0.8053741884178243,1.3094106768486786,1101,20,21.55830745340355,27.78127093602004
0.81846497954574,1.309397585793122,1101,20,21.55830745340355,27.78127093602004
0.8315556380333106,1.3093844948705144,1101,20,21.55830745340355,27.78127093602004
0.8446461640175258,1.3093714040806956,1101,20,21.55830745340355,27.78127093602004
0.8577365576249364,1.3093583134235172,1101,20,21.55830745340355,27.78127093602004
0.8708268189724561,1.309345222898842,1101,20,21.55830745340355,27.78127093602004
0.8839169481681043,1.3093321325065437,1101,20,21.55830745340355,27.78127093602004
0.8970069453116898,1.3093190422465053,1101,20,21.55830745340355,27.78127093602004
0.9100968104954426,1.3093059521186186,1101,20,21.55830745340355,27.78127093602004
0.9231865438045967,1.309292862122784,1101,20,21.55830745340355,27.78127093602004
0.9362761453179291,1.3092797722589093,1101,20,21.55830745340355,27.78127093602004
0.9493656151082563,1.3092666825269093,1101,20,21.55830745340355,27.78127093602004
0.9624549532428927,1.3092535929267048,1101,20,21.55830745340355,27.78127093602004
0.9755441597840737,1.3092405034582235,1101,20,21.55830745340355,27.78127093602004
0.9886332347893475,1.3092274141213978,1101,20,21.55830745340355,27.78127093602004
1.0017221783119346,1.3092143249161656,1101,20,21.55830745340355,27.78127093602004
1.0148109904010618,1.3092012358424692,1101,20,21.55830745340355,27.78127093602004
1.0278996711022685,1.3091881469002555,1101,20,21.55830745340355,27.78127093602004
1.040988220457691,1.3091750580894754,1101,20,21.55830745340355,27.78127093602004
1.0540766385063243,1.3091619694100831,1101,20,21.55830745340355,27.78127093602004
1.0671649252842634,1.3091488808620364,1101,20,21.55830745340355,27.78127093602004
1.0802530808249273,1.3091357924452967,1101,20,21.55830745340355,27.78127093602004
1.0933411051592636,1.3091227041598277,1101,20,21.55830745340355,27.78127093602004
1.1064289983159405,1.3091096160055957,1101,20,21.55830745340355,27.78127093602004
1.1195167603215195,1.3090965279825704,1101,20,21.55830745340355,27.78127093602004
1.1326043912006207,1.3090834400907225,1101,20,21.55830745340355,27.78127093602004
1.1456918909760692,1.3090703523300256,1101,20,21.55830745340355,27.78127093602004
1.1587792596690356,1.3090572647004552,1101,20,21.55830745340355,27.78127093602004
1.1718664972991613,1.3090441772019887,1101,20,21.55830745340355,27.78127093602004
1.184953603884678,1.3090310898346045,1101,20,21.55830745340355,27.78127093602004
1.198040579442514,1.3090180025982832,1101,20,21.55830745340355,27.78127093602004
1.2111274239883976,1.3090049154930063,1101,20,21.55830745340355,27.78127093602004
1.2242141375369455,1.3089918285187572,1101,20,21.55830745340355,27.78127093602004
1.2373007201017518,1.30897874167552,1101,20,21.55830745340355,27.78127093602004
1.2503871716954655,1.3089656549632802,1101,20,21.55830745340355,27.78127093602004
1.2634734923298616,1.308952568382024,1101,20,21.55830745340355,27.78127093602004
1.2765596820159106,1.308939481931739,1101,20,21.55830745340355,27.78127093602004
1.28964574076384,1.3089263956124133,1101,20,21.55830745340355,27.78127093602004
1.3027316685831898,1.308913309424036,1101,20,21.55830745340355,27.78127093602004
1.3158174654828678,1.3089002233665965,1101,20,21.55830745340355,27.78127093602004
1.3289031314711965,1.308887137440086,1101,20,21.55830745340355,27.78127093602004
1.3419886665559582,1.3088740516444948,1101,20,21.55830745340355,27.78127093602004
1.355074070744438,1.308860965979815,1101,20,21.55830745340355,27.78127093602004
1.3681593440434607,1.3088478804460388,1101,20,21.55830745340355,27.78127093602004
1.3812444864594264,1.308834795043159,1101,20,21.55830745340355,27.78127093602004
1.3943294979983436,1.3088217097711685,1101,20,21.55830745340355,27.78127093602004
1.4074143786658595,1.308808624630061,1101,20,21.55830745340355,27.78127093602004
1.420499128467286,1.3087955396198308,1101,20,21.55830745340355,27.78127093602004
1.433583747407629,1.3087824547404716,1101,20,21.55830745340355,27.78127093602004
1.4466682354916078,1.3087693699919787,1101,20,21.55830745340355,27.78127093602004
1.4597525927236805,1.3087562853743469,1101,20,21.55830745340355,27.78127093602004
1.4728368191080627,1.3087432008875715,1101,20,21.55830745340355,27.78127093602004
1.4859209146487455,1.3087301165316478,1101,20,21.55830745340355,27.78127093602004
1.499004879349514,1.3087170323065718,1101,20,21.55830745340355,27.78127093602004
1.512088713213964,1.3087039482123395,1101,20,21.55830745340355,27.78127093602004
1.5251724162455123,1.3086908642489472,1101,20,21.55830745340355,27.78127093602004
1.5382559884474158,1.3086777804163912,1101,20,21.55830745340355,27.78127093602004
1.551339429822781,1.308664696714668,1101,20,21.55830745340355,27.78127093602004
1.5644227403745752,1.3086516131437744,1101,20,21.55830745340355,27.78127093602004
1.5775059201056385,1.3086385297037075,1101,20,21.55830745340355,27.78127093602004
1.5905889690186934,1.308625446394464,1101,20,21.55830745340355,27.78127093602004
1.6036718871163531,1.3086123632160414,1101,20,21.55830745340355,27.78127093602004
1.6167546744011299,1.3085992801684367,1101,20,21.55830745340355,27.78127093602004
1.6298373308754446,1.3085861972516473,1101,20,21.55830745340355,27.78127093602004
1.6429198565416316,1.308573114465671,1101,20,21.55830745340355,27.78127093602004
1.6560022514019463,1.3085600318105048,1101,20,21.55830745340355,27.78127093602004
1.6690845154585712,1.3085469492861468,1101,20,21.55830745340355,27.78127093602004
1.6821666487136215,1.3085338668925948,1101,20,21.55830745340355,27.78127093602004
1.6952486511691505,1.3085207846298466,1101,20,21.55830745340355,27.78127093602004
1.708330522827153,1.3085077024978997,1101,20,21.55830745340355,27.78127093602004
1.7214122636895726,1.3084946204967522,1101,20,21.55830745340355,27.78127093602004
1.734493873758303,1.3084815386264026,1101,20,21.55830745340355,27.78127093602004
1.747575353035193,1.3084684568868483,1101,20,21.55830745340355,27.78127093602004
1.7606567015220493,1.3084553752780879,1101,20,21.55830745340355,27.78127093602004
1.7737379192206413,1.308442293800119,1101,20,21.55830745340355,27.78127093602004
1.7868190061327016,1.3084292124529404,1101,20,21.55830745340355,27.78127093602004
1.7998999622599303,1.3084161312365499,1101,20,21.55830745340355,27.78127093602004
1.8129807876039983,1.308403050150946,1101,20,21.55830745340355,27.78127093602004
1.8260614821665468,1.308389969196127,1101,20,21.55830745340355,27.78127093602004
1.8391420459491932,1.308376888372091,1101,20,21.55830745340355,27.78127093602004
1.8522224789535295,1.3083638076788364,1101,20,21.55830745340355,27.78127093602004
1.8653027811811267,1.308350727116362,1101,20,21.55830745340355,27.78127093602004
1.8783829526335356,1.3083376466846657,1101,20,21.55830745340355,27.78127093602004
1.8914629933122875,1.3083245663837462,1101,20,21.55830745340355,27.78127093602004
1.9045429032188967,1.3083114862136018,1101,20,21.55830745340355,27.78127093602004
1.9176226823548623,1.308298406174231,1101,20,21.55830745340355,27.78127093602004
1.9307023307216677,1.3082853262656324,1101,20,21.55830745340355,27.78127093602004
1.9437818483207832,1.3082722464878045,1101,20,21.55830745340355,27.78127093602004
1.956861235153666,1.3082591668407457,1101,20,21.55830745340355,27.78127093602004
1.9699404912217626,1.3082460873244546,1101,20,21.55830745340355,27.78127093602004
1.9830196165265088,1.3082330079389297,1101,20,21.55830745340355,27.78127093602004
1.9960986110693295,1.3082199286841694,1101,20,21.55830745340355,27.78127093602004
2.0091774748516413,1.3082068495601726,1101,20,21.55830745340355,27.78127093602004
2.0222562078748525,1.3081937705669378,1101,20,21.55830745340355,27.78127093602004
2.035334810140363,1.3081806917044634,1101,20,21.55830745340355,27.78127093602004
2.0484132816495655,1.308167612972748,1101,20,21.55830745340355,27.78127093602004
2.0614916224038478,1.3081545343717904,1101,20,21.55830745340355,27.78127093602004
2.0745698324045887,1.3081414559015891,1101,20,21.55830745340355,27.78127093602004
2.0876479116531637,1.3081283775621426,1101,20,21.55830745340355,27.78127093602004
2.100725860150943,1.3081152993534497,1101,20,21.55830745340355,27.78127093602004
2.11380367789929,1.3081022212755091,1101,20,21.55830745340355,27.78127093602004
2.1268813648995657,1.308089143328319,1101,20,21.55830745340355,27.78127093602004
2.1399589211531262,1.3080760655118786,1101,20,21.55830745340355,27.78127093602004
2.153036346661323,1.308062987826186,1101,20,21.55830745340355,27.78127093602004
2.166113641425506,1.3080499102712402,1101,20,21.55830745340355,27.78127093602004
2.1791908054470213,1.3080368328470398,1101,20,21.55830745340355,27.78127093602004
2.1922678387272105,1.3080237555535834,1101,20,21.55830745340355,27.78127093602004
2.205344741267414,1.3080106783908696,1101,20,21.55830745340355,27.78127093602004
2.218421513068969,1.3079976013588972,1101,20,21.55830745340355,27.78127093602004
2.2314981541332104,1.3079845244576647,1101,20,21.55830745340355,27.78127093602004
2.2445746644614717,1.3079714476871709,1101,20,21.55830745340355,27.78127093602004
2.2576510440550837,1.3079583710474143,1101,20,21.55830745340355,27.78127093602004
2.2707272929153755,1.3079452945383938,1101,20,21.55830745340355,27.78127093602004
2.2838034110436736,1.3079322181601079,1101,20,21.55830745340355,27.78127093602004
2.2968793984413045,1.307919141912555,1101,20,21.55830745340355,27.78127093602004
2.3099552551095925,1.3079060657957344,1101,20,21.55830745340355,27.78127093602004
2.32303098104986,1.3078929898096445,1101,20,21.55830745340355,27.78127093602004
2.3361065762634294,1.3078799139542838,1101,20,21.55830745340355,27.78127093602004
2.349182040751621,1.3078668382296512,1101,20,21.55830745340355,27.78127093602004
2.362257374515754,1.3078537626357452,1101,20,21.55830745340355,27.78127093602004
2.375332577557147,1.3078406871725645,1101,20,21.55830745340355,27.78127093602004
2.3884076498771187,1.307827611840108,1101,20,21.55830745340355,27.78127093602004
2.4014825914769844,1.307814536638374,1101,20,21.55830745340355,27.78127093602004
2.4145574023580605,1.3078014615673617,1101,20,21.55830745340355,27.78127093602004
2.4276320825216633,1.3077883866270694,1101,20,21.55830745340355,27.78127093602004
2.440706631969106,1.3077753118174957,1101,20,21.55830745340355,27.78127093602004
2.453781050701703,1.3077622371386397,1101,20,21.55830745340355,27.78127093602004
2.466855338720769,1.3077491625904998,1101,20,21.55830745340355,27.78127093602004
2.4799294960276153,1.3077360881730746,1101,20,21.55830745340355,27.78127093602004
2.4930035226235554,1.307723013886363,1101,20,21.55830745340355,27.78127093602004
2.5060774185099004,1.3077099397303635,1101,20,21.55830745340355,27.78127093602004
2.519151183687963,1.307696865705075,1101,20,21.55830745340355,27.78127093602004
2.5322248181590536,1.307683791810496,1101,20,21.55830745340355,27.78127093602004
2.5452983219244834,1.3076707180466254,1101,20,21.55830745340355,27.78127093602004
2.5583716949855626,1.3076576444134618,1101,20,21.55830745340355,27.78127093602004
2.571444937343602,1.3076445709110036,1101,20,21.55830745340355,27.78127093602004
2.584518048999911,1.30763149753925,1101,20,21.55830745340355,27.78127093602004
2.5975910299558,1.3076184242981992,1101,20,21.55830745340355,27.78127093602004
2.6106638802125772,1.3076053511878503,1101,20,21.55830745340355,27.78127093602004
2.623736599771553,1.3075922782082017,1101,20,21.55830745340355,27.78127093602004
2.6368091886340355,1.3075792053592523,1101,20,21.55830745340355,27.78127093602004
2.6498816468013353,1.3075661326410006,1101,20,21.55830745340355,27.78127093602004
2.6629539742747586,1.3075530600534453,1101,20,21.55830745340355,27.78127093602004
2.6760261710556152,1.3075399875965854,1101,20,21.55830745340355,27.78127093602004
2.689098237145213,1.3075269152704192,1101,20,21.55830745340355,27.78127093602004
2.7021701725448595,1.3075138430749456,1101,20,21.55830745340355,27.78127093602004
2.715241977255865,1.3075007710101632,1101,20,21.55830745340355,27.78127093602004
2.7283136512795347,1.3074876990760709,1101,20,21.55830745340355,27.78127093602004
2.741385194617178,1.307474627272667,1101,20,21.55830745340355,27.78127093602004
2.7544566072701033,1.3074615555999505,1101,20,21.55830745340355,27.78127093602004
2.7675278892396165,1.3074484840579201,1101,20,21.55830745340355,27.78127093602004
2.780599040527026,1.3074354126465744,1101,20,21.55830745340355,27.78127093602004
2.7936700611336382,1.3074223413659118,1101,20,21.55830745340355,27.78127093602004
2.8067409510607626,1.3074092702159317,1101,20,21.55830745340355,27.78127093602004
2.8198117103097045,1.307396199196632,1101,20,21.55830745340355,27.78127093602004
2.8328823388817717,1.3073831283080122,1101,20,21.55830745340355,27.78127093602004
2.8459528367782716,1.3073700575500704,1101,20,21.55830745340355,27.78127093602004
2.85902320400051,1.3073569869228054,1101,20,21.55830745340355,27.78127093602004
2.872093440549796,1.307343916426216,1101,20,21.55830745340355,27.78127093602004
2.8851635464274348,1.3073308460603008,1101,20,21.55830745340355,27.78127093602004
2.898233521634734,1.3073177758250585,1101,20,21.55830745340355,27.78127093602004
2.9113033661730006,1.3073047057204878,1101,20,21.55830745340355,27.78127093602004
2.9243730800435404,1.3072916357465876,1101,20,21.55830745340355,27.78127093602004
2.9374426632476602,1.3072785659033563,1101,20,21.55830745340355,27.78127093602004
2.9505121157866676,1.3072654961907928,1101,20,21.55830745340355,27.78127093602004
2.963581437661869,1.3072524266088956,1101,20,21.55830745340355,27.78127093602004
2.9766506288745718,1.3072393571576637,1101,20,21.55830745340355,27.78127093602004
2.989719689426081,1.3072262878370955,1101,20,21.55830745340355,27.78127093602004
3.0027886193177045,1.3072132186471896,1101,20,21.55830745340355,27.78127093602004
3.0158574185507483,1.307200149587945,1101,20,21.55830745340355,27.78127093602004
3.028926087126518,1.3071870806593604,1101,20,21.55830745340355,27.78127093602004
3.041994625046322,1.3071740118614343,1101,20,21.55830745340355,27.78127093602004
3.055063032311465,1.3071609431941653,1101,20,21.55830745340355,27.78127093602004
3.0681313089232543,1.3071478746575524,1101,20,21.55830745340355,27.78127093602004
3.0811994548829955,1.3071348062515942,1101,20,21.55830745340355,27.78127093602004
3.094267470191996,1.3071217379762892,1101,20,21.55830745340355,27.78127093602004
3.107335354851561,1.3071086698316363,1101,20,21.55830745340355,27.78127093602004
3.120403108862997,1.307095601817634,1101,20,21.55830745340355,27.78127093602004
3.1334707322276105,1.3070825339342815,1101,20,21.55830745340355,27.78127093602004
3.1465382249467084,1.3070694661815767,1101,20,21.55830745340355,27.78127093602004
