Vout,Iout,Irradiance,Temperature,MaxVoltage,MaxPower
0.01029095104854761,2.05821,1701,30,22.317798657343825,45.43753622642588
0.03087266285621794,2.05821,1701,30,22.317798657343825,45.43753622642588
0.05145395624284959,2.0581995032279514,1701,30,22.317798657343825,45.43753622642588
0.07203475645766258,2.0581789215161437,1701,30,22.317798657343825,45.43753622642588
0.09261503907080514,2.0581583402238066,1701,30,22.317798657343825,45.43753622642588
0.11319482808015713,2.0581377594256502,1701,30,22.317798657343825,45.43753622642588
0.13377414563800588,2.058117179145095,1701,30,22.317798657343825,45.43753622642588
0.1543530121925933,2.058096599358144,1701,30,22.317798657343825,45.43753622642588
0.17493144661899976,2.058076020042644,1701,30,22.317798657343825,45.43753622642588
0.19550946634018537,2.0580554411781473,1701,30,22.317798657343825,45.43753622642588
0.21608708743871868,2.058034862745779,1701,30,22.317798657343825,45.43753622642588
0.23666432475990823,2.0580142847281158,1701,30,22.317798657343825,45.43753622642588
0.2572411920069996,2.057993707109075,1701,30,22.317798657343825,45.43753622642588
0.27781770182904714,2.0579731298738113,1701,30,22.317798657343825,45.43753622642588
0.29839386590202555,2.0579525530086222,1701,30,22.317798657343825,45.43753622642588
0.3189696950036997,2.057931976500858,1701,30,22.317798657343825,45.43753622642588
0.33954519908273467,2.0579114003388423,1701,30,22.317798657343825,45.43753622642588
0.3601203873224876,2.0578908245117984,1701,30,22.317798657343825,45.43753622642588
0.38069526819989224,2.057870249009777,1701,30,22.317798657343825,45.43753622642588
0.4012698495398118,2.0578496738235947,1701,30,22.317798657343825,45.43753622642588
0.4218441385652102,2.057829098944775,1701,30,22.317798657343825,45.43753622642588
0.44241814194346374,2.057808524365493,1701,30,22.317798657343825,45.43753622642588
0.46299186582910834,2.0577879500785246,1701,30,22.317798657343825,45.43753622642588
0.4835653159032984,2.057767376077204,1701,30,22.317798657343825,45.43753622642588
0.5041384974102298,2.0577468023553758,1701,30,22.317798657343825,45.43753622642588
0.5247114151907596,2.057726228907359,1701,30,22.317798657343825,45.43753622642588
0.5452840737134402,2.057705655727909,1701,30,22.317798657343825,45.43753622642588
0.5658564771031649,2.057685082812186,1701,30,22.317798657343825,45.43753622642588
0.5864286291676087,2.0576645101557207,1701,30,22.317798657343825,45.43753622642588
0.6070005334216373,2.0576439377543885,1701,30,22.317798657343825,45.43753622642588
0.6275721931098343,2.0576233656043814,1701,30,22.317798657343825,45.43753622642588
0.6481436112272989,2.0576027937021846,1701,30,22.317798657343825,45.43753622642588
0.6687147905388404,2.0575822220445534,1701,30,22.317798657343825,45.43753622642588
0.6892857335966979,2.057561650628493,1701,30,22.317798657343825,45.43753622642588
0.7098564427568949,2.057541079451239,1701,30,22.317798657343825,45.43753622642588
0.7304269201943373,2.057520508510238,1701,30,22.317798657343825,45.43753622642588
0.7509971679167486,2.057499937803135,1701,30,22.317798657343825,45.43753622642588
0.7715671877775326,2.0574793673277547,1701,30,22.317798657343825,45.43753622642588
0.7921369814876479,2.0574587970820892,1701,30,22.317798657343825,45.43753622642588
0.812706550626567,2.0574382270642855,1701,30,22.317798657343825,45.43753622642588
0.8332758966523942,2.0574176572726324,1701,30,22.317798657343825,45.43753622642588
0.8538450209112024,2.0573970877055507,1701,30,22.317798657343825,45.43753622642588
0.8744139246456542,2.0573765183615818,1701,30,22.317798657343825,45.43753622642588
0.8949826090029576,2.05735594923938,1701,30,22.317798657343825,45.43753622642588
0.9155510750422107,2.0573353803377024,1701,30,22.317798657343825,45.43753622642588
0.9361193237411819,2.057314811655402,1701,30,22.317798657343825,45.43753622642588
0.9566873560025656,2.0572942431914196,1701,30,22.317798657343825,45.43753622642588
0.9772551726597607,2.0572736749447773,1701,30,22.317798657343825,45.43753622642588
0.9978227744822004,2.057253106914573,1701,30,22.317798657343825,45.43753622642588
1.018390162180275,2.0572325390999726,1701,30,22.317798657343825,45.43753622642588
1.0389573364098748,2.057211971500207,1701,30,22.317798657343825,45.43753622642588
1.0595242977765817,2.057191404114566,1701,30,22.317798657343825,45.43753622642588
1.0800910468395433,2.057170836942393,1701,30,22.317798657343825,45.43753622642588
1.1006575841150419,2.057150269983083,1701,30,22.317798657343825,45.43753622642588
1.1212239100797958,2.0571297032360767,1701,30,22.317798657343825,45.43753622642588
1.1417900251740005,2.057109136700858,1701,30,22.317798657343825,45.43753622642588
1.1623559298041415,2.05708857037695,1701,30,22.317798657343825,45.43753622642588
1.1829216243455867,2.057068004263912,1701,30,22.317798657343825,45.43753622642588
1.2034871091449797,2.0570474383613386,1701,30,22.317798657343825,45.43753622642588
1.2240523845224525,2.0570268726688536,1701,30,22.317798657343825,45.43753622642588
1.244617450773662,2.057006307186111,1701,30,22.317798657343825,45.43753622642588
1.2651823081716769,2.05698574191279,1701,30,22.317798657343825,45.43753622642588
1.2857469569687126,2.0569651768485957,1701,30,22.317798657343825,45.43753622642588
1.3063113973977358,2.056944611993254,1701,30,22.317798657343825,45.43753622642588
1.3268756296739492,2.0569240473465134,1701,30,22.317798657343825,45.43753622642588
1.3474396539961526,2.0569034829081407,1701,30,22.317798657343825,45.43753622642588
1.3680034705480104,2.056882918677921,1701,30,22.317798657343825,45.43753622642588
1.3885670794992122,2.0568623546556553,1701,30,22.317798657343825,45.43753622642588
1.4091304810065501,2.05684179084116,1701,30,22.317798657343825,45.43753622642588
1.4296936752149105,2.0568212272342654,1701,30,22.317798657343825,45.43753622642588
1.45025666225819,2.056800663834814,1701,30,22.317798657343825,45.43753622642588
1.4708194422601406,2.056780100642662,1701,30,22.317798657343825,45.43753622642588
1.491382015335152,2.0567595376576753,1701,30,22.317798657343825,45.43753622642588
1.5119443815889702,2.0567389748797296,1701,30,22.317798657343825,45.43753622642588
1.5325065411193624,2.0567184123087108,1701,30,22.317798657343825,45.43753622642588
1.5530684940167319,2.056697849944513,1701,30,22.317798657343825,45.43753622642588
1.5736302403646851,2.056677287787039,1701,30,22.317798657343825,45.43753622642588
1.5941917802405516,2.056656725836198,1701,30,22.317798657343825,45.43753622642588
1.6147531137158724,2.0566361640919064,1701,30,22.317798657343825,45.43753622642588
1.6353142408568397,2.056615602554087,1701,30,22.317798657343825,45.43753622642588
1.6558751617247118,2.0565950412226677,1701,30,22.317798657343825,45.43753622642588
1.6764358763761913,2.056574480097583,1701,30,22.317798657343825,45.43753622642588
1.696996384863777,2.056553919178771,1701,30,22.317798657343825,45.43753622642588
1.7175566872360852,2.056533358466176,1701,30,22.317798657343825,45.43753622642588
1.7381167835381512,2.056512797959744,1701,30,22.317798657343825,45.43753622642588
1.7586766738117017,2.056492237659428,1701,30,22.317798657343825,45.43753622642588
1.7792363580954123,2.056471677565182,1701,30,22.317798657343825,45.43753622642588
1.7997958364251405,2.056451117676964,1701,30,22.317798657343825,45.43753622642588
1.820355108834142,2.056430557994737,1701,30,22.317798657343825,45.43753622642588
1.840914175353274,2.056409998518463,1701,30,22.317798657343825,45.43753622642588
1.8614730360111753,2.05638943924811,1701,30,22.317798657343825,45.43753622642588
1.8820316908344408,2.056368880183647,1701,30,22.317798657343825,45.43753622642588
1.9025901398477765,2.0563483213250446,1701,30,22.317798657343825,45.43753622642588
1.9231483830741463,2.0563277626722773,1701,30,22.317798657343825,45.43753622642588
1.9437064205349044,2.05630720422532,1701,30,22.317798657343825,45.43753622642588
1.9642642522499203,2.0562866459841493,1701,30,22.317798657343825,45.43753622642588
1.9848218782376934,2.0562660879487447,1701,30,22.317798657343825,45.43753622642588
2.005379298515457,2.056245530119085,1701,30,22.317798657343825,45.43753622642588
2.025936513099277,2.0562249724951536,1701,30,22.317798657343825,45.43753622642588
2.0464935220041416,2.056204415076931,1701,30,22.317798657343825,45.43753622642588
2.067050325244043,2.0561838578644034,1701,30,22.317798657343825,45.43753622642588
2.087606922832055,2.056163300857554,1701,30,22.317798657343825,45.43753622642588
2.108163314780404,2.05614274405637,1701,30,22.317798657343825,45.43753622642588
2.1287195011005347,2.0561221874608377,1701,30,22.317798657343825,45.43753622642588
2.1492754818031665,2.0561016310709452,1701,30,22.317798657343825,45.43753622642588
2.169831256898355,2.0560810748866807,1701,30,22.317798657343825,45.43753622642588
2.1903868263955384,2.0560605189080334,1701,30,22.317798657343825,45.43753622642588
2.2109421903035877,2.056039963134994,1701,30,22.317798657343825,45.43753622642588
2.2314973486308496,2.0560194075675526,1701,30,22.317798657343825,45.43753622642588
2.2520523013851843,2.0559988522057,1701,30,22.317798657343825,45.43753622642588
2.2726070485740095,2.0559782970494282,1701,30,22.317798657343825,45.43753622642588
2.293161590204326,2.0559577420987294,1701,30,22.317798657343825,45.43753622642588
2.313715926282756,2.0559371873535963,1701,30,22.317798657343825,45.43753622642588
2.3342700568155714,2.0559166328140215,1701,30,22.317798657343825,45.43753622642588
2.354823981808717,2.0558960784799982,1701,30,22.317798657343825,45.43753622642588
2.37537770126784,2.055875524351521,1701,30,22.317798657343825,45.43753622642588
2.3959312151983103,2.0558549704285833,1701,30,22.317798657343825,45.43753622642588
2.4164845236052437,2.0558344167111797,1701,30,22.317798657343825,45.43753622642588
2.43703762649352,2.0558138631993046,1701,30,22.317798657343825,45.43753622642588
2.4575905238678,2.055793309892953,1701,30,22.317798657343825,45.43753622642588
2.478143215732546,2.0557727567921202,1701,30,22.317798657343825,45.43753622642588
2.498695702092035,2.0557522038968012,1701,30,22.317798657343825,45.43753622642588
2.5192479829503713,2.0557316512069916,1701,30,22.317798657343825,45.43753622642588
2.5398000583115032,2.0557110987226874,1701,30,22.317798657343825,45.43753622642588
2.560351928179232,2.055690546443884,1701,30,22.317798657343825,45.43753622642588
2.580903592557225,2.0556699943705783,1701,30,22.317798657343825,45.43753622642588
2.6014550514490256,2.055649442502766,1701,30,22.317798657343825,45.43753622642588
2.622006304858062,2.055628890840443,1701,30,22.317798657343825,45.43753622642588
2.6425573527876574,2.0556083393836064,1701,30,22.317798657343825,45.43753622642588
2.6631081952410374,2.055587788132253,1701,30,22.317798657343825,45.43753622642588
2.6836588322213366,2.0555672370863785,1701,30,22.317798657343825,45.43753622642588
2.7042092637316064,2.05554668624598,1701,30,22.317798657343825,45.43753622642588
2.724759489774823,2.055526135611055,1701,30,22.317798657343825,45.43753622642588
2.74530951035389,2.0555055851815998,1701,30,22.317798657343825,45.43753622642588
2.765859325471647,2.0554850349576115,1701,30,22.317798657343825,45.43753622642588
2.7864089351308703,2.0554644849390873,1701,30,22.317798657343825,45.43753622642588
2.806958339334285,2.0554439351260245,1701,30,22.317798657343825,45.43753622642588
2.8275075380845607,2.0554233855184205,1701,30,22.317798657343825,45.43753622642588
2.8480565313843216,2.055402836116272,1701,30,22.317798657343825,45.43753622642588
2.8686053192361483,2.055382286919577,1701,30,22.317798657343825,45.43753622642588
2.8891539016425782,2.0553617379283318,1701,30,22.317798657343825,45.43753622642588
2.909702278606114,2.055341189142535,1701,30,22.317798657343825,45.43753622642588
2.930250450129224,2.0553206405621833,1701,30,22.317798657343825,45.43753622642588
2.9507984162143432,2.055300092187275,1701,30,22.317798657343825,45.43753622642588
2.9713461768638783,2.0552795440178064,1701,30,22.317798657343825,45.43753622642588
2.991893732080208,2.055258996053776,1701,30,22.317798657343825,45.43753622642588
3.0124410818656853,2.0552384482951815,1701,30,22.317798657343825,45.43753622642588
3.0329882262226433,2.05521790074202,1701,30,22.317798657343825,45.43753622642588
3.05353516515339,2.0551973533942896,1701,30,22.317798657343825,45.43753622642588
3.074081898660216,2.0551768062519873,1701,30,22.317798657343825,45.43753622642588
3.0946284267453934,2.055156259315111,1701,30,22.317798657343825,45.43753622642588
3.1151747494111754,2.055135712583659,1701,30,22.317798657343825,45.43753622642588
3.1357208666598027,2.0551151660576283,1701,30,22.317798657343825,45.43753622642588
3.1562667784935003,2.0550946197370172,1701,30,22.317798657343825,45.43753622642588
3.1768124849144805,2.0550740736218236,1701,30,22.317798657343825,45.43753622642588
3.197357985924941,2.0550535277120443,1701,30,22.317798657343825,45.43753622642588
3.2179032815270725,2.055032982007678,1701,30,22.317798657343825,45.43753622642588
3.2384483717230523,2.055012436508722,1701,30,22.317798657343825,45.43753622642588
3.258993256515048,2.054991891215175,1701,30,22.317798657343825,45.43753622642588
3.2795379359052212,2.0549713461270334,1701,30,22.317798657343825,45.43753622642588
3.3000824098957207,2.0549508012442956,1701,30,22.317798657343825,45.43753622642588
3.3206266784886926,2.05493025656696,1701,30,22.317798657343825,45.43753622642588
3.341170741686272,2.054909712095024,1701,30,22.317798657343825,45.43753622642588
3.361714599490591,2.0548891678284855,1701,30,22.317798657343825,45.43753622642588
3.382258251903773,2.0548686237673426,1701,30,22.317798657343825,45.43753622642588
3.402801698927938,2.0548480799115927,1701,30,22.317798657343825,45.43753622642588
3.4233449405651983,2.0548275362612336,1701,30,22.317798657343825,45.43753622642588
3.443887976817664,2.054806992816264,1701,30,22.317798657343825,45.43753622642588
3.4644308076874397,2.054786449576681,1701,30,22.317798657343825,45.43753622642588
3.4849734331766276,2.054765906542483,1701,30,22.317798657343825,45.43753622642588
3.505515853287324,2.0547453637136677,1701,30,22.317798657343825,45.43753622642588
3.5260580680216225,2.0547248210902325,1701,30,22.317798657343825,45.43753622642588
3.546600077381614,2.054704278672176,1701,30,22.317798657343825,45.43753622642588
3.5671418813693867,2.0546837364594963,1701,30,22.317798657343825,45.43753622642588
3.5876834799870267,2.0546631944521905,1701,30,22.317798657343825,45.43753622642588
3.6082248732366153,2.054642652650257,1701,30,22.317798657343825,45.43753622642588
3.628766061120233,2.0546221110536935,1701,30,22.317798657343825,45.43753622642588
3.6493070436399577,2.054601569662498,1701,30,22.317798657343825,45.43753622642588
3.6698478207978664,2.0545810284766683,1701,30,22.317798657343825,45.43753622642588
3.690388392596034,2.054560487496203,1701,30,22.317798657343825,45.43753622642588
3.7109287590365323,2.054539946721099,1701,30,22.317798657343825,45.43753622642588
3.731468920121433,2.054519406151355,1701,30,22.317798657343825,45.43753622642588
3.752008875852806,2.0544988657869685,1701,30,22.317798657343825,45.43753622642588
3.7725486262327204,2.054478325627938,1701,30,22.317798657343825,45.43753622642588
3.793088171263243,2.0544577856742605,1701,30,22.317798657343825,45.43753622642588
3.8136275109464397,2.054437245925935,1701,30,22.317798657343825,45.43753622642588
3.8341666452843763,2.054416706382958,1701,30,22.317798657343825,45.43753622642588
3.8547055742791168,2.054396167045329,1701,30,22.317798657343825,45.43753622642588
3.8752442979327246,2.054375627913045,1701,30,22.317798657343825,45.43753622642588
3.8957828162472623,2.054355088986104,1701,30,22.317798657343825,45.43753622642588
3.9163211292247917,2.0543345502645045,1701,30,22.317798657343825,45.43753622642588
3.936859236867375,2.054314011748244,1701,30,22.317798657343825,45.43753622642588
3.95739713917707,2.05429347343732,1701,30,22.317798657343825,45.43753622642588
3.977934836155939,2.0542729353317313,1701,30,22.317798657343825,45.43753622642588
3.9984723278060397,2.0542523974314753,1701,30,22.317798657343825,45.43753622642588
4.0190096141294305,2.0542318597365505,1701,30,22.317798657343825,45.43753622642588
4.039546695128171,2.054211322246954,1701,30,22.317798657343825,45.43753622642588
4.060083570804318,2.0541907849626844,1701,30,22.317798657343825,45.43753622642588
4.080620241159931,2.0541702478837394,1701,30,22.317798657343825,45.43753622642588
4.101156706197065,2.0541497110101172,1701,30,22.317798657343825,45.43753622642588
4.1216929659177755,2.0541291743418153,1701,30,22.317798657343825,45.43753622642588
4.142229020324122,2.054108637878832,1701,30,22.317798657343825,45.43753622642588
4.162764869418159,2.0540881016211645,1701,30,22.317798657343825,45.43753622642588
4.183300513201942,2.054067565568812,1701,30,22.317798657343825,45.43753622642588
4.203835951677527,2.0540470297217714,1701,30,22.317798657343825,45.43753622642588
4.2243711848469685,2.0540264940800412,1701,30,22.317798657343825,45.43753622642588
4.244906212712323,2.0540059586436192,1701,30,22.317798657343825,45.43753622642588
4.2654410352756456,2.0539854234125037,1701,30,22.317798657343825,45.43753622642588
4.285975652538988,2.053964888386692,1701,30,22.317798657343825,45.43753622642588
4.306510064504407,2.053944353566182,1701,30,22.317798657343825,45.43753622642588
4.327044271173957,2.053923818950972,1701,30,22.317798657343825,45.43753622642588
4.34757827254969,2.05390328454106,1701,30,22.317798657343825,45.43753622642588
4.3681120686336605,2.053882750336444,1701,30,22.317798657343825,45.43753622642588
4.388645659427926,2.0538622163371216,1701,30,22.317798657343825,45.43753622642588
4.409179044934536,2.053841682543091,1701,30,22.317798657343825,45.43753622642588
4.429712225155545,2.0538211489543503,1701,30,22.317798657343825,45.43753622642588
4.4502452000930095,2.053800615570897,1701,30,22.317798657343825,45.43753622642588
4.470777969748978,2.0537800823927292,1701,30,22.317798657343825,45.43753622642588
4.491310534125507,2.0537595494198455,1701,30,22.317798657343825,45.43753622642588
4.5118428932246495,2.0537390166522425,1701,30,22.317798657343825,45.43753622642588
4.532375047048458,2.0537184840899196,1701,30,22.317798657343825,45.43753622642588
4.552906995598985,2.0536979517328735,1701,30,22.317798657343825,45.43753622642588
4.573438738878283,2.053677419581103,1701,30,22.317798657343825,45.43753622642588
4.593970276888406,2.0536568876346055,1701,30,22.317798657343825,45.43753622642588
4.614501609631408,2.0536363558933797,1701,30,22.317798657343825,45.43753622642588
4.63503273710934,2.0536158243574225,1701,30,22.317798657343825,45.43753622642588
4.655563659324255,2.0535952930267327,1701,30,22.317798657343825,45.43753622642588
4.676094376278204,2.053574761901308,1701,30,22.317798657343825,45.43753622642588
4.696624887973243,2.0535542309811463,1701,30,22.317798657343825,45.43753622642588
4.717155194411421,2.0535337002662453,1701,30,22.317798657343825,45.43753622642588
4.737685295594793,2.0535131697566036,1701,30,22.317798657343825,45.43753622642588
4.758215191525411,2.0534926394522186,1701,30,22.317798657343825,45.43753622642588
4.778744882205327,2.053472109353088,1701,30,22.317798657343825,45.43753622642588
4.799274367636594,2.0534515794592103,1701,30,22.317798657343825,45.43753622642588
4.819803647821262,2.0534310497705834,1701,30,22.317798657343825,45.43753622642588
4.840332722761385,2.0534105202872053,1701,30,22.317798657343825,45.43753622642588
4.860861592459014,2.0533899910090736,1701,30,22.317798657343825,45.43753622642588
4.881390256916203,2.0533694619361866,1701,30,22.317798657343825,45.43753622642588
4.901918716135002,2.0533489330685417,1701,30,22.317798657343825,45.43753622642588
4.9224469701174645,2.0533284044061375,1701,30,22.317798657343825,45.43753622642588
