Vout,Iout,Irradiance,Temperature,MaxVoltage,MaxPower
0.0024861760944606304,0.49724,401,45,22.826796296670324,10.81569672587004
0.007458482311632831,0.49724,401,45,22.826796296670324,10.81569672587004
0.012430687443066808,0.49723746409990555,401,45,22.826796296670324,10.81569672587004
0.017402773429828905,0.4972324917936884,401,45,22.826796296670324,10.81569672587004
0.022374734369946293,0.49722751958881056,401,45,22.826796296670324,10.81569672587004
0.027346576061032322,0.497222547503321,401,45,22.826796296670324,10.81569672587004
0.03231830385482631,0.4972175755428781,401,45,22.826796296670324,10.81569672587004
0.037289922691389664,0.49721260370168424,401,45,22.826796296670324,10.81569672587004
0.04226143713072595,0.4972076319743876,401,45,22.826796296670324,10.81569672587004
0.04723285138202311,0.49720266035604826,401,45,22.826796296670324,10.81569672587004
0.0522041693306458,0.4971976888421061,401,45,22.826796296670324,10.81569672587004
0.057175394563050805,0.49719271742835197,401,45,22.826796296670324,10.81569672587004
0.06214653038978554,0.4971877461109005,401,45,22.826796296670324,10.81569672587004
0.06711757986671692,0.49718277488616525,401,45,22.826796296670324,10.81569672587004
0.0720885458146269,0.49717780375083565,401,45,22.826796296670324,10.81569672587004
0.07705943083730021,0.4971728327018558,401,45,22.826796296670324,10.81569672587004
0.08203023733822058,0.49716786173640504,401,45,22.826796296670324,10.81569672587004
0.08700096753598213,0.4971628908518794,401,45,22.826796296670324,10.81569672587004
0.09197162347851505,0.4971579200458756,401,45,22.826796296670324,10.81569672587004
0.09694220705621684,0.49715294931617493,401,45,22.826796296670324,10.81569672587004
0.10191272001407299,0.4971479786607295,401,45,22.826796296670324,10.81569672587004
0.10688316396284533,0.4971430080776489,401,45,22.826796296670324,10.81569672587004
0.11185354038939943,0.4971380375651881,401,45,22.826796296670324,10.81569672587004
0.11682385066623721,0.4971330671217364,401,45,22.826796296670324,10.81569672587004
0.1217940960602964,0.4971280967458069,401,45,22.826796296670324,10.81569672587004
0.12676427774107274,0.4971231264360271,401,45,22.826796296670324,10.81569672587004
0.1317343967881174,0.49711815619113003,401,45,22.826796296670324,10.81569672587004
0.13670445419795735,0.4971131860099463,401,45,22.826796296670324,10.81569672587004
0.1416744508904834,0.49710821589139625,401,45,22.826796296670324,10.81569672587004
0.14664438771484686,0.49710324583448345,401,45,22.826796296670324,10.81569672587004
0.15161426545490214,0.4970982758382879,401,45,22.826796296670324,10.81569672587004
0.15658408483423084,0.4970933059019606,401,45,22.826796296670324,10.81569672587004
0.16155384652077934,0.4970883360247175,401,45,22.826796296670324,10.81569672587004
0.16652355113113929,0.4970833662058352,401,45,22.826796296670324,10.81569672587004
0.1714931992344992,0.49707839644464563,401,45,22.826796296670324,10.81569672587004
0.17646279135629142,0.49707342674053223,401,45,22.826796296670324,10.81569672587004
0.18143232798155887,0.49706845709292585,401,45,22.826796296670324,10.81569672587004
0.18640180955806285,0.497063487501301,401,45,22.826796296670324,10.81569672587004
0.19137123649915133,0.49705851796517275,401,45,22.826796296670324,10.81569672587004
0.19634060918640692,0.4970535484840932,401,45,22.826796296670324,10.81569672587004
0.2013099279720907,0.49704857905764904,401,45,22.826796296670324,10.81569672587004
0.2062791931813987,0.49704360968545874,401,45,22.826796296670324,10.81569672587004
0.21124840511454393,0.49703864036717,401,45,22.826796296670324,10.81569672587004
0.21621756404867867,0.49703367110245766,401,45,22.826796296670324,10.81569672587004
0.2211866702396691,0.49702870189102144,401,45,22.826796296670324,10.81569672587004
0.22615572392373262,0.4970237327325842,401,45,22.826796296670324,10.81569672587004
0.23112472531895006,0.4970187636268902,401,45,22.826796296670324,10.81569672587004
0.23609367462666098,0.497013794573703,401,45,22.826796296670324,10.81569672587004
0.24106257203275164,0.4970088255728047,401,45,22.826796296670324,10.81569672587004
0.2460314177088443,0.4970038566239939,401,45,22.826796296670324,10.81569672587004
0.2510002118133943,0.4969988877270847,401,45,22.826796296670324,10.81569672587004
0.2559689544927038,0.4969939188819055,401,45,22.826796296670324,10.81569672587004
0.26093764588185603,0.49698895008829785,401,45,22.826796296670324,10.81569672587004
0.2659062861055791,0.49698398134611543,401,45,22.826796296670324,10.81569672587004
0.2708748752790426,0.49697901265522315,401,45,22.826796296670324,10.81569672587004
0.27584341350859265,0.4969740440154963,401,45,22.826796296670324,10.81569672587004
0.28081190089243174,0.49696907542681973,401,45,22.826796296670324,10.81569672587004
0.2857803375212442,0.49696410688908704,401,45,22.826796296670324,10.81569672587004
0.29074872347877534,0.4969591384022,401,45,22.826796296670324,10.81569672587004
0.2957170588423653,0.49695416996606806,401,45,22.826796296670324,10.81569672587004
0.3006853436834415,0.4969492015806074,401,45,22.826796296670324,10.81569672587004
0.30565357806797416,0.49694423324574066,401,45,22.826796296670324,10.81569672587004
0.31062176205689557,0.4969392649613964,401,45,22.826796296670324,10.81569672587004
0.3155898957064881,0.4969342967275087,401,45,22.826796296670324,10.81569672587004
0.3205579790687417,0.4969293285440166,401,45,22.826796296670324,10.81569672587004
0.32552601219168475,0.49692436041086385,401,45,22.826796296670324,10.81569672587004
0.3304939951196881,0.4969193923279984,401,45,22.826796296670324,10.81569672587004
0.3354619278937469,0.4969144242953723,401,45,22.826796296670324,10.81569672587004
0.3404298105517404,0.4969094563129411,401,45,22.826796296670324,10.81569672587004
0.3453976431286714,0.4969044883806638,401,45,22.826796296670324,10.81569672587004
0.35036542565688766,0.49689952049850267,401,45,22.826796296670324,10.81569672587004
0.3553331581662867,0.4968945526664225,401,45,22.826796296670324,10.81569672587004
0.3603008406845033,0.49688958488439106,401,45,22.826796296670324,10.81569672587004
0.3652684732370847,0.49688461715237847,401,45,22.826796296670324,10.81569672587004
0.3702360558476503,0.496879649470357,401,45,22.826796296670324,10.81569672587004
0.37520358853804053,0.4968746818383012,401,45,22.826796296670324,10.81569672587004
0.3801710713284536,0.4968697142561874,401,45,22.826796296670324,10.81569672587004
0.3851385042375719,0.4968647467239938,401,45,22.826796296670324,10.81569672587004
0.3901058872826783,0.49685977924170016,401,45,22.826796296670324,10.81569672587004
0.3950732204797644,0.49685481180928776,401,45,22.826796296670324,10.81569672587004
0.4000405038436295,0.4968498444267394,401,45,22.826796296670324,10.81569672587004
0.40500773738797224,0.4968448770940391,401,45,22.826796296670324,10.81569672587004
0.40997492112547573,0.49683990981117193,401,45,22.826796296670324,10.81569672587004
0.41494205506788523,0.49683494257812433,401,45,22.826796296670324,10.81569672587004
0.4199091392260805,0.49682997539488355,401,45,22.826796296670324,10.81569672587004
0.4248761736101426,0.4968250082614379,401,45,22.826796296670324,10.81569672587004
0.42984315822941477,0.4968200411777764,401,45,22.826796296670324,10.81569672587004
0.43481009309255986,0.49681507414388903,401,45,22.826796296670324,10.81569672587004
0.4397769782076123,0.4968101071597665,401,45,22.826796296670324,10.81569672587004
0.4447438135820266,0.49680514022540007,401,45,22.826796296670324,10.81569672587004
0.44971059922272166,0.4968001733407817,401,45,22.826796296670324,10.81569672587004
0.4546773351361224,0.496795206505904,401,45,22.826796296670324,10.81569672587004
0.45964402132819765,0.49679023972076,401,45,22.826796296670324,10.81569672587004
0.46461065780449506,0.49678527298534325,401,45,22.826796296670324,10.81569672587004
0.46957724457017364,0.49678030629964787,401,45,22.826796296670324,10.81569672587004
0.47454378163003375,0.4967753396636682,401,45,22.826796296670324,10.81569672587004
0.4795102689885444,0.4967703730773992,401,45,22.826796296670324,10.81569672587004
0.4844767066498692,0.496765406540836,401,45,22.826796296670324,10.81569672587004
0.4894430946178893,0.4967604400539742,401,45,22.826796296670324,10.81569672587004
0.4944094328962257,0.4967554736168095,401,45,22.826796296670324,10.81569672587004
0.49937572148825893,0.4967505072293381,401,45,22.826796296670324,10.81569672587004
0.5043419603971473,0.4967455408915564,401,45,22.826796296670324,10.81569672587004
0.5093081496258447,0.49674057460346105,401,45,22.826796296670324,10.81569672587004
0.5142742891771156,0.49673560836504876,401,45,22.826796296670324,10.81569672587004
0.5192403790535505,0.4967306421763167,401,45,22.826796296670324,10.81569672587004
0.5242064192575779,0.4967256760372621,401,45,22.826796296670324,10.81569672587004
0.5291724097914786,0.49672070994788226,401,45,22.826796296670324,10.81569672587004
0.5341383506573952,0.49671574390817486,401,45,22.826796296670324,10.81569672587004
0.5391042418573445,0.49671077791813756,401,45,22.826796296670324,10.81569672587004
0.5440700833932255,0.49670581197776825,401,45,22.826796296670324,10.81569672587004
0.5490358752668298,0.4967008460870649,401,45,22.826796296670324,10.81569672587004
0.5540016174798491,0.49669588024602557,401,45,22.826796296670324,10.81569672587004
0.5589673100338833,0.4966909144546486,401,45,22.826796296670324,10.81569672587004
0.5639329529304474,0.49668594871293215,401,45,22.826796296670324,10.81569672587004
0.5688985461709777,0.4966809830208747,401,45,22.826796296670324,10.81569672587004
0.5738640897568383,0.4966760173784747,401,45,22.826796296670324,10.81569672587004
0.5788295836893269,0.49667105178573073,401,45,22.826796296670324,10.81569672587004
0.5837950279696791,0.4966660862426414,401,45,22.826796296670324,10.81569672587004
0.5887604225990736,0.4966611207492055,401,45,22.826796296670324,10.81569672587004
0.593725767578637,0.49665615530542173,401,45,22.826796296670324,10.81569672587004
0.598691062909447,0.49665118991128887,401,45,22.826796296670324,10.81569672587004
0.6036563085925366,0.49664622456680585,401,45,22.826796296670324,10.81569672587004
0.6086215046288981,0.49664125927197156,401,45,22.826796296670324,10.81569672587004
0.6135866510194845,0.496636294026785,401,45,22.826796296670324,10.81569672587004
0.6185517477652148,0.49663132883124517,401,45,22.826796296670324,10.81569672587004
0.6235167948669746,0.4966263636853511,401,45,22.826796296670324,10.81569672587004
0.6284817923256203,0.4966213985891019,401,45,22.826796296670324,10.81569672587004
0.6334467401419798,0.4966164335424967,401,45,22.826796296670324,10.81569672587004
0.638411638316856,0.49661146854553456,401,45,22.826796296670324,10.81569672587004
0.6433764868510283,0.4966065035982147,401,45,22.826796296670324,10.81569672587004
0.6483412857452538,0.4966015387005363,401,45,22.826796296670324,10.81569672587004
0.6533060350002701,0.4965965738524986,401,45,22.826796296670324,10.81569672587004
0.6582707346167956,0.4965916090541009,401,45,22.826796296670324,10.81569672587004
0.6632353845955321,0.4965866443053424,401,45,22.826796296670324,10.81569672587004
0.6681999849371656,0.4965816796062223,401,45,22.826796296670324,10.81569672587004
0.673164535642367,0.49657671495674005,401,45,22.826796296670324,10.81569672587004
0.678129036711794,0.4965717503568949,401,45,22.826796296670324,10.81569672587004
0.6830934881460924,0.4965667858066862,401,45,22.826796296670324,10.81569672587004
0.6880578899458957,0.4965618213061132,401,45,22.826796296670324,10.81569672587004
0.6930222421118272,0.49655685685517537,401,45,22.826796296670324,10.81569672587004
0.6979865446445003,0.496551892453872,401,45,22.826796296670324,10.81569672587004
0.7029507975445197,0.4965469281022025,401,45,22.826796296670324,10.81569672587004
0.7079150008124814,0.4965419638001663,401,45,22.826796296670324,10.81569672587004
0.7128791544489737,0.4965369995477627,401,45,22.826796296670324,10.81569672587004
0.7178432584545777,0.49653203534499113,401,45,22.826796296670324,10.81569672587004
0.7228073128298688,0.4965270711918511,401,45,22.826796296670324,10.81569672587004
0.7277713175754152,0.4965221070883419,401,45,22.826796296670324,10.81569672587004
0.7327352726917802,0.49651714303446304,401,45,22.826796296670324,10.81569672587004
0.7376991781795218,0.4965121790302139,401,45,22.826796296670324,10.81569672587004
0.7426630340391932,0.4965072150755939,401,45,22.826796296670324,10.81569672587004
0.7476268402713431,0.4965022511706026,401,45,22.826796296670324,10.81569672587004
0.7525905968765161,0.4964972873152393,401,45,22.826796296670324,10.81569672587004
0.7575543038552537,0.49649232350950356,401,45,22.826796296670324,10.81569672587004
0.7625179612080931,0.49648735975339475,401,45,22.826796296670324,10.81569672587004
0.7674815689355688,0.4964823960469124,401,45,22.826796296670324,10.81569672587004
0.7724451270382123,0.49647743239005593,401,45,22.826796296670324,10.81569672587004
0.7774086355165521,0.49647246878282486,401,45,22.826796296670324,10.81569672587004
0.7823720943711147,0.49646750522521854,401,45,22.826796296670324,10.81569672587004
0.7873355036024233,0.4964625417172366,401,45,22.826796296670324,10.81569672587004
0.7922988632110005,0.4964575782588784,401,45,22.826796296670324,10.81569672587004
0.7972621731973653,0.4964526148501434,401,45,22.826796296670324,10.81569672587004
0.8022254335620361,0.4964476514910312,401,45,22.826796296670324,10.81569672587004
0.8071886443055291,0.4964426881815412,401,45,22.826796296670324,10.81569672587004
0.8121518054283587,0.4964377249216728,401,45,22.826796296670324,10.81569672587004
0.8171149169310384,0.49643276171142564,401,45,22.826796296670324,10.81569672587004
0.8220779788140802,0.49642779855079916,401,45,22.826796296670324,10.81569672587004
0.8270409910779948,0.4964228354397928,401,45,22.826796296670324,10.81569672587004
0.8320039537232916,0.49641787237840607,401,45,22.826796296670324,10.81569672587004
0.8369668667504789,0.49641290936663846,401,45,22.826796296670324,10.81569672587004
0.8419297301600648,0.4964079464044895,401,45,22.826796296670324,10.81569672587004
0.8468925439525555,0.4964029834919586,401,45,22.826796296670324,10.81569672587004
0.8518553081284573,0.4963980206290453,401,45,22.826796296670324,10.81569672587004
0.8568180226882751,0.4963930578157491,401,45,22.826796296670324,10.81569672587004
0.8617806876325133,0.4963880950520695,401,45,22.826796296670324,10.81569672587004
0.8667433029616756,0.49638313233800596,401,45,22.826796296670324,10.81569672587004
0.8717058686762651,0.496378169673558,401,45,22.826796296670324,10.81569672587004
0.8766683847767842,0.4963732070587251,401,45,22.826796296670324,10.81569672587004
0.8816308512637356,0.4963682444935068,401,45,22.826796296670324,10.81569672587004
0.8865932681376204,0.4963632819779025,401,45,22.826796296670324,10.81569672587004
0.8915556353989401,0.49635831951191184,401,45,22.826796296670324,10.81569672587004
0.8965179530481953,0.4963533570955342,401,45,22.826796296670324,10.81569672587004
0.9014802210858862,0.4963483947287691,401,45,22.826796296670324,10.81569672587004
0.9064424395125132,0.4963434324116161,401,45,22.826796296670324,10.81569672587004
0.9114046083285758,0.4963384701440747,401,45,22.826796296670324,10.81569672587004
0.9163667275345736,0.4963335079261443,401,45,22.826796296670324,10.81569672587004
0.9213287971310059,0.4963285457578244,401,45,22.826796296670324,10.81569672587004
0.9262908171183715,0.49632358363911466,401,45,22.826796296670324,10.81569672587004
0.9312527874971691,0.49631862157001444,401,45,22.826796296670324,10.81569672587004
0.9362147082678971,0.49631365955052326,401,45,22.826796296670324,10.81569672587004
0.9411765794310539,0.49630869758064067,401,45,22.826796296670324,10.81569672587004
0.9461384009871373,0.4963037356603662,401,45,22.826796296670324,10.81569672587004
0.9511001729366458,0.4962987737896992,401,45,22.826796296670324,10.81569672587004
0.9560618952800767,0.4962938119686393,401,45,22.826796296670324,10.81569672587004
0.9610235680179278,0.496288850197186,401,45,22.826796296670324,10.81569672587004
0.9659851911506965,0.4962838884753387,401,45,22.826796296670324,10.81569672587004
0.9709467646788802,0.49627892680309704,401,45,22.826796296670324,10.81569672587004
0.9759082886029763,0.49627396518046046,401,45,22.826796296670324,10.81569672587004
0.9808697629234818,0.4962690036074284,401,45,22.826796296670324,10.81569672587004
0.9858311876408938,0.49626404208400055,401,45,22.826796296670324,10.81569672587004
0.9907925627557093,0.49625908061017615,401,45,22.826796296670324,10.81569672587004
0.995753888268425,0.4962541191859549,401,45,22.826796296670324,10.81569672587004
1.000715164179538,0.49624915781133627,401,45,22.826796296670324,10.81569672587004
1.0056763904895447,0.4962441964863197,401,45,22.826796296670324,10.81569672587004
1.0106375671989416,0.4962392352109047,401,45,22.826796296670324,10.81569672587004
1.0155986943082258,0.49623427398509085,401,45,22.826796296670324,10.81569672587004
1.0205597718178936,0.49622931280887755,401,45,22.826796296670324,10.81569672587004
1.0255207997284417,0.49622435168226436,401,45,22.826796296670324,10.81569672587004
1.0304817780403657,0.49621939060525083,401,45,22.826796296670324,10.81569672587004
1.035442706754163,0.4962144295778364,401,45,22.826796296670324,10.81569672587004
1.0404035858703296,0.4962094686000206,401,45,22.826796296670324,10.81569672587004
1.0453644153893613,0.4962045076718029,401,45,22.826796296670324,10.81569672587004
1.050325195311755,0.49619954679318284,401,45,22.826796296670324,10.81569672587004
1.0552859256380063,0.4961945859641599,401,45,22.826796296670324,10.81569672587004
1.060246606368612,0.4961896251847336,401,45,22.826796296670324,10.81569672587004
1.065207237504068,0.4961846644549034,401,45,22.826796296670324,10.81569672587004
1.0701678190448705,0.4961797037746689,401,45,22.826796296670324,10.81569672587004
1.0751283509915155,0.4961747431440295,401,45,22.826796296670324,10.81569672587004
1.0800888333444987,0.4961697825629848,401,45,22.826796296670324,10.81569672587004
1.085049266104317,0.49616482203153417,401,45,22.826796296670324,10.81569672587004
1.0900096492714657,0.4961598615496773,401,45,22.826796296670324,10.81569672587004
1.0949699828464412,0.4961549011174135,401,45,22.826796296670324,10.81569672587004
1.0999302668297393,0.4961499407347424,401,45,22.826796296670324,10.81569672587004
1.104890501221856,0.49614498040166344,401,45,22.826796296670324,10.81569672587004
1.1098506860232873,0.4961400201181762,401,45,22.826796296670324,10.81569672587004
1.1148108212345293,0.49613505988428014,401,45,22.826796296670324,10.81569672587004
1.1197709068560777,0.49613009969997474,401,45,22.826796296670324,10.81569672587004
1.124730942888428,0.4961251395652595,401,45,22.826796296670324,10.81569672587004
1.1296909293320767,0.496120179480134,401,45,22.826796296670324,10.81569672587004
1.1346508661875196,0.49611521944459763,401,45,22.826796296670324,10.81569672587004
1.1396107534552522,0.49611025945865,401,45,22.826796296670324,10.81569672587004
1.1445705911357706,0.49610529952229054,401,45,22.826796296670324,10.81569672587004
1.1495303792295708,0.4961003396355188,401,45,22.826796296670324,10.81569672587004
1.1544901177371483,0.4960953797983343,401,45,22.826796296670324,10.81569672587004
1.159449806658999,0.4960904200107365,401,45,22.826796296670324,10.81569672587004
1.1644094459956187,0.4960854602727249,401,45,22.826796296670324,10.81569672587004
1.1693690357475033,0.49608050058429903,401,45,22.826796296670324,10.81569672587004
1.1743285759151487,0.49607554094545836,401,45,22.826796296670324,10.81569672587004
1.1792880664990502,0.49607058135620247,401,45,22.826796296670324,10.81569672587004
1.1842475074997043,0.4960656218165308,401,45,22.826796296670324,10.81569672587004
