Vout,Iout,Irradiance,Temperature,MaxVoltage,MaxPower
0.004065760906145134,0.81316,701,5,20.448995252574544,16.210466083184706
0.012197207538668153,0.81316,701,5,20.448995252574544,16.210466083184706
0.020328488860920695,0.8131558529230939,701,5,20.448995252574544,16.210466083184706
0.02845957534027767,0.8131477214764613,701,5,20.448995252574544,16.210466083184706
0.03659045732496487,0.8131395901955538,701,5,20.448995252574544,16.210466083184706
0.04472114429609252,0.8131314591098876,701,5,20.448995252574544,16.210466083184706
0.052851645005612104,0.813123328228716,701,5,20.448995252574544,16.210466083184706
0.06098196753223881,0.813115197542558,701,5,20.448995252574544,16.210466083184706
0.06911211933316129,0.8131070670426616,701,5,20.448995252574544,16.210466083184706
0.07724210729186291,0.813098936720948,701,5,20.448995252574544,16.210466083184706
0.08537193776226358,0.8130908065699601,701,5,20.448995252574544,16.210466083184706
0.09350161660946504,0.8130826765828144,701,5,20.448995252574544,16.210466083184706
0.10163114924736145,0.813074546753157,701,5,20.448995252574544,16.210466083184706
0.10976054067335603,0.8130664170751228,701,5,20.448995252574544,16.210466083184706
0.11788979550040628,0.813058287543298,701,5,20.448995252574544,16.210466083184706
0.12601891798660417,0.8130501581526849,701,5,20.448995252574544,16.210466083184706
0.13414791206247983,0.8130420288986708,701,5,20.448995252574544,16.210466083184706
0.14227678135620475,0.8130338997769976,701,5,20.448995252574544,16.210466083184706
0.15040552921685568,0.8130257707837346,701,5,20.448995252574544,16.210466083184706
0.1585341587358887,0.8130176419152538,701,5,20.448995252574544,16.210466083184706
0.16666267276696087,0.813009513168206,701,5,20.448995252574544,16.210466083184706
0.17479107394422688,0.8130013845394999,701,5,20.448995252574544,16.210466083184706
0.18291936469922793,0.8129932560262817,701,5,20.448995252574544,16.210466083184706
0.1910475472764812,0.8129851276259173,701,5,20.448995252574544,16.210466083184706
0.1991756237478696,0.8129769993359751,701,5,20.448995252574544,16.210466083184706
0.2073035960259246,0.8129688711542108,701,5,20.448995252574544,16.210466083184706
0.21543146587608716,0.8129607430785522,701,5,20.448995252574544,16.210466083184706
0.22355923492802474,0.8129526151070869,701,5,20.448995252574544,16.210466083184706
0.23168690468607822,0.8129444872380496,701,5,20.448995252574544,16.210466083184706
0.2398144765389046,0.8129363594698105,701,5,20.448995252574544,16.210466083184706
0.247941951768378,0.8129282318008652,701,5,20.448995252574544,16.210466083184706
0.2560693315578055,0.8129201042298252,701,5,20.448995252574544,16.210466083184706
0.26419661699951125,0.8129119767554084,701,5,20.448995252574544,16.210466083184706
0.2723238091018367,0.8129038493764318,701,5,20.448995252574544,16.210466083184706
0.2804509087956025,0.8128957220918028,701,5,20.448995252574544,16.210466083184706
0.2885779169400732,0.8128875949005132,701,5,20.448995252574544,16.210466083184706
0.296704834328462,0.8128794678016322,701,5,20.448995252574544,16.210466083184706
0.3048316616930143,0.8128713407943005,701,5,20.448995252574544,16.210466083184706
0.31295839970969735,0.8128632138777248,701,5,20.448995252574544,16.210466083184706
0.32108504900253126,0.8128550870511729,701,5,20.448995252574544,16.210466083184706
0.32921161014758527,0.8128469603139689,701,5,20.448995252574544,16.210466083184706
0.33733808367666757,0.8128388336654887,701,5,20.448995252574544,16.210466083184706
0.3454644700807306,0.8128307071051564,701,5,20.448995252574544,16.210466083184706
0.3535907698130149,0.81282258063244,701,5,20.448995252574544,16.210466083184706
0.3617169832919501,0.8128144542468485,701,5,20.448995252574544,16.210466083184706
0.369843110903834,0.812806327947929,701,5,20.448995252574544,16.210466083184706
0.37796915300530415,0.8127982017352626,701,5,20.448995252574544,16.210466083184706
0.38609510992562074,0.8127900756084634,701,5,20.448995252574544,16.210466083184706
0.39422098196877237,0.8127819495671745,701,5,20.448995252574544,16.210466083184706
0.4023467694154208,0.8127738236110668,701,5,20.448995252574544,16.210466083184706
0.41047247252469604,0.8127656977398363,701,5,20.448995252574544,16.210466083184706
0.4185980915358522,0.8127575719532022,701,5,20.448995252574544,16.210466083184706
0.4267236266697976,0.8127494462509055,701,5,20.448995252574544,16.210466083184706
0.434849078130506,0.812741320632707,701,5,20.448995252574544,16.210466083184706
0.4429744461063195,0.8127331950983856,701,5,20.448995252574544,16.210466083184706
0.4510997307711513,0.8127250696477374,701,5,20.448995252574544,16.210466083184706
0.4592249322855961,0.8127169442805742,701,5,20.448995252574544,16.210466083184706
0.4673500507979546,0.8127088189967219,701,5,20.448995252574544,16.210466083184706
0.4754750864451794,0.81270069379602,701,5,20.448995252574544,16.210466083184706
0.48360003935374835,0.8126925686783202,701,5,20.448995252574544,16.210466083184706
0.4917249096404702,0.8126844436434855,701,5,20.448995252574544,16.210466083184706
0.4998496974132289,0.8126763186913893,701,5,20.448995252574544,16.210466083184706
0.5079744027716702,0.8126681938219151,701,5,20.448995252574544,16.210466083184706
0.516099025807835,0.8126600690349549,701,5,20.448995252574544,16.210466083184706
0.5242235666067453,0.812651944330409,701,5,20.448995252574544,16.210466083184706
0.5323480252469441,0.8126438197081852,701,5,20.448995252574544,16.210466083184706
0.5404724018009928,0.8126356951681988,701,5,20.448995252574544,16.210466083184706
0.5485966963359329,0.8126275707103711,701,5,20.448995252574544,16.210466083184706
0.5567209089137101,0.8126194463346295,701,5,20.448995252574544,16.210466083184706
0.5648450395915665,0.812611322040907,701,5,20.448995252574544,16.210466083184706
0.5729690884224016,0.8126031978291417,701,5,20.448995252574544,16.210466083184706
0.5810930554551078,0.8125950736992762,701,5,20.448995252574544,16.210466083184706
0.5892169407348783,0.8125869496512578,701,5,20.448995252574544,16.210466083184706
0.5973407443034912,0.8125788256850375,701,5,20.448995252574544,16.210466083184706
0.6054644661995725,0.8125707018005701,701,5,20.448995252574544,16.210466083184706
0.6135881064588391,0.812562577997814,701,5,20.448995252574544,16.210466083184706
0.6217116651143221,0.8125544542767302,701,5,20.448995252574544,16.210466083184706
0.6298351421965732,0.8125463306372833,701,5,20.448995252574544,16.210466083184706
0.6379585377338566,0.8125382070794402,701,5,20.448995252574544,16.210466083184706
0.6460818517523237,0.8125300836031704,701,5,20.448995252574544,16.210466083184706
0.6542050842761764,0.8125219602084455,701,5,20.448995252574544,16.210466083184706
0.6623282353278169,0.8125138368952393,701,5,20.448995252574544,16.210466083184706
0.6704513049279867,0.8125057136635278,701,5,20.448995252574544,16.210466083184706
0.6785742930958929,0.8124975905132885,701,5,20.448995252574544,16.210466083184706
0.686697199849328,0.8124894674445007,701,5,20.448995252574544,16.210466083184706
0.6948200252047779,0.812481344457145,701,5,20.448995252574544,16.210466083184706
0.7029427691775223,0.8124732215512039,701,5,20.448995252574544,16.210466083184706
0.7110654317817278,0.8124650987266607,701,5,20.448995252574544,16.210466083184706
0.7191880130305333,0.8124569759835003,701,5,20.448995252574544,16.210466083184706
0.7273105129361295,0.8124488533217084,701,5,20.448995252574544,16.210466083184706
0.7354329315098315,0.8124407307412719,701,5,20.448995252574544,16.210466083184706
0.743555268762146,0.8124326082421786,701,5,20.448995252574544,16.210466083184706
0.7516775247028346,0.8124244858244171,701,5,20.448995252574544,16.210466083184706
0.7597996993409689,0.8124163634879771,701,5,20.448995252574544,16.210466083184706
0.7679217926849864,0.8124082412328486,701,5,20.448995252574544,16.210466083184706
0.7760438047427367,0.8124001190590227,701,5,20.448995252574544,16.210466083184706
0.7841657355215287,0.8123919969664909,701,5,20.448995252574544,16.210466083184706
0.7922875850281709,0.8123838749552453,701,5,20.448995252574544,16.210466083184706
0.8004093532690109,0.8123757530252788,701,5,20.448995252574544,16.210466083184706
0.8085310402499697,0.8123676311765843,701,5,20.448995252574544,16.210466083184706
0.8166526459765758,0.8123595094091557,701,5,20.448995252574544,16.210466083184706
0.8247741704539946,0.8123513877229869,701,5,20.448995252574544,16.210466083184706
0.8328956136870562,0.8123432661180725,701,5,20.448995252574544,16.210466083184706
0.8410169756802818,0.8123351445944073,701,5,20.448995252574544,16.210466083184706
0.8491382564379072,0.8123270231519863,701,5,20.448995252574544,16.210466083184706
0.8572594559639047,0.8123189017908052,701,5,20.448995252574544,16.210466083184706
0.8653805742620034,0.8123107805108598,701,5,20.448995252574544,16.210466083184706
0.873501611335708,0.812302659312146,701,5,20.448995252574544,16.210466083184706
0.8816225671883159,0.8122945381946599,701,5,20.448995252574544,16.210466083184706
0.8897434418229329,0.8122864171583983,701,5,20.448995252574544,16.210466083184706
0.8978642352424889,0.8122782962033579,701,5,20.448995252574544,16.210466083184706
0.9059849474497507,0.8122701753295354,701,5,20.448995252574544,16.210466083184706
0.9141055784473342,0.8122620545369279,701,5,20.448995252574544,16.210466083184706
0.922226128237717,0.8122539338255327,701,5,20.448995252574544,16.210466083184706
0.9303465968232484,0.8122458131953472,701,5,20.448995252574544,16.210466083184706
0.938466984206159,0.8122376926463689,701,5,20.448995252574544,16.210466083184706
0.9465872903885705,0.8122295721785954,701,5,20.448995252574544,16.210466083184706
0.9547075153725042,0.8122214517920245,701,5,20.448995252574544,16.210466083184706
0.9628276591598876,0.8122133314866542,701,5,20.448995252574544,16.210466083184706
0.9709477217525626,0.8122052112624824,701,5,20.448995252574544,16.210466083184706
0.9790677031522921,0.812197091119507,701,5,20.448995252574544,16.210466083184706
0.9871876033607653,0.8121889710577263,701,5,20.448995252574544,16.210466083184706
0.9953074223796043,0.8121808510771386,701,5,20.448995252574544,16.210466083184706
1.0034271602103688,0.8121727311777421,701,5,20.448995252574544,16.210466083184706
1.0115468168545607,0.8121646113595353,701,5,20.448995252574544,16.210466083184706
1.0196663923136289,0.8121564916225165,701,5,20.448995252574544,16.210466083184706
1.0277858865889733,0.8121483719666843,701,5,20.448995252574544,16.210466083184706
1.0359052996819482,0.8121402523920372,701,5,20.448995252574544,16.210466083184706
1.044024631593867,0.8121321328985738,701,5,20.448995252574544,16.210466083184706
1.0521438823260036,0.8121240134862928,701,5,20.448995252574544,16.210466083184706
1.0602630518795964,0.8121158941551928,701,5,20.448995252574544,16.210466083184706
1.068382140255851,0.8121077749052726,701,5,20.448995252574544,16.210466083184706
1.0765011474559434,0.812099655736531,701,5,20.448995252574544,16.210466083184706
1.0846200734810207,0.8120915366489666,701,5,20.448995252574544,16.210466083184706
1.0927389183322045,0.8120834176425785,701,5,20.448995252574544,16.210466083184706
1.1008576820105922,0.8120752987173653,701,5,20.448995252574544,16.210466083184706
1.1089763645172597,0.812067179873326,701,5,20.448995252574544,16.210466083184706
1.1170949658532625,0.8120590611104596,701,5,20.448995252574544,16.210466083184706
1.1252134860196368,0.8120509424287647,701,5,20.448995252574544,16.210466083184706
1.133331925017402,0.8120428238282407,701,5,20.448995252574544,16.210466083184706
1.1414502828475612,0.8120347053088861,701,5,20.448995252574544,16.210466083184706
1.1495685595111034,0.8120265868707002,701,5,20.448995252574544,16.210466083184706
1.157686755009003,0.8120184685136819,701,5,20.448995252574544,16.210466083184706
1.1658048693422223,0.8120103502378302,701,5,20.448995252574544,16.210466083184706
1.1739229025117124,0.8120022320431441,701,5,20.448995252574544,16.210466083184706
1.1820408545184125,0.8119941139296227,701,5,20.448995252574544,16.210466083184706
1.1901587253632528,0.8119859958972651,701,5,20.448995252574544,16.210466083184706
1.1982765150471548,0.8119778779460702,701,5,20.448995252574544,16.210466083184706
1.2063942235710303,0.8119697600760372,701,5,20.448995252574544,16.210466083184706
1.2145118509357844,0.811961642287165,701,5,20.448995252574544,16.210466083184706
1.2226293971423141,0.8119535245794529,701,5,20.448995252574544,16.210466083184706
1.2307468621915112,0.8119454069529,701,5,20.448995252574544,16.210466083184706
1.2388642460842598,0.8119372894075052,701,5,20.448995252574544,16.210466083184706
1.2469815488214389,0.8119291719432677,701,5,20.448995252574544,16.210466083184706
1.2550987704039223,0.8119210545601868,701,5,20.448995252574544,16.210466083184706
1.2632159108325796,0.8119129372582614,701,5,20.448995252574544,16.210466083184706
1.2713329701082754,0.8119048200374906,701,5,20.448995252574544,16.210466083184706
1.2794499482318695,0.8118967028978736,701,5,20.448995252574544,16.210466083184706
1.287566845204219,0.8118885858394097,701,5,20.448995252574544,16.210466083184706
1.2956836610261775,0.8118804688620979,701,5,20.448995252574544,16.210466083184706
1.3038003956985944,0.8118723519659372,701,5,20.448995252574544,16.210466083184706
1.3119170492223164,0.811864235150927,701,5,20.448995252574544,16.210466083184706
1.3200336215981887,0.8118561184170662,701,5,20.448995252574544,16.210466083184706
1.3281501128270525,0.8118480017643541,701,5,20.448995252574544,16.210466083184706
1.336266522909747,0.8118398851927899,701,5,20.448995252574544,16.210466083184706
1.3443828518471097,0.8118317687023727,701,5,20.448995252574544,16.210466083184706
1.352499099639976,0.8118236522931017,701,5,20.448995252574544,16.210466083184706
1.3606152662891784,0.811815535964976,701,5,20.448995252574544,16.210466083184706
1.3687313517955486,0.8118074197179947,701,5,20.448995252574544,16.210466083184706
1.3768473561599177,0.8117993035521572,701,5,20.448995252574544,16.210466083184706
1.3849632793831133,0.8117911874674625,701,5,20.448995252574544,16.210466083184706
1.393079121465963,0.8117830714639097,701,5,20.448995252574544,16.210466083184706
1.4011948824092932,0.8117749555414981,701,5,20.448995252574544,16.210466083184706
1.4093105622139277,0.8117668397002269,701,5,20.448995252574544,16.210466083184706
1.417426160880692,0.8117587239400952,701,5,20.448995252574544,16.210466083184706
1.4255416784104074,0.8117506082611021,701,5,20.448995252574544,16.210466083184706
1.433657114803896,0.8117424926632469,701,5,20.448995252574544,16.210466083184706
1.441772470061979,0.8117343771465287,701,5,20.448995252574544,16.210466083184706
1.4498877441854772,0.8117262617109469,701,5,20.448995252574544,16.210466083184706
1.4580029371752097,0.8117181463565003,701,5,20.448995252574544,16.210466083184706
1.4661180490319956,0.8117100310831884,701,5,20.448995252574544,16.210466083184706
1.4742330797566536,0.8117019158910102,701,5,20.448995252574544,16.210466083184706
1.4823480293500009,0.8116938007799649,701,5,20.448995252574544,16.210466083184706
1.490462897812855,0.8116856857500517,701,5,20.448995252574544,16.210466083184706
1.4985776851460326,0.8116775708012699,701,5,20.448995252574544,16.210466083184706
1.50669239135035,0.8116694559336186,701,5,20.448995252574544,16.210466083184706
1.5148070164266234,0.8116613411470969,701,5,20.448995252574544,16.210466083184706
1.5229215603756683,0.811653226441704,701,5,20.448995252574544,16.210466083184706
1.5310360231982996,0.8116451118174393,701,5,20.448995252574544,16.210466083184706
1.539150404895332,0.8116369972743017,701,5,20.448995252574544,16.210466083184706
1.5472647054675805,0.8116288828122905,701,5,20.448995252574544,16.210466083184706
1.5553789249158592,0.811620768431405,701,5,20.448995252574544,16.210466083184706
1.5634930632409825,0.8116126541316442,701,5,20.448995252574544,16.210466083184706
1.571607120443764,0.8116045399130073,701,5,20.448995252574544,16.210466083184706
1.579721096525017,0.8115964257754936,701,5,20.448995252574544,16.210466083184706
1.587834991485555,0.8115883117191023,701,5,20.448995252574544,16.210466083184706
1.5959488053261914,0.8115801977438324,701,5,20.448995252574544,16.210466083184706
1.604062538047739,0.8115720838496833,701,5,20.448995252574544,16.210466083184706
1.612176189651011,0.811563970036654,701,5,20.448995252574544,16.210466083184706
1.6202897601368187,0.8115558563047439,701,5,20.448995252574544,16.210466083184706
1.6284032495059764,0.811547742653952,701,5,20.448995252574544,16.210466083184706
1.6365166577592958,0.8115396290842776,701,5,20.448995252574544,16.210466083184706
1.6446299848975894,0.8115315155957198,701,5,20.448995252574544,16.210466083184706
1.6527432309216692,0.8115234021882778,701,5,20.448995252574544,16.210466083184706
1.6608563958323472,0.8115152888619508,701,5,20.448995252574544,16.210466083184706
1.6689694796304353,0.8115071756167381,701,5,20.448995252574544,16.210466083184706
1.6770824823167458,0.8114990624526388,701,5,20.448995252574544,16.210466083184706
1.6851954038920907,0.811490949369652,701,5,20.448995252574544,16.210466083184706
1.6933082443572811,0.811482836367777,701,5,20.448995252574544,16.210466083184706
1.7014210037131292,0.811474723447013,701,5,20.448995252574544,16.210466083184706
1.709533681960446,0.811466610607359,701,5,20.448995252574544,16.210466083184706
1.7176462791000437,0.8114584978488145,701,5,20.448995252574544,16.210466083184706
1.7257587951327338,0.8114503851713785,701,5,20.448995252574544,16.210466083184706
1.733871230059327,0.8114422725750502,701,5,20.448995252574544,16.210466083184706
1.7419835838806355,0.8114341600598287,701,5,20.448995252574544,16.210466083184706
1.7500958565974705,0.8114260476257135,701,5,20.448995252574544,16.210466083184706
1.7582080482106428,0.8114179352727033,701,5,20.448995252574544,16.210466083184706
1.7663201587209638,0.8114098230007978,701,5,20.448995252574544,16.210466083184706
1.774432188129245,0.8114017108099958,701,5,20.448995252574544,16.210466083184706
1.7825441364362975,0.8113935987002967,701,5,20.448995252574544,16.210466083184706
1.7906560036429324,0.8113854866716996,701,5,20.448995252574544,16.210466083184706
1.7987677897499605,0.8113773747242038,701,5,20.448995252574544,16.210466083184706
1.8068794947581934,0.8113692628578084,701,5,20.448995252574544,16.210466083184706
1.8149911186684415,0.8113611510725126,701,5,20.448995252574544,16.210466083184706
1.8231026614815167,0.8113530393683155,701,5,20.448995252574544,16.210466083184706
1.8312141231982297,0.8113449277452165,701,5,20.448995252574544,16.210466083184706
1.8393255038193905,0.8113368162032145,701,5,20.448995252574544,16.210466083184706
1.847436803345811,0.811328704742309,701,5,20.448995252574544,16.210466083184706
1.8555480217783022,0.811320593362499,701,5,20.448995252574544,16.210466083184706
1.8636591591176745,0.8113124820637837,701,5,20.448995252574544,16.210466083184706
1.8717702153647389,0.8113043708461624,701,5,20.448995252574544,16.210466083184706
1.8798811905203066,0.8112962597096341,701,5,20.448995252574544,16.210466083184706
1.887992084585188,0.8112881486541982,701,5,20.448995252574544,16.210466083184706
1.8961028975601948,0.8112800376798537,701,5,20.448995252574544,16.210466083184706
1.904213629446137,0.8112719267866,701,5,20.448995252574544,16.210466083184706
1.9123242802438252,0.8112638159744361,701,5,20.448995252574544,16.210466083184706
1.9204348499540704,0.8112557052433612,701,5,20.448995252574544,16.210466083184706
1.9285453385776836,0.8112475945933746,701,5,20.448995252574544,16.210466083184706
1.9366557461154759,0.8112394840244754,701,5,20.448995252574544,16.210466083184706
1.9447660725682572,0.8112313735366629,701,5,20.448995252574544,16.210466083184706
1.9528763179368387,0.8112232631299361,701,5,20.448995252574544,16.210466083184706
