Vout,Iout,Irradiance,Temperature,MaxVoltage,MaxPower
0.005006201863443621,1.00125,801,50,22.873242136276804,22.351012475199305
0.015018513020920225,1.00125,801,50,22.873242136276804,22.351012475199305
0.025030620630622315,1.0012448936731366,801,50,22.873242136276804,22.351012475199305
0.035042488328807395,1.0012348813619791,801,50,22.873242136276804,22.351012475199305
0.04505410423117352,1.00122486925488,801,50,22.873242136276804,22.351012475199305
0.055065480011882814,1.001214857388183,801,50,22.873242136276804,22.351012475199305
0.06507662644727866,1.0012048457732818,801,50,22.873242136276804,22.351012475199305
0.0750875534847436,1.0011948343985024,801,50,22.873242136276804,22.351012475199305
0.08509827030636986,1.001184823253068,801,50,22.873242136276804,22.351012475199305
0.09510878538784218,1.0011748123270319,801,50,22.873242136276804,22.351012475199305
0.1051191065527896,1.0011648016112114,801,50,22.873242136276804,22.351012475199305
0.11512924102295596,1.0011547910971308,801,50,22.873242136276804,22.351012475199305
0.12513919546450963,1.0011447807769671,801,50,22.873242136276804,22.351012475199305
0.1351489760307906,1.0011347706434979,801,50,22.873242136276804,22.351012475199305
0.1451585884017681,1.0011247606900573,801,50,22.873242136276804,22.351012475199305
0.15516803782046265,1.001114750910492,801,50,22.873242136276804,22.351012475199305
0.1651773291265654,1.001104741299122,801,50,22.873242136276804,22.351012475199305
0.1751864667874711,1.0010947318507044,801,50,22.873242136276804,22.351012475199305
0.18519545492692305,1.0010847225603994,801,50,22.873242136276804,22.351012475199305
0.19520429735145428,1.0010747134237392,801,50,22.873242136276804,22.351012475199305
0.20521299757479408,1.0010647044366008,801,50,22.873242136276804,22.351012475199305
0.2152215588403969,1.0010546955951771,801,50,22.873242136276804,22.351012475199305
0.2252299841422376,1.0010446868959548,801,50,22.873242136276804,22.351012475199305
0.23523827624400706,1.00103467833569,801,50,22.873242136276804,22.351012475199305
0.24524643769683013,1.001024669911389,801,50,22.873242136276804,22.351012475199305
0.25525447085562125,1.0010146616202882,801,50,22.873242136276804,22.351012475199305
0.265262377894181,1.0010046534598362,801,50,22.873242136276804,22.351012475199305
0.2752701608191312,1.0009946454276781,801,50,22.873242136276804,22.351012475199305
0.285277821482778,1.0009846375216405,801,50,22.873242136276804,22.351012475199305
0.29528536159498514,1.0009746297397164,801,50,22.873242136276804,22.351012475199305
0.30529278273413396,1.0009646220800534,801,50,22.873242136276804,22.351012475199305
0.3153000863572392,1.000954614540942,801,50,22.873242136276804,22.351012475199305
0.32530727380928787,1.0009446071208037,801,50,22.873242136276804,22.351012475199305
0.3353143463318583,1.0009345998181813,801,50,22.873242136276804,22.351012475199305
0.345321305071077,1.00092459263173,801,50,22.873242136276804,22.351012475199305
0.3553281510849624,1.0009145855602082,801,50,22.873242136276804,22.351012475199305
0.36533488535020475,1.0009045786024697,801,50,22.873242136276804,22.351012475199305
0.3753415087684225,1.0008945717574564,801,50,22.873242136276804,22.351012475199305
0.38534802217193953,1.000884565024192,801,50,22.873242136276804,22.351012475199305
0.3953544263291163,1.0008745584017744,801,50,22.873242136276804,22.351012475199305
0.4053607219492714,1.0008645518893715,801,50,22.873242136276804,22.351012475199305
0.41536690968722423,1.000854545486215,801,50,22.873242136276804,22.351012475199305
0.4253729901474881,1.0008445391915954,801,50,22.873242136276804,22.351012475199305
0.4353789638881413,1.0008345330048583,801,50,22.873242136276804,22.351012475199305
0.4453848314243997,1.0008245269253986,801,50,22.873242136276804,22.351012475199305
0.45539059323191444,1.0008145209526584,801,50,22.873242136276804,22.351012475199305
0.46539624974981614,1.000804515086123,801,50,22.873242136276804,22.351012475199305
0.4754018013835252,1.0007945093253159,801,50,22.873242136276804,22.351012475199305
0.4854072485073454,1.0007845036697987,801,50,22.873242136276804,22.351012475199305
0.49541259146685745,1.0007744981191655,801,50,22.873242136276804,22.351012475199305
0.5054178305811298,1.0007644926730423,801,50,22.873242136276804,22.351012475199305
0.5154229661447581,1.0007544873310834,801,50,22.873242136276804,22.351012475199305
0.5254279984297486,1.0007444820929696,801,50,22.873242136276804,22.351012475199305
0.5354329276872555,1.0007344769584066,801,50,22.873242136276804,22.351012475199305
0.5454377541491858,1.000724471927122,801,50,22.873242136276804,22.351012475199305
0.5554424780296803,1.000714466998865,801,50,22.873242136276804,22.351012475199305
0.5654470995264803,1.0007044621734036,801,50,22.873242136276804,22.351012475199305
0.5754516188221895,1.0006944574505237,801,50,22.873242136276804,22.351012475199305
0.5854560360854388,1.0006844528300274,801,50,22.873242136276804,22.351012475199305
0.5954603514719613,1.000674448311732,801,50,22.873242136276804,22.351012475199305
0.6054645651255847,1.0006644438954693,801,50,22.873242136276804,22.351012475199305
0.6154686771791467,1.0006544395810832,801,50,22.873242136276804,22.351012475199305
0.6254726877553425,1.00064443536843,801,50,22.873242136276804,22.351012475199305
0.6354765969675025,1.000634431257377,801,50,22.873242136276804,22.351012475199305
0.645480404920315,1.000624427247801,801,50,22.873242136276804,22.351012475199305
0.6554841117104903,1.0006144233395893,801,50,22.873242136276804,22.351012475199305
0.6654877174273741,1.000604419532637,801,50,22.873242136276804,22.351012475199305
0.6754912221535152,1.0005944158268472,801,50,22.873242136276804,22.351012475199305
0.6854946259651876,1.0005844122221306,801,50,22.873242136276804,22.351012475199305
0.6954979289328734,1.000574408718405,801,50,22.873242136276804,22.351012475199305
0.7055011311217091,1.0005644053155935,801,50,22.873242136276804,22.351012475199305
0.715504232591896,1.0005544020136263,801,50,22.873242136276804,22.351012475199305
0.7255072333990804,1.0005443988124378,801,50,22.873242136276804,22.351012475199305
0.7355101335947043,1.000534395711968,801,50,22.873242136276804,22.351012475199305
0.7455129332263286,1.000524392712161,801,50,22.873242136276804,22.351012475199305
0.7555156323379311,1.0005143898129656,801,50,22.873242136276804,22.351012475199305
0.7655182309701832,1.0005043870143344,801,50,22.873242136276804,22.351012475199305
0.7755207291607041,1.000494384316223,801,50,22.873242136276804,22.351012475199305
0.785523126944295,1.000484381718591,801,50,22.873242136276804,22.351012475199305
0.795525424353157,1.0004743792214008,801,50,22.873242136276804,22.351012475199305
0.8055276214170896,1.0004643768246175,801,50,22.873242136276804,22.351012475199305
0.8155297181636773,1.0004543745282088,801,50,22.873242136276804,22.351012475199305
0.8255317146184582,1.0004443723321452,801,50,22.873242136276804,22.351012475199305
0.8355336108050836,1.000434370236399,801,50,22.873242136276804,22.351012475199305
0.8455354067454606,1.0004243682409444,801,50,22.873242136276804,22.351012475199305
0.8555371024598885,1.0004143663457579,801,50,22.873242136276804,22.351012475199305
0.8655386979671812,1.0004043645508176,801,50,22.873242136276804,22.351012475199305
0.8755401932847825,1.0003943628561034,801,50,22.873242136276804,22.351012475199305
0.8855415884288702,1.0003843612615964,801,50,22.873242136276804,22.351012475199305
0.8955428834144553,1.000374359767279,801,50,22.873242136276804,22.351012475199305
0.9055440782554692,1.000364358373135,801,50,22.873242136276804,22.351012475199305
0.91554517296485,1.0003543570791495,801,50,22.873242136276804,22.351012475199305
0.9255461675546162,1.0003443558853087,801,50,22.873242136276804,22.351012475199305
0.9355470620359387,1.0003343547915995,801,50,22.873242136276804,22.351012475199305
0.9455478564192056,1.0003243537980098,801,50,22.873242136276804,22.351012475199305
0.955548550714083,1.0003143529045286,801,50,22.873242136276804,22.351012475199305
0.9655491449295704,1.0003043521111454,801,50,22.873242136276804,22.351012475199305
0.9755496390740508,1.0002943514178506,801,50,22.873242136276804,22.351012475199305
0.98555003315534,1.0002843508246353,801,50,22.873242136276804,22.351012475199305
0.9955503271807287,1.0002743503314908,801,50,22.873242136276804,22.351012475199305
1.005550521157024,1.0002643499384096,801,50,22.873242136276804,22.351012475199305
1.0155506150905862,1.0002543496453842,801,50,22.873242136276804,22.351012475199305
1.025550608987363,1.000244349452408,801,50,22.873242136276804,22.351012475199305
1.035550502852921,1.0002343493594745,801,50,22.873242136276804,22.351012475199305
1.0455502966924761,1.0002243493665777,801,50,22.873242136276804,22.351012475199305
1.0555499905109191,1.0002143494737121,801,50,22.873242136276804,22.351012475199305
1.0655495843128415,1.0002043496808726,801,50,22.873242136276804,22.351012475199305
1.075549078102559,1.0001943499880541,801,50,22.873242136276804,22.351012475199305
1.0855484718841315,1.000184350395252,801,50,22.873242136276804,22.351012475199305
1.0955477656613835,1.0001743509024623,801,50,22.873242136276804,22.351012475199305
1.1055469594379228,1.0001643515096807,801,50,22.873242136276804,22.351012475199305
1.1155460532171555,1.0001543522169034,801,50,22.873242136276804,22.351012475199305
1.1255450470023032,1.000144353024127,801,50,22.873242136276804,22.351012475199305
1.1355439407964159,1.0001343539313476,801,50,22.873242136276804,22.351012475199305
1.1455427346023865,1.0001243549385623,801,50,22.873242136276804,22.351012475199305
1.1555414284229624,1.0001143560457681,801,50,22.873242136276804,22.351012475199305
1.165540022260755,1.000104357252962,801,50,22.873242136276804,22.351012475199305
1.1755385161182537,1.0000943585601414,801,50,22.873242136276804,22.351012475199305
1.1855369099978317,1.0000843599673035,801,50,22.873242136276804,22.351012475199305
1.1955352039017568,1.0000743614744458,801,50,22.873242136276804,22.351012475199305
1.2055333978321998,1.0000643630815662,801,50,22.873242136276804,22.351012475199305
1.215531491791241,1.0000543647886622,801,50,22.873242136276804,22.351012475199305
1.225529485780877,1.0000443665957315,801,50,22.873242136276804,22.351012475199305
1.2355273798030293,1.0000343685027722,801,50,22.873242136276804,22.351012475199305
1.245525173859546,1.0000243705097824,801,50,22.873242136276804,22.351012475199305
1.2555228679522117,1.00001437261676,801,50,22.873242136276804,22.351012475199305
1.26552046208275,1.0000043748237033,801,50,22.873242136276804,22.351012475199305
1.2755179562528292,0.9999943771306105,801,50,22.873242136276804,22.351012475199305
1.2855153504640648,0.9999843795374798,801,50,22.873242136276804,22.351012475199305
1.2955126447180267,0.9999743820443094,801,50,22.873242136276804,22.351012475199305
1.3055098390162392,0.9999643846510979,801,50,22.873242136276804,22.351012475199305
1.3155069333601876,0.9999543873578437,801,50,22.873242136276804,22.351012475199305
1.3255039277513192,0.9999443901645453,801,50,22.873242136276804,22.351012475199305
1.335500822191046,0.999934393071201,801,50,22.873242136276804,22.351012475199305
1.3454976166807504,0.9999243960778096,801,50,22.873242136276804,22.351012475199305
1.3554943112217828,0.9999143991843696,801,50,22.873242136276804,22.351012475199305
1.3654909058154678,0.9999044023908796,801,50,22.873242136276804,22.351012475199305
1.375487400463105,0.9998944056973382,801,50,22.873242136276804,22.351012475199305
1.3854837951659704,0.9998844091037443,801,50,22.873242136276804,22.351012475199305
1.39548008992532,0.9998744126100964,801,50,22.873242136276804,22.351012475199305
1.4054762847423883,0.9998644162163931,801,50,22.873242136276804,22.351012475199305
1.4154723796183921,0.9998544199226334,801,50,22.873242136276804,22.351012475199305
1.425468374554533,0.999844423728816,801,50,22.873242136276804,22.351012475199305
1.4354642695519946,0.9998344276349396,801,50,22.873242136276804,22.351012475199305
1.4454600646119478,0.9998244316410031,801,50,22.873242136276804,22.351012475199305
1.4554557597355502,0.9998144357470052,801,50,22.873242136276804,22.351012475199305
1.4654513549239467,0.9998044399529449,801,50,22.873242136276804,22.351012475199305
1.4754468501782714,0.9997944442588208,801,50,22.873242136276804,22.351012475199305
1.4854422454996479,0.999784448664632,801,50,22.873242136276804,22.351012475199305
1.4954375408891898,0.9997744531703773,801,50,22.873242136276804,22.351012475199305
1.505432736348003,0.9997644577760555,801,50,22.873242136276804,22.351012475199305
1.5154278318771832,0.9997544624816654,801,50,22.873242136276804,22.351012475199305
1.5254228274778205,0.9997444672872062,801,50,22.873242136276804,22.351012475199305
1.5354177231509976,0.9997344721926765,801,50,22.873242136276804,22.351012475199305
1.5454125188977905,0.9997244771980754,801,50,22.873242136276804,22.351012475199305
1.5554072147192683,0.9997144823034018,801,50,22.873242136276804,22.351012475199305
1.5654018106164969,0.9997044875086545,801,50,22.873242136276804,22.351012475199305
1.5753963065905345,0.9996944928138325,801,50,22.873242136276804,22.351012475199305
1.5853907026424372,0.9996844982189347,801,50,22.873242136276804,22.351012475199305
1.595384998773255,0.9996745037239602,801,50,22.873242136276804,22.351012475199305
1.6053791949840344,0.9996645093289077,801,50,22.873242136276804,22.351012475199305
1.615373291275818,0.9996545150337763,801,50,22.873242136276804,22.351012475199305
1.6253672876496463,0.999644520838565,801,50,22.873242136276804,22.351012475199305
1.6353611841065554,0.9996345267432727,801,50,22.873242136276804,22.351012475199305
1.645354980647578,0.9996245327478982,801,50,22.873242136276804,22.351012475199305
1.655348677273746,0.9996145388524408,801,50,22.873242136276804,22.351012475199305
1.6653422739860866,0.9996045450568991,801,50,22.873242136276804,22.351012475199305
1.675335770785627,0.9995945513612723,801,50,22.873242136276804,22.351012475199305
1.6853291676733904,0.9995845577655594,801,50,22.873242136276804,22.351012475199305
1.695322464650399,0.9995745642697592,801,50,22.873242136276804,22.351012475199305
1.7053156617176735,0.9995645708738709,801,50,22.873242136276804,22.351012475199305
1.7153087588762321,0.9995545775778931,801,50,22.873242136276804,22.351012475199305
1.7253017561270916,0.9995445843818253,801,50,22.873242136276804,22.351012475199305
1.7352946534712685,0.999534591285666,801,50,22.873242136276804,22.351012475199305
1.7452874509097762,0.9995245982894144,801,50,22.873242136276804,22.351012475199305
1.7552801484436285,0.9995146053930696,801,50,22.873242136276804,22.351012475199305
1.765272746073837,0.9995046125966304,801,50,22.873242136276804,22.351012475199305
1.7752652438014136,0.9994946199000958,801,50,22.873242136276804,22.351012475199305
1.785257641627367,0.9994846273034649,801,50,22.873242136276804,22.351012475199305
1.795249939552707,0.9994746348067366,801,50,22.873242136276804,22.351012475199305
1.8052421375784427,0.9994646424099098,801,50,22.873242136276804,22.351012475199305
1.8152342357055808,0.9994546501129837,801,50,22.873242136276804,22.351012475199305
1.8252262339351286,0.9994446579159573,801,50,22.873242136276804,22.351012475199305
1.8352181322680923,0.9994346658188293,801,50,22.873242136276804,22.351012475199305
1.845209930705477,0.999424673821599,801,50,22.873242136276804,22.351012475199305
1.8552016292482891,0.9994146819242653,801,50,22.873242136276804,22.351012475199305
1.8651932278975323,0.9994046901268271,801,50,22.873242136276804,22.351012475199305
1.8751847266542117,0.9993946984292835,801,50,22.873242136276804,22.351012475199305
1.8851761255193298,0.9993847068316334,801,50,22.873242136276804,22.351012475199305
1.8951674244938908,0.9993747153338759,801,50,22.873242136276804,22.351012475199305
1.9051586235788969,0.99936472393601,801,50,22.873242136276804,22.351012475199305
1.915149722775352,0.9993547326380345,801,50,22.873242136276804,22.351012475199305
1.9251407220842576,0.9993447414399487,801,50,22.873242136276804,22.351012475199305
1.9351316215066154,0.9993347503417513,801,50,22.873242136276804,22.351012475199305
1.9451224210434284,0.9993247593434416,801,50,22.873242136276804,22.351012475199305
1.9551131206956973,0.9993147684450183,801,50,22.873242136276804,22.351012475199305
1.965103720464423,0.9993047776464806,801,50,22.873242136276804,22.351012475199305
1.9750942203506066,0.9992947869478275,801,50,22.873242136276804,22.351012475199305
1.9850846203552497,0.9992847963490578,801,50,22.873242136276804,22.351012475199305
1.9950749204793525,0.9992748058501707,801,50,22.873242136276804,22.351012475199305
2.0050651207239154,0.9992648154511651,801,50,22.873242136276804,22.351012475199305
2.0150552210899395,0.99925482515204,801,50,22.873242136276804,22.351012475199305
2.0250452215784245,0.9992448349527945,801,50,22.873242136276804,22.351012475199305
2.0350351221903704,0.9992348448534275,801,50,22.873242136276804,22.351012475199305
2.0450249229267765,0.9992248548539381,801,50,22.873242136276804,22.351012475199305
2.055014623788644,0.9992148649543251,801,50,22.873242136276804,22.351012475199305
2.0650042247769718,0.9992048751545877,801,50,22.873242136276804,22.351012475199305
2.074993725892759,0.9991948854547248,801,50,22.873242136276804,22.351012475199305
2.0849831271370065,0.9991848958547355,801,50,22.873242136276804,22.351012475199305
2.094972428510713,0.9991749063546187,801,50,22.873242136276804,22.351012475199305
2.104961630014877,0.9991649169543734,801,50,22.873242136276804,22.351012475199305
2.1149507316504987,0.9991549276539986,801,50,22.873242136276804,22.351012475199305
2.124939733418577,0.9991449384534934,801,50,22.873242136276804,22.351012475199305
2.134928635320112,0.9991349493528567,801,50,22.873242136276804,22.351012475199305
2.1449174373561015,0.9991249603520875,801,50,22.873242136276804,22.351012475199305
2.1549061395275446,0.9991149714511849,801,50,22.873242136276804,22.351012475199305
2.1648947418354405,0.9991049826501478,801,50,22.873242136276804,22.351012475199305
2.1748832442807884,0.9990949939489753,801,50,22.873242136276804,22.351012475199305
2.184871646864587,0.9990850053476663,801,50,22.873242136276804,22.351012475199305
2.1948599495878343,0.9990750168462198,801,50,22.873242136276804,22.351012475199305
2.2048481524515307,0.9990650284446349,801,50,22.873242136276804,22.351012475199305
2.2148362554566736,0.9990550401429105,801,50,22.873242136276804,22.351012475199305
2.224824258604262,0.9990450519410456,801,50,22.873242136276804,22.351012475199305
2.2348121618952943,0.9990350638390393,801,50,22.873242136276804,22.351012475199305
2.24479996533077,0.9990250758368905,801,50,22.873242136276804,22.351012475199305
2.2547876689116872,0.9990150879345983,801,50,22.873242136276804,22.351012475199305
2.264775272639044,0.9990051001321616,801,50,22.873242136276804,22.351012475199305
2.274762776513839,0.9989951124295795,801,50,22.873242136276804,22.351012475199305
2.284750180537072,0.9989851248268509,801,50,22.873242136276804,22.351012475199305
2.2947374847097395,0.9989751373239749,801,50,22.873242136276804,22.351012475199305
2.3047246890328417,0.9989651499209504,801,50,22.873242136276804,22.351012475199305
2.314711793507376,0.9989551626177765,801,50,22.873242136276804,22.351012475199305
2.324698798134341,0.9989451754144522,801,50,22.873242136276804,22.351012475199305
2.3346857029147348,0.9989351883109764,801,50,22.873242136276804,22.351012475199305
2.3446725078495563,0.9989252013073481,801,50,22.873242136276804,22.351012475199305
2.3546592129398034,0.9989152144035665,801,50,22.873242136276804,22.351012475199305
2.3646458181864745,0.9989052275996303,801,50,22.873242136276804,22.351012475199305
2.3746323235905686,0.9988952408955387,801,50,22.873242136276804,22.351012475199305
