Vout,Iout,Irradiance,Temperature,MaxVoltage,MaxPower
0.0033054682166517627,0.6610999999999999,601,-25,18.246715791083112,11.730194546873799
0.00991634352871946,0.6610999999999999,601,-25,18.246715791083112,11.730194546873799
0.016527084443350226,0.6610966284217833,601,-25,18.246715791083112,11.730194546873799
0.023137666950486455,0.6610900175464712,601,-25,18.246715791083112,11.730194546873799
0.029748083203224782,0.6610834068058937,601,-25,18.246715791083112,11.730194546873799
0.03635834090971858,0.6610767962240477,601,-25,18.246715791083112,11.730194546873799
0.04296844718531428,0.661070185808456,601,-25,18.246715791083112,11.730194546873799
0.04957840859801646,0.6610635755514106,601,-25,18.246715791083112,11.730194546873799
0.056188231210527954,0.6610569654457961,601,-25,18.246715791083112,11.730194546873799
0.06279792061912855,0.6610503554850443,601,-25,18.246715791083112,11.730194546873799
0.06940748198956224,0.6610437456630929,601,-25,18.246715791083112,11.730194546873799
0.07601692009016348,0.6610371359743452,601,-25,18.246715791083112,11.730194546873799
0.08262623932243426,0.6610305264136358,601,-25,18.246715791083112,11.730194546873799
0.08923544374926907,0.6610239169761961,601,-25,18.246715791083112,11.730194546873799
0.09584453712100763,0.6610173076576248,601,-25,18.246715791083112,11.730194546873799
0.10245352289948347,0.661010698453859,601,-25,18.246715791083112,11.730194546873799
0.1090624042802221,0.6610040893611482,601,-25,18.246715791083112,11.730194546873799
0.11567118421293097,0.6609974803760306,601,-25,18.246715791083112,11.730194546873799
0.12227986542041329,0.6609908714953108,601,-25,18.246715791083112,11.730194546873799
0.1288884504160263,0.6609842627160389,601,-25,18.246715791083112,11.730194546873799
0.13549694151979652,0.6609776540354924,601,-25,18.246715791083112,11.730194546873799
0.14210534087329474,0.6609710454511576,601,-25,18.246715791083112,11.730194546873799
0.14871365045336654,0.6609644369607147,601,-25,18.246715791083112,11.730194546873799
0.15532187208480705,0.6609578285620221,601,-25,18.246715791083112,11.730194546873799
0.1619300074520593,0.6609512202531028,601,-25,18.246715791083112,11.730194546873799
0.16853805811001366,0.6609446120321323,601,-25,18.246715791083112,11.730194546873799
0.17514602549397557,0.6609380038974259,601,-25,18.246715791083112,11.730194546873799
0.18175391092886653,0.6609313958474287,601,-25,18.246715791083112,11.730194546873799
0.1883617156377174,0.6609247878807055,601,-25,18.246715791083112,11.730194546873799
0.19496944074950778,0.6609181799959315,601,-25,18.246715791083112,11.730194546873799
0.20157708730640295,0.6609115721918835,601,-25,18.246715791083112,11.730194546873799
0.20818465627043278,0.6609049644674324,601,-25,18.246715791083112,11.730194546873799
0.21479214852965814,0.6608983568215363,601,-25,18.246715791083112,11.730194546873799
0.22139956490386167,0.660891749253233,601,-25,18.246715791083112,11.730194546873799
0.2280069061498018,0.6608851417616346,601,-25,18.246715791083112,11.730194546873799
0.23461417296606116,0.6608785343459211,601,-25,18.246715791083112,11.730194546873799
0.24122136599752345,0.6608719270053359,601,-25,18.246715791083112,11.730194546873799
0.24782848583950476,0.6608653197391804,601,-25,18.246715791083112,11.730194546873799
0.25443553304156735,0.6608587125468097,601,-25,18.246715791083112,11.730194546873799
0.2610425081110401,0.6608521054276284,601,-25,18.246715791083112,11.730194546873799
0.267649411516268,0.6608454983810871,601,-25,18.246715791083112,11.730194546873799
0.27425624368961193,0.6608388914066783,601,-25,18.246715791083112,11.730194546873799
0.2808630050302166,0.6608322845039338,601,-25,18.246715791083112,11.730194546873799
0.287469695906567,0.6608256776724212,601,-25,18.246715791083112,11.730194546873799
0.2940763166588471,0.6608190709117412,601,-25,18.246715791083112,11.730194546873799
0.30068286760111723,0.6608124642215256,601,-25,18.246715791083112,11.730194546873799
0.3072893490233244,0.660805857601434,601,-25,18.246715791083112,11.730194546873799
0.3138957611931572,0.6607992510511523,601,-25,18.246715791083112,11.730194546873799
0.3205021043577589,0.6607926445703908,601,-25,18.246715791083112,11.730194546873799
0.3271083787453079,0.6607860381588816,601,-25,18.246715791083112,11.730194546873799
0.33371458456647685,0.6607794318163777,601,-25,18.246715791083112,11.730194546873799
0.34032072201578006,0.6607728255426508,601,-25,18.246715791083112,11.730194546873799
0.34692679127281595,0.6607662193374902,601,-25,18.246715791083112,11.730194546873799
0.3535327925034155,0.6607596132007015,601,-25,18.246715791083112,11.730194546873799
0.36013872586070106,0.6607530071321052,601,-25,18.246715791083112,11.730194546873799
0.3667445914860642,0.6607464011315352,601,-25,18.246715791083112,11.730194546873799
0.3733503895100687,0.6607397951988385,601,-25,18.246715791083112,11.730194546873799
0.37995612005328305,0.6607331893338737,601,-25,18.246715791083112,11.730194546873799
0.38656178322705,0.6607265835365104,601,-25,18.246715791083112,11.730194546873799
0.3931673791341961,0.6607199778066277,601,-25,18.246715791083112,11.730194546873799
0.39977290786968694,0.6607133721441145,601,-25,18.246715791083112,11.730194546873799
0.4063783695212325,0.660706766548868,601,-25,18.246715791083112,11.730194546873799
0.41298376416984467,0.660700161020793,601,-25,18.246715791083112,11.730194546873799
0.41958909189035304,0.660693555559802,601,-25,18.246715791083112,11.730194546873799
0.42619435275188056,0.6606869501658139,601,-25,18.246715791083112,11.730194546873799
0.43279954681828237,0.660680344838754,601,-25,18.246715791083112,11.730194546873799
0.43940467414855144,0.660673739578553,601,-25,18.246715791083112,11.730194546873799
0.44600973479719247,0.6606671343851471,601,-25,18.246715791083112,11.730194546873799
0.4526147288145673,0.6606605292584774,601,-25,18.246715791083112,11.730194546873799
0.45921965624721367,0.6606539241984892,601,-25,18.246715791083112,11.730194546873799
0.4658245171381393,0.6606473192051324,601,-25,18.246715791083112,11.730194546873799
0.47242931152709366,0.6606407142783602,601,-25,18.246715791083112,11.730194546873799
0.4790340394508188,0.6606341094181298,601,-25,18.246715791083112,11.730194546873799
0.4856387009432802,0.6606275046244013,601,-25,18.246715791083112,11.730194546873799
0.49224329603588124,0.6606208998971381,601,-25,18.246715791083112,11.730194546873799
0.49884782475765943,0.6606142952363062,601,-25,18.246715791083112,11.730194546873799
0.5054522871354691,0.6606076906418741,601,-25,18.246715791083112,11.730194546873799
0.5120566831941491,0.6606010861138127,601,-25,18.246715791083112,11.730194546873799
0.518661012956678,0.6605944816520953,601,-25,18.246715791083112,11.730194546873799
0.525265276444317,0.6605878772566971,601,-25,18.246715791083112,11.730194546873799
0.5318694736767424,0.660581272927595,601,-25,18.246715791083112,11.730194546873799
0.5384736046721671,0.6605746686647679,601,-25,18.246715791083112,11.730194546873799
0.545077669447454,0.6605680644681958,601,-25,18.246715791083112,11.730194546873799
0.5516816680182184,0.6605614603378609,601,-25,18.246715791083112,11.730194546873799
0.5582856003989256,0.660554856273746,601,-25,18.246715791083112,11.730194546873799
0.5648894666029788,0.6605482522758357,601,-25,18.246715791083112,11.730194546873799
0.5714932666428003,0.6605416483441153,601,-25,18.246715791083112,11.730194546873799
0.5780970005299078,0.6605350444785717,601,-25,18.246715791083112,11.730194546873799
0.5847006682749828,0.6605284406791923,601,-25,18.246715791083112,11.730194546873799
0.5913042698879368,0.6605218369459656,601,-25,18.246715791083112,11.730194546873799
0.5979078053779688,0.6605152332788808,601,-25,18.246715791083112,11.730194546873799
0.6045112747536209,0.6605086296779282,601,-25,18.246715791083112,11.730194546873799
0.6111146780228288,0.6605020261430986,601,-25,18.246715791083112,11.730194546873799
0.6177180151929683,0.6604954226743833,601,-25,18.246715791083112,11.730194546873799
0.6243212862708987,0.6604888192717745,601,-25,18.246715791083112,11.730194546873799
0.6309244912630021,0.6604822159352647,601,-25,18.246715791083112,11.730194546873799
0.6375276301752204,0.6604756126648471,601,-25,18.246715791083112,11.730194546873799
0.6441307030130891,0.6604690094605153,601,-25,18.246715791083112,11.730194546873799
0.6507337097817686,0.6604624063222634,601,-25,18.246715791083112,11.730194546873799
0.6573366504860726,0.6604558032500859,601,-25,18.246715791083112,11.730194546873799
0.6639395251304961,0.6604492002439775,601,-25,18.246715791083112,11.730194546873799
0.6705423337192381,0.6604425973039335,601,-25,18.246715791083112,11.730194546873799
0.677145076256226,0.6604359944299494,601,-25,18.246715791083112,11.730194546873799
0.6837477527451356,0.660429391622021,601,-25,18.246715791083112,11.730194546873799
0.6903503631894101,0.6604227888801443,601,-25,18.246715791083112,11.730194546873799
0.6969529075922791,0.6604161862043156,601,-25,18.246715791083112,11.730194546873799
0.7035553859567745,0.6604095835945316,601,-25,18.246715791083112,11.730194546873799
0.7101577982857455,0.660402981050789,601,-25,18.246715791083112,11.730194546873799
0.716760144581873,0.6603963785730848,601,-25,18.246715791083112,11.730194546873799
0.723362424847682,0.660389776161416,601,-25,18.246715791083112,11.730194546873799
0.7299646390855548,0.6603831738157802,601,-25,18.246715791083112,11.730194546873799
0.7365667872977402,0.6603765715361746,601,-25,18.246715791083112,11.730194546873799
0.7431688694863655,0.660369969322597,601,-25,18.246715791083112,11.730194546873799
0.7497708856534447,0.6603633671750451,601,-25,18.246715791083112,11.730194546873799
0.7563728358008877,0.6603567650935166,601,-25,18.246715791083112,11.730194546873799
0.762974719930508,0.6603501630780098,601,-25,18.246715791083112,11.730194546873799
0.769576538044031,0.6603435611285225,601,-25,18.246715791083112,11.730194546873799
0.7761782901430995,0.6603369592450531,601,-25,18.246715791083112,11.730194546873799
0.7827799762292809,0.6603303574275997,601,-25,18.246715791083112,11.730194546873799
0.7893815963040723,0.6603237556761609,601,-25,18.246715791083112,11.730194546873799
0.7959831503689073,0.6603171539907349,601,-25,18.246715791083112,11.730194546873799
0.8025846384251591,0.6603105523713203,601,-25,18.246715791083112,11.730194546873799
0.8091860604741463,0.6603039508179156,601,-25,18.246715791083112,11.730194546873799
0.815787416517137,0.6602973493305195,601,-25,18.246715791083112,11.730194546873799
0.8223887065553525,0.6602907479091307,601,-25,18.246715791083112,11.730194546873799
0.8289899305899706,0.6602841465537478,601,-25,18.246715791083112,11.730194546873799
0.8355910886221294,0.6602775452643698,601,-25,18.246715791083112,11.730194546873799
0.84219218065293,0.6602709440409953,601,-25,18.246715791083112,11.730194546873799
0.8487932066834399,0.6602643428836232,601,-25,18.246715791083112,11.730194546873799
0.8553941667146949,0.6602577417922526,601,-25,18.246715791083112,11.730194546873799
0.861995060747702,0.6602511407668822,601,-25,18.246715791083112,11.730194546873799
0.8685958887834416,0.6602445398075111,601,-25,18.246715791083112,11.730194546873799
0.8751966508228692,0.6602379389141382,601,-25,18.246715791083112,11.730194546873799
0.8817973468669177,0.6602313380867625,601,-25,18.246715791083112,11.730194546873799
0.8883979769164991,0.6602247373253831,601,-25,18.246715791083112,11.730194546873799
0.8949985409725054,0.6602181366299992,601,-25,18.246715791083112,11.730194546873799
0.9015990390358114,0.6602115360006097,601,-25,18.246715791083112,11.730194546873799
0.908199471107275,0.6602049354372137,601,-25,18.246715791083112,11.730194546873799
0.914799837187739,0.6601983349398105,601,-25,18.246715791083112,11.730194546873799
0.9214001372780319,0.6601917345083991,601,-25,18.246715791083112,11.730194546873799
0.9280003713789696,0.6601851341429786,601,-25,18.246715791083112,11.730194546873799
0.9346005394913555,0.6601785338435484,601,-25,18.246715791083112,11.730194546873799
0.9412006416159819,0.6601719336101075,601,-25,18.246715791083112,11.730194546873799
0.9478006777536319,0.6601653334426552,601,-25,18.246715791083112,11.730194546873799
0.9544006479050778,0.6601587333411906,601,-25,18.246715791083112,11.730194546873799
0.961000552071084,0.660152133305713,601,-25,18.246715791083112,11.730194546873799
0.9676003902524063,0.6601455333362215,601,-25,18.246715791083112,11.730194546873799
0.9742001624497937,0.6601389334327155,601,-25,18.246715791083112,11.730194546873799
0.980799868663988,0.6601323335951942,601,-25,18.246715791083112,11.730194546873799
0.9873995088957246,0.6601257338236568,601,-25,18.246715791083112,11.730194546873799
0.9939990831457334,0.6601191341181025,601,-25,18.246715791083112,11.730194546873799
1.0005985914147382,0.6601125344785308,601,-25,18.246715791083112,11.730194546873799
1.007198033703459,0.6601059349049407,601,-25,18.246715791083112,11.730194546873799
1.0137974100126097,0.6600993353973317,601,-25,18.246715791083112,11.730194546873799
1.0203967203429012,0.660092735955703,601,-25,18.246715791083112,11.730194546873799
1.0269959646950402,0.6600861365800538,601,-25,18.246715791083112,11.730194546873799
1.0335951430697294,0.6600795372703834,601,-25,18.246715791083112,11.730194546873799
1.0401942554676686,0.6600729380266912,601,-25,18.246715791083112,11.730194546873799
1.046793301889554,0.6600663388489765,601,-25,18.246715791083112,11.730194546873799
1.0533922823360793,0.6600597397372384,601,-25,18.246715791083112,11.730194546873799
1.059991196807936,0.6600531406914765,601,-25,18.246715791083112,11.730194546873799
1.0665900453058117,0.6600465417116899,601,-25,18.246715791083112,11.730194546873799
1.0731888278303938,0.6600399427978779,601,-25,18.246715791083112,11.730194546873799
1.0797875443823668,0.6600333439500399,601,-25,18.246715791083112,11.730194546873799
1.0863861949624116,0.6600267451681753,601,-25,18.246715791083112,11.730194546873799
1.09298477957121,0.6600201464522831,601,-25,18.246715791083112,11.730194546873799
1.0995832982094407,0.660013547802363,601,-25,18.246715791083112,11.730194546873799
1.1061817508777814,0.6600069492184141,601,-25,18.246715791083112,11.730194546873799
1.1127801375769077,0.6600003507004357,601,-25,18.246715791083112,11.730194546873799
1.1193784583074948,0.6599937522484272,601,-25,18.246715791083112,11.730194546873799
1.1259767130702165,0.6599871538623879,601,-25,18.246715791083112,11.730194546873799
1.132574901865745,0.6599805555423172,601,-25,18.246715791083112,11.730194546873799
1.139173024694752,0.6599739572882143,601,-25,18.246715791083112,11.730194546873799
1.1457710815579085,0.6599673591000786,601,-25,18.246715791083112,11.730194546873799
1.1523690724558835,0.6599607609779095,601,-25,18.246715791083112,11.730194546873799
1.1589669973893462,0.6599541629217061,601,-25,18.246715791083112,11.730194546873799
1.1655648563589651,0.6599475649314679,601,-25,18.246715791083112,11.730194546873799
1.1721626493654076,0.6599409670071943,601,-25,18.246715791083112,11.730194546873799
1.1787603764093406,0.6599343691488845,601,-25,18.246715791083112,11.730194546873799
1.1853580374914305,0.6599277713565378,601,-25,18.246715791083112,11.730194546873799
1.191955632612343,0.6599211736301537,601,-25,18.246715791083112,11.730194546873799
1.1985531617727436,0.6599145759697314,601,-25,18.246715791083112,11.730194546873799
1.2051506249732968,0.6599079783752702,601,-25,18.246715791083112,11.730194546873799
1.2117480222146673,0.6599013808467695,601,-25,18.246715791083112,11.730194546873799
1.2183453534975193,0.6598947833842288,601,-25,18.246715791083112,11.730194546873799
1.224942618822516,0.6598881859876472,601,-25,18.246715791083112,11.730194546873799
1.2315398181903212,0.6598815886570241,601,-25,18.246715791083112,11.730194546873799
1.2381369516015974,0.6598749913923588,601,-25,18.246715791083112,11.730194546873799
1.2447340190570078,0.6598683941936507,601,-25,18.246715791083112,11.730194546873799
1.2513310205572148,0.6598617970608992,601,-25,18.246715791083112,11.730194546873799
1.2579279561028807,0.6598551999941035,601,-25,18.246715791083112,11.730194546873799
1.2645248256946673,0.659848602993263,601,-25,18.246715791083112,11.730194546873799
1.2711216293332366,0.6598420060583771,601,-25,18.246715791083112,11.730194546873799
1.2777183670192502,0.6598354091894449,601,-25,18.246715791083112,11.730194546873799
1.2843150387533693,0.6598288123864661,601,-25,18.246715791083112,11.730194546873799
1.2909116445362556,0.6598222156494398,601,-25,18.246715791083112,11.730194546873799
1.2975081843685696,0.6598156189783653,601,-25,18.246715791083112,11.730194546873799
1.3041046582509732,0.6598090223732421,601,-25,18.246715791083112,11.730194546873799
1.310701066184126,0.6598024258340695,601,-25,18.246715791083112,11.730194546873799
1.3172974081686901,0.6597958293608467,601,-25,18.246715791083112,11.730194546873799
1.323893684205325,0.6597892329535732,601,-25,18.246715791083112,11.730194546873799
1.3304898942946923,0.6597826366122482,601,-25,18.246715791083112,11.730194546873799
1.3370860384374508,0.6597760403368713,601,-25,18.246715791083112,11.730194546873799
1.3436821166342625,0.6597694441274415,601,-25,18.246715791083112,11.730194546873799
1.3502781288857864,0.6597628479839585,601,-25,18.246715791083112,11.730194546873799
1.356874075192683,0.6597562519064213,601,-25,18.246715791083112,11.730194546873799
1.3634699555556127,0.6597496558948294,601,-25,18.246715791083112,11.730194546873799
1.3700657699752359,0.659743059949182,601,-25,18.246715791083112,11.730194546873799
1.3766615184522115,0.6597364640694787,601,-25,18.246715791083112,11.730194546873799
1.3832572009871997,0.6597298682557187,601,-25,18.246715791083112,11.730194546873799
1.3898528175808607,0.6597232725079013,601,-25,18.246715791083112,11.730194546873799
1.3964483682338542,0.6597166768260259,601,-25,18.246715791083112,11.730194546873799
1.4030438529468394,0.6597100812100918,601,-25,18.246715791083112,11.730194546873799
1.4096392717204769,0.6597034856600984,601,-25,18.246715791083112,11.730194546873799
1.416234624555426,0.6596968901760449,601,-25,18.246715791083112,11.730194546873799
1.4228299114523457,0.6596902947579308,601,-25,18.246715791083112,11.730194546873799
1.4294251324118965,0.6596836994057554,601,-25,18.246715791083112,11.730194546873799
1.4360202874347374,0.6596771041195181,601,-25,18.246715791083112,11.730194546873799
1.4426153765215275,0.6596705088992181,601,-25,18.246715791083112,11.730194546873799
1.4492103996729273,0.6596639137448548,601,-25,18.246715791083112,11.730194546873799
1.455805356889596,0.6596573186564275,601,-25,18.246715791083112,11.730194546873799
1.4624002481721932,0.6596507236339356,601,-25,18.246715791083112,11.730194546873799
1.4689950735213773,0.6596441286773784,601,-25,18.246715791083112,11.730194546873799
1.475589832937808,0.6596375337867554,601,-25,18.246715791083112,11.730194546873799
1.4821845264221458,0.6596309389620657,601,-25,18.246715791083112,11.730194546873799
1.4887791539750488,0.6596243442033087,601,-25,18.246715791083112,11.730194546873799
1.4953737155971767,0.6596177495104839,601,-25,18.246715791083112,11.730194546873799
1.5019682112891892,0.6596111548835905,601,-25,18.246715791083112,11.730194546873799
1.508562641051745,0.6596045603226278,601,-25,18.246715791083112,11.730194546873799
1.5151570048855034,0.6595979658275952,601,-25,18.246715791083112,11.730194546873799
1.5217513027911242,0.6595913713984921,601,-25,18.246715791083112,11.730194546873799
1.5283455347692665,0.6595847770353178,601,-25,18.246715791083112,11.730194546873799
1.534939700820589,0.6595781827380717,601,-25,18.246715791083112,11.730194546873799
1.5415338009457509,0.6595715885067529,601,-25,18.246715791083112,11.730194546873799
