Vout,Iout,Irradiance,Temperature,MaxVoltage,MaxPower
5.5999461543639005e-06,0.00112,1,-15,0.20298397274166138,0.00018614325963777888
1.6799734914787164e-05,0.00112,1,-15,0.20298397274166138,0.00018614325963777888
2.79992959863141e-05,0.0011199942880538456,1,-15,0.20298397274166138,0.00018614325963777888
3.919858869239878e-05,0.001119983088265085,1,-15,0.20298397274166138,0.00018614325963777888
5.03975997392403e-05,0.0011199718887045847,1,-15,0.20298397274166138,0.00018614325963777888
6.159634218557677e-05,0.0011199606894129986,1,-15,0.20298397274166138,0.00018614325963777888
7.279482808584478e-05,0.0011199494904030717,1,-15,0.20298397274166138,0.00018614325963777888
8.39930685672038e-05,0.0011199382916617453,1,-15,0.20298397274166138,0.00018614325963777888
9.51910739007583e-05,0.001119927093176965,1,-15,0.20298397274166138,0.00018614325963777888
0.00010638885356742393,0.0011199158949376036,1,-15,0.20298397274166138,0.00018614325963777888
0.00011758641631872591,0.0011199046969333898,1,-15,0.20298397274166138,0.00018614325963777888
0.00012878377023291948,0.001119893499154843,1,-15,0.20298397274166138,0.00018614325963777888
0.00013998092276679226,0.0011198823015932116,1,-15,0.20298397274166138,0.00018614325963777888
0.00015117788080348107,0.001119871104240417,1,-15,0.20298397274166138,0.00018614325963777888
0.0001623746506966095,0.001119859907089003,1,-15,0.20298397274166138,0.00018614325963777888
0.00017357123831102935,0.001119848710132086,1,-15,0.20298397274166138,0.00018614325963777888
0.00018476764906042768,0.0011198375133633126,1,-15,0.20298397274166138,0.00018614325963777888
0.00019596388794204005,0.0011198263167768179,1,-15,0.20298397274166138,0.00018614325963777888
0.00020715995956869287,0.0011198151203671881,1,-15,0.20298397274166138,0.00018614325963777888
0.0002183558681983807,0.0011198039241294261,1,-15,0.20298397274166138,0.00018614325963777888
0.00022955161776156725,0.0011197927280589192,1,-15,0.20298397274166138,0.00018614325963777888
0.00024074721188638634,0.0011197815321514091,1,-15,0.20298397274166138,0.00018614325963777888
0.0002519426539219036,0.0011197703364029656,1,-15,0.20298397274166138,0.00018614325963777888
0.0002631379469595883,0.0011197591408099604,1,-15,0.20298397274166138,0.00018614325963777888
0.00027433309385313314,0.0011197479453690443,1,-15,0.20298397274166138,0.00018614325963777888
0.00028552809723674975,0.0011197367500771261,1,-15,0.20298397274166138,0.00018614325963777888
0.00029672295954205505,0.0011197255549313522,1,-15,0.20298397274166138,0.00018614325963777888
0.0003079176830136597,0.0011197143599290882,1,-15,0.20298397274166138,0.00018614325963777888
0.0003191122697235567,0.0011197031650679024,1,-15,0.20298397274166138,0.00018614325963777888
0.0003303067215844028,0.0011196919703455504,1,-15,0.20298397274166138,0.00018614325963777888
0.00034150104036177764,0.0011196807757599598,1,-15,0.20298397274166138,0.00018614325963777888
0.0003526952276855009,0.0011196695813092184,1,-15,0.20298397274166138,0.00018614325963777888
0.0003638892850600772,0.0011196583869915605,1,-15,0.20298397274166138,0.00018614325963777888
0.0003750832138743384,0.0011196471928053562,1,-15,0.20298397274166138,0.00018614325963777888
0.00038627701541034333,0.0011196359987491011,1,-15,0.20298397274166138,0.00018614325963777888
0.0003974706908515935,0.0011196248048214062,1,-15,0.20298397274166138,0.00018614325963777888
0.0004086642412906161,0.0011196136110209897,1,-15,0.20298397274166138,0.00018614325963777888
0.00041985766773596324,0.0011196024173466678,1,-15,0.20298397274166138,0.00018614325963777888
0.00043105097111867396,0.0011195912237973481,1,-15,0.20298397274166138,0.00018614325963777888
0.00044224415229823756,0.0011195800303720222,1,-15,0.20298397274166138,0.00018614325963777888
0.0004534372120680989,0.0011195688370697588,1,-15,0.20298397274166138,0.00018614325963777888
0.0004646301511607402,0.0011195576438896987,1,-15,0.20298397274166138,0.00018614325963777888
0.00047582297025237127,0.0011195464508310482,1,-15,0.20298397274166138,0.00018614325963777888
0.0004870156699672594,0.0011195352578930748,1,-15,0.20298397274166138,0.00018614325963777888
0.0004982082508817258,0.0011195240650751024,1,-15,0.20298397274166138,0.00018614325963777888
0.0005094007135278345,0.0011195128723765068,1,-15,0.20298397274166138,0.00018614325963777888
0.0005205930583967983,0.0011195016797967117,1,-15,0.20298397274166138,0.00018614325963777888
0.0005317852859421209,0.001119490487335185,1,-15,0.20298397274166138,0.00018614325963777888
0.000542977396582499,0.0011194792949914352,1,-15,0.20298397274166138,0.00018614325963777888
0.0005541693907045,0.001119468102765009,1,-15,0.20298397274166138,0.00018614325963777888
0.0005653612686650343,0.0011194569106554879,1,-15,0.20298397274166138,0.00018614325963777888
0.0005765530307936374,0.0011194457186624852,1,-15,0.20298397274166138,0.00018614325963777888
0.0005877446773945755,0.0011194345267856438,1,-15,0.20298397274166138,0.00018614325963777888
0.0005989362087487905,0.0011194233350246344,1,-15,0.20298397274166138,0.00018614325963777888
0.0006101276251156938,0.0011194121433791527,1,-15,0.20298397274166138,0.00018614325963777888
0.0006213189267348237,0.0011194009518489176,1,-15,0.20298397274166138,0.00018614325963777888
0.000632510113827374,0.00111938976043367,1,-15,0.20298397274166138,0.00018614325963777888
0.0006437011865976056,0.00111937856913317,1,-15,0.20298397274166138,0.00018614325963777888
0.0006548921452341493,0.0011193673779471966,1,-15,0.20298397274166138,0.00018614325963777888
0.0006660829899112083,0.0011193561868755454,1,-15,0.20298397274166138,0.00018614325963777888
0.0006772737207896684,0.001119344995918028,1,-15,0.20298397274166138,0.00018614325963777888
0.0006884643380181223,0.0011193338050744701,1,-15,0.20298397274166138,0.00018614325963777888
0.0006996548417338168,0.0011193226143447106,1,-15,0.20298397274166138,0.00018614325963777888
0.0007108452320635243,0.0011193114237286013,1,-15,0.20298397274166138,0.00018614325963777888
0.0007220355091243481,0.0011193002332260046,1,-15,0.20298397274166138,0.00018614325963777888
0.0007332256730244693,0.001119289042836794,1,-15,0.20298397274166138,0.00018614325963777888
0.00074441572386383,0.0011192778525608523,1,-15,0.20298397274166138,0.00018614325963777888
0.0007556056617347692,0.0011192666623980711,1,-15,0.20298397274166138,0.00018614325963777888
0.0007667954867226076,0.0011192554723483507,1,-15,0.20298397274166138,0.00018614325963777888
0.0007779851989061863,0.0011192442824115988,1,-15,0.20298397274166138,0.00018614325963777888
0.000789174798358367,0.00111923309258773,1,-15,0.20298397274166138,0.00018614325963777888
0.0008003642851464912,0.0011192219028766655,1,-15,0.20298397274166138,0.00018614325963777888
0.000811553659332805,0.0011192107132783323,1,-15,0.20298397274166138,0.00018614325963777888
0.0008227429209748514,0.001119199523792663,1,-15,0.20298397274166138,0.00018614325963777888
0.0008339320701258317,0.0011191883344195959,1,-15,0.20298397274166138,0.00018614325963777888
0.0008451211068349402,0.0011191771451590728,1,-15,0.20298397274166138,0.00018614325963777888
0.0008563100311476717,0.0011191659560110406,1,-15,0.20298397274166138,0.00018614325963777888
0.000867498843106107,0.0011191547669754504,1,-15,0.20298397274166138,0.00018614325963777888
0.0008786875427491752,0.0011191435780522566,1,-15,0.20298397274166138,0.00018614325963777888
0.0008898761301128959,0.0011191323892414172,1,-15,0.20298397274166138,0.00018614325963777888
0.0009010646052306035,0.0011191212005428929,1,-15,0.20298397274166138,0.00018614325963777888
0.0009122529681331531,0.0011191100119566481,1,-15,0.20298397274166138,0.00018614325963777888
0.000923441218849113,0.0011190988234826493,1,-15,0.20298397274166138,0.00018614325963777888
0.0009346293574049384,0.0011190876351208656,1,-15,0.20298397274166138,0.00018614325963777888
0.0009458173838251354,0.0011190764468712684,1,-15,0.20298397274166138,0.00018614325963777888
0.0009570052981324107,0.0011190652587338315,1,-15,0.20298397274166138,0.00018614325963777888
0.0009681931003478094,0.0011190540707085301,1,-15,0.20298397274166138,0.00018614325963777888
0.0009793807904908442,0.0011190428827953416,1,-15,0.20298397274166138,0.00018614325963777888
0.0009905683685796115,0.001119031694994245,1,-15,0.20298397274166138,0.00018614325963777888
0.0010017558346309026,0.0011190205073052207,1,-15,0.20298397274166138,0.00018614325963777888
0.0010129431886603019,0.0011190093197282508,1,-15,0.20298397274166138,0.00018614325963777888
0.001024130430682281,0.0011189981322633183,1,-15,0.20298397274166138,0.00018614325963777888
0.0010353175607102842,0.0011189869449104077,1,-15,0.20298397274166138,0.00018614325963777888
0.0010465045787568068,0.0011189757576695043,1,-15,0.20298397274166138,0.00018614325963777888
0.0010576914848334704,0.001118964570540595,1,-15,0.20298397274166138,0.00018614325963777888
0.001068878278951086,0.0011189533835236673,1,-15,0.20298397274166138,0.00018614325963777888
0.001080064961119721,0.0011189421966187093,1,-15,0.20298397274166138,0.00018614325963777888
0.001091251531348753,0.0011189310098257104,1,-15,0.20298397274166138,0.00018614325963777888
0.001102437989646924,0.0011189198231446606,1,-15,0.20298397274166138,0.00018614325963777888
0.00111362433602239,0.0011189086365755501,1,-15,0.20298397274166138,0.00018614325963777888
0.0011248105704827654,0.0011188974501183707,1,-15,0.20298397274166138,0.00018614325963777888
0.0011359966930351646,0.001118886263773114,1,-15,0.20298397274166138,0.00018614325963777888
0.001147182703686241,0.0011188750775397722,1,-15,0.20298397274166138,0.00018614325963777888
0.001158368602442221,0.0011188638914183383,1,-15,0.20298397274166138,0.00018614325963777888
0.0011695543893089392,0.0011188527054088058,1,-15,0.20298397274166138,0.00018614325963777888
0.0011807400642918665,0.0011188415195111684,1,-15,0.20298397274166138,0.00018614325963777888
0.0011919256273961395,0.0011188303337254205,1,-15,0.20298397274166138,0.00018614325963777888
0.001203111078626585,0.001118819148051556,1,-15,0.20298397274166138,0.00018614325963777888
0.0012142964179877448,0.0011188079624895703,1,-15,0.20298397274166138,0.00018614325963777888
0.0012254816454838969,0.0011187967770394584,1,-15,0.20298397274166138,0.00018614325963777888
0.0012366667611190766,0.001118785591701216,1,-15,0.20298397274166138,0.00018614325963777888
0.0012478517648970948,0.0011187744064748383,1,-15,0.20298397274166138,0.00018614325963777888
0.0012590366568215542,0.0011187632213603216,1,-15,0.20298397274166138,0.00018614325963777888
0.0012702214368958678,0.001118752036357662,1,-15,0.20298397274166138,0.00018614325963777888
0.0012814061051232709,0.0011187408514668562,1,-15,0.20298397274166138,0.00018614325963777888
0.0012925906615068362,0.0011187296666879004,1,-15,0.20298397274166138,0.00018614325963777888
0.0013037751060494859,0.0011187184820207914,1,-15,0.20298397274166138,0.00018614325963777888
0.0013149594387540033,0.0011187072974655264,1,-15,0.20298397274166138,0.00018614325963777888
0.001326143659623044,0.0011186961130221023,1,-15,0.20298397274166138,0.00018614325963777888
0.0013373277686591451,0.0011186849286905162,1,-15,0.20298397274166138,0.00018614325963777888
0.0013485117658647346,0.0011186737444707656,1,-15,0.20298397274166138,0.00018614325963777888
0.0013596956512421387,0.0011186625603628478,1,-15,0.20298397274166138,0.00018614325963777888
0.001370879424793592,0.0011186513763667607,1,-15,0.20298397274166138,0.00018614325963777888
0.0013820630865212424,0.0011186401924825017,1,-15,0.20298397274166138,0.00018614325963777888
0.0013932466364271591,0.0011186290087100686,1,-15,0.20298397274166138,0.00018614325963777888
0.001404430074513337,0.0011186178250494594,1,-15,0.20298397274166138,0.00018614325963777888
0.001415613400781705,0.0011186066415006719,1,-15,0.20298397274166138,0.00018614325963777888
0.0014267966152341279,0.0011185954580637042,1,-15,0.20298397274166138,0.00018614325963777888
0.0014379797178724141,0.0011185842747385541,1,-15,0.20298397274166138,0.00018614325963777888
0.001449162708698319,0.00111857309152522,1,-15,0.20298397274166138,0.00018614325963777888
0.001460345587713548,0.0011185619084237,1,-15,0.20298397274166138,0.00018614325963777888
0.0014715283549197621,0.0011185507254339924,1,-15,0.20298397274166138,0.00018614325963777888
0.0014827110103185811,0.0011185395425560955,1,-15,0.20298397274166138,0.00018614325963777888
0.0014938935539115842,0.0011185283597900076,1,-15,0.20298397274166138,0.00018614325963777888
0.0015050759857003163,0.0011185171771357272,1,-15,0.20298397274166138,0.00018614325963777888
0.00151625830568629,0.0011185059945932523,1,-15,0.20298397274166138,0.00018614325963777888
0.001527440513870986,0.0011184948121625818,1,-15,0.20298397274166138,0.00018614325963777888
0.0015386226102558583,0.001118483629843714,1,-15,0.20298397274166138,0.00018614325963777888
0.001549804594842335,0.0011184724476366477,1,-15,0.20298397274166138,0.00018614325963777888
0.0015609864676318197,0.001118461265541381,1,-15,0.20298397274166138,0.00018614325963777888
0.0015721682286256936,0.0011184500835579128,1,-15,0.20298397274166138,0.00018614325963777888
0.001583349877825319,0.0011184389016862415,1,-15,0.20298397274166138,0.00018614325963777888
0.0015945314152320377,0.0011184277199263659,1,-15,0.20298397274166138,0.00018614325963777888
0.0016057128408471755,0.0011184165382782845,1,-15,0.20298397274166138,0.00018614325963777888
0.0016168941546720423,0.0011184053567419958,1,-15,0.20298397274166138,0.00018614325963777888
0.0016280753567079324,0.001118394175317499,1,-15,0.20298397274166138,0.00018614325963777888
0.001639256446956126,0.0011183829940047921,1,-15,0.20298397274166138,0.00018614325963777888
0.0016504374254178926,0.0011183718128038745,1,-15,0.20298397274166138,0.00018614325963777888
0.0016616182920944883,0.0011183606317147444,1,-15,0.20298397274166138,0.00018614325963777888
0.0016727990469871596,0.0011183494507374008,1,-15,0.20298397274166138,0.00018614325963777888
0.0016839796900971426,0.0011183382698718423,1,-15,0.20298397274166138,0.00018614325963777888
0.001695160221425664,0.0011183270891180676,1,-15,0.20298397274166138,0.00018614325963777888
0.0017063406409739423,0.0011183159084760758,1,-15,0.20298397274166138,0.00018614325963777888
0.001717520948743189,0.0011183047279458653,1,-15,0.20298397274166138,0.00018614325963777888
0.0017287011447346071,0.001118293547527435,1,-15,0.20298397274166138,0.00018614325963777888
0.001739881228949394,0.001118282367220784,1,-15,0.20298397274166138,0.00018614325963777888
0.0017510612013887407,0.0011182711870259105,1,-15,0.20298397274166138,0.00018614325963777888
0.0017622410620538318,0.0011182600069428138,1,-15,0.20298397274166138,0.00018614325963777888
0.0017734208109458475,0.0011182488269714924,1,-15,0.20298397274166138,0.00018614325963777888
0.001784600448065963,0.0011182376471119454,1,-15,0.20298397274166138,0.00018614325963777888
0.0017957799734153494,0.0011182264673641714,1,-15,0.20298397274166138,0.00018614325963777888
0.0018069593869951726,0.0011182152877281693,1,-15,0.20298397274166138,0.00018614325963777888
0.001818138688806596,0.0011182041082039378,1,-15,0.20298397274166138,0.00018614325963777888
0.0018293178788507782,0.0011181929287914759,1,-15,0.20298397274166138,0.00018614325963777888
0.0018404969571288764,0.0011181817494907826,1,-15,0.20298397274166138,0.00018614325963777888
0.0018516759236420423,0.0011181705703018562,1,-15,0.20298397274166138,0.00018614325963777888
0.0018628547783914276,0.0011181593912246962,1,-15,0.20298397274166138,0.00018614325963777888
0.0018740335213781791,0.0011181482122593009,1,-15,0.20298397274166138,0.00018614325963777888
0.0018852121526034425,0.0011181370334056695,1,-15,0.20298397274166138,0.00018614325963777888
0.001896390672068361,0.0011181258546638004,1,-15,0.20298397274166138,0.00018614325963777888
0.0019075690797740763,0.0011181146760336931,1,-15,0.20298397274166138,0.00018614325963777888
0.0019187473757217273,0.001118103497515346,1,-15,0.20298397274166138,0.00018614325963777888
0.0019299255599124516,0.0011180923191087583,1,-15,0.20298397274166138,0.00018614325963777888
0.0019411036323473858,0.0011180811408139284,1,-15,0.20298397274166138,0.00018614325963777888
0.0019522815930276642,0.0011180699626308556,1,-15,0.20298397274166138,0.00018614325963777888
0.00196345944195442,0.0011180587845595383,1,-15,0.20298397274166138,0.00018614325963777888
0.001974637179128786,0.001118047606599976,1,-15,0.20298397274166138,0.00018614325963777888
0.001985814804551892,0.001118036428752167,1,-15,0.20298397274166138,0.00018614325963777888
0.001996992318224869,0.0011180252510161104,1,-15,0.20298397274166138,0.00018614325963777888
0.0020081697201488457,0.001118014073391805,1,-15,0.20298397274166138,0.00018614325963777888
0.0020193470103249496,0.00111800289587925,1,-15,0.20298397274166138,0.00018614325963777888
0.0020305241887543075,0.0011179917184784437,1,-15,0.20298397274166138,0.00018614325963777888
0.002041701255438046,0.0011179805411893854,1,-15,0.20298397274166138,0.00018614325963777888
0.0020528782103772917,0.0011179693640120736,1,-15,0.20298397274166138,0.00018614325963777888
0.002064055053573168,0.0011179581869465078,1,-15,0.20298397274166138,0.00018614325963777888
0.0020752317850268004,0.0011179470099926861,1,-15,0.20298397274166138,0.00018614325963777888
0.0020864084047393125,0.001117935833150608,1,-15,0.20298397274166138,0.00018614325963777888
0.002097584912711827,0.001117924656420272,1,-15,0.20298397274166138,0.00018614325963777888
0.0021087613089454675,0.0011179134798016772,1,-15,0.20298397274166138,0.00018614325963777888
0.0021199375934413565,0.0011179023032948225,1,-15,0.20298397274166138,0.00018614325963777888
0.0021311137662006143,0.0011178911268997064,1,-15,0.20298397274166138,0.00018614325963777888
0.002142289827224364,0.0011178799506163283,1,-15,0.20298397274166138,0.00018614325963777888
0.002153465776513727,0.0011178687744446865,1,-15,0.20298397274166138,0.00018614325963777888
0.002164641614069823,0.0011178575983847804,1,-15,0.20298397274166138,0.00018614325963777888
0.0021758173398937733,0.0011178464224366087,1,-15,0.20298397274166138,0.00018614325963777888
0.002186992953986698,0.0011178352466001702,1,-15,0.20298397274166138,0.00018614325963777888
0.002198168456349717,0.0011178240708754638,1,-15,0.20298397274166138,0.00018614325963777888
0.0022093438469839503,0.0011178128952624886,1,-15,0.20298397274166138,0.00018614325963777888
0.002220519125890517,0.001117801719761243,1,-15,0.20298397274166138,0.00018614325963777888
0.0022316942930705372,0.0011177905443717265,1,-15,0.20298397274166138,0.00018614325963777888
0.0022428693485251295,0.0011177793690939374,1,-15,0.20298397274166138,0.00018614325963777888
0.0022540442922554136,0.001117768193927875,1,-15,0.20298397274166138,0.00018614325963777888
0.0022652191242625084,0.001117757018873538,1,-15,0.20298397274166138,0.00018614325963777888
0.0022763938445475307,0.001117745843930925,1,-15,0.20298397274166138,0.00018614325963777888
0.002287568453111601,0.0011177346691000356,1,-15,0.20298397274166138,0.00018614325963777888
0.0022987429499558374,0.001117723494380868,1,-15,0.20298397274166138,0.00018614325963777888
0.0023099173350813575,0.0011177123197734214,1,-15,0.20298397274166138,0.00018614325963777888
0.00232109160848928,0.0011177011452776946,1,-15,0.20298397274166138,0.00018614325963777888
0.002332265770180722,0.0011176899708936865,1,-15,0.20298397274166138,0.00018614325963777888
0.002343439820156803,0.001117678796621396,1,-15,0.20298397274166138,0.00018614325963777888
0.0023546137584186393,0.0011176676224608222,1,-15,0.20298397274166138,0.00018614325963777888
0.002365787584967351,0.0011176564484119635,1,-15,0.20298397274166138,0.00018614325963777888
0.0023769612998040526,0.001117645274474819,1,-15,0.20298397274166138,0.00018614325963777888
