Vout,Iout,Irradiance,Temperature,MaxVoltage,MaxPower
0.007415628695877924,1.48314,1301,-5,19.72973079983176,28.873265100370055
0.022246748965640568,1.48314,1301,-5,19.72973079983176,28.873265100370055
0.037077567722448114,1.483132436057304,1301,-5,19.72973079983176,28.873265100370055
0.05190803110111101,1.4831176049370343,1301,-5,19.72973079983176,28.873265100370055
0.06673812149755075,1.483102774119034,1301,-5,19.72973079983176,28.873265100370055
0.08156785620456816,1.4830879436571383,1301,-5,19.72973079983176,28.873265100370055
0.09639725118503556,1.483073113568225,1301,-5,19.72973079983176,28.873265100370055
0.11122632117389522,1.483058283835001,1301,-5,19.72973079983176,28.873265100370055
0.1260550797724738,1.4830434544415034,1301,-5,19.72973079983176,28.873265100370055
0.1408835395357046,1.4830286253729976,1301,-5,19.72973079983176,28.873265100370055
0.15571171205263853,1.483013796615882,1301,-5,19.72973079983176,28.873265100370055
0.1705396080207609,1.4829989681576017,1301,-5,19.72973079983176,28.873265100370055
0.18536723731458954,1.4829841399865675,1301,-5,19.72973079983176,28.873265100370055
0.20019460904899547,1.4829693120920824,1301,-5,19.72973079983176,28.873265100370055
0.21502173163765123,1.4829544844642712,1301,-5,19.72973079983176,28.873265100370055
0.2298486128469822,1.4829396570940196,1301,-5,19.72973079983176,28.873265100370055
0.2446752598459667,1.4829248299729139,1301,-5,19.72973079983176,28.873265100370055
0.25950167925210466,1.4829100030931872,1301,-5,19.72973079983176,28.873265100370055
0.2743278771738492,1.482895176447671,1301,-5,19.72973079983176,28.873265100370055
0.28915385924977355,1.4828803500297474,1301,-5,19.72973079983176,28.873265100370055
0.30397963068472406,1.4828655238333084,1301,-5,19.72973079983176,28.873265100370055
0.3188051962831921,1.4828506978527152,1301,-5,19.72973079983176,28.873265100370055
0.333630560480118,1.4828358720827628,1301,-5,19.72973079983176,28.873265100370055
0.34845572736932484,1.4828210465186469,1301,-5,19.72973079983176,28.873265100370055
0.3632807007297643,1.4828062211559325,1301,-5,19.72973079983176,28.873265100370055
0.37810548404974387,1.482791395990526,1301,-5,19.72973079983176,28.873265100370055
0.3929300805492889,1.482776571018648,1301,-5,19.72973079983176,28.873265100370055
0.4077544932007851,1.4827617462368106,1301,-5,19.72973079983176,28.873265100370055
0.4225787247480322,1.4827469216417934,1301,-5,19.72973079983176,28.873265100370055
0.43740277772383146,1.4827320972306246,1301,-5,19.72973079983176,28.873265100370055
0.45222665446622046,1.4827172730005598,1301,-5,19.72973079983176,28.873265100370055
0.46705035713345877,1.4827024489490663,1301,-5,19.72973079983176,28.873265100370055
0.4818738877178597,1.4826876250738064,1301,-5,19.72973079983176,28.873265100370055
0.496697248058559,1.4826728013726216,1301,-5,19.72973079983176,28.873265100370055
0.5115204398533004,1.4826579778435196,1301,-5,19.72973079983176,28.873265100370055
0.5263434646693145,1.4826431544846612,1301,-5,19.72973079983176,28.873265100370055
0.5411663239533608,1.482628331294349,1301,-5,19.72973079983176,28.873265100370055
0.5559890190409968,1.4826135082710152,1301,-5,19.72973079983176,28.873265100370055
0.5708115511651339,1.4825986854132134,1301,-5,19.72973079983176,28.873265100370055
0.5856339214639357,1.4825838627196082,1301,-5,19.72973079983176,28.873265100370055
0.6004561309881072,1.4825690401889662,1301,-5,19.72973079983176,28.873265100370055
0.6152781807076249,1.4825542178201496,1301,-5,19.72973079983176,28.873265100370055
0.6301000715179478,1.4825393956121078,1301,-5,19.72973079983176,28.873265100370055
0.6449218042457505,1.4825245735638706,1301,-5,19.72973079983176,28.873265100370055
0.6597433796542163,1.4825097516745425,1301,-5,19.72973079983176,28.873265100370055
0.6745647984479214,1.4824949299432968,1301,-5,19.72973079983176,28.873265100370055
0.6893860612773454,1.4824801083693706,1301,-5,19.72973079983176,28.873265100370055
0.7042071687430328,1.482465286952059,1301,-5,19.72973079983176,28.873265100370055
0.719028121399435,1.4824504656907118,1301,-5,19.72973079983176,28.873265100370055
0.7338489197584569,1.4824356445847282,1301,-5,19.72973079983176,28.873265100370055
0.7486695642927311,1.4824208236335539,1301,-5,19.72973079983176,28.873265100370055
0.7634900554386385,1.482406002836677,1301,-5,19.72973079983176,28.873265100370055
0.7783103935990988,1.4823911821936249,1301,-5,19.72973079983176,28.873265100370055
0.7931305791461437,1.482376361703961,1301,-5,19.72973079983176,28.873265100370055
0.8079506124232947,1.4823615413672826,1301,-5,19.72973079983176,28.873265100370055
0.8227704937477557,1.4823467211832175,1301,-5,19.72973079983176,28.873265100370055
0.8375902234124387,1.4823319011514224,1301,-5,19.72973079983176,28.873265100370055
0.8524098016878326,1.48231708127158,1301,-5,19.72973079983176,28.873265100370055
0.8672292288237284,1.4823022615433974,1301,-5,19.72973079983176,28.873265100370055
0.8820485050508116,1.482287441966604,1301,-5,19.72973079983176,28.873265100370055
0.8968676305821323,1.48227262254095,1301,-5,19.72973079983176,28.873265100370055
0.911686605614462,1.4822578032662048,1301,-5,19.72973079983176,28.873265100370055
0.926505430329547,1.4822429841421556,1301,-5,19.72973079983176,28.873265100370055
0.941324104895263,1.4822281651686051,1301,-5,19.72973079983176,28.873265100370055
0.956142629466683,1.482213346345372,1301,-5,19.72973079983176,28.873265100370055
0.9709610041870632,1.4821985276722882,1301,-5,19.72973079983176,28.873265100370055
0.9857792291887503,1.4821837091491985,1301,-5,19.72973079983176,28.873265100370055
1.0005973045940226,1.48216889077596,1301,-5,19.72973079983176,28.873265100370055
1.0154152305158641,1.4821540725524402,1301,-5,19.72973079983176,28.873265100370055
1.0302330070586792,1.4821392544785168,1301,-5,19.72973079983176,28.873265100370055
1.0450506343189538,1.4821244365540769,1301,-5,19.72973079983176,28.873265100370055
1.0598681123858633,1.4821096187790157,1301,-5,19.72973079983176,28.873265100370055
1.074685441341836,1.4820948011532373,1301,-5,19.72973079983176,28.873265100370055
1.0895026212630723,1.482079983676652,1301,-5,19.72973079983176,28.873265100370055
1.1043196522200232,1.482065166349178,1301,-5,19.72973079983176,28.873265100370055
1.119136534277833,1.4820503491707384,1301,-5,19.72973079983176,28.873265100370055
1.133953267496748,1.4820355321412633,1301,-5,19.72973079983176,28.873265100370055
1.1487698519324927,1.4820207152606872,1301,-5,19.72973079983176,28.873265100370055
1.1635862876366174,1.48200589852895,1301,-5,19.72973079983176,28.873265100370055
1.1784025746568216,1.4819910819459958,1301,-5,19.72973079983176,28.873265100370055
1.1932187130372471,1.4819762655117734,1301,-5,19.72973079983176,28.873265100370055
1.208034702818754,1.481961449226235,1301,-5,19.72973079983176,28.873265100370055
1.2228505440391724,1.481946633089336,1301,-5,19.72973079983176,28.873265100370055
1.2376662367335356,1.4819318171010363,1301,-5,19.72973079983176,28.873265100370055
1.2524817809342954,1.4819170012612974,1301,-5,19.72973079983176,28.873265100370055
1.2672971766715204,1.4819021855700847,1301,-5,19.72973079983176,28.873265100370055
1.28211242397308,1.4818873700273656,1301,-5,19.72973079983176,28.873265100370055
1.296927522864812,1.4818725546331097,1301,-5,19.72973079983176,28.873265100370055
1.3117424733706822,1.4818577393872898,1301,-5,19.72973079983176,28.873265100370055
1.3265572755129247,1.4818429242898796,1301,-5,19.72973079983176,28.873265100370055
1.3413719293121775,1.4818281093408552,1301,-5,19.72973079983176,28.873265100370055
1.356186434787604,1.4818132945401945,1301,-5,19.72973079983176,28.873265100370055
1.3710007919570082,1.4817984798878767,1301,-5,19.72973079983176,28.873265100370055
1.385815000836937,1.481783665383883,1301,-5,19.72973079983176,28.873265100370055
1.4006290614427783,1.481768851028195,1301,-5,19.72973079983176,28.873265100370055
1.41544297378885,1.4817540368207964,1301,-5,19.72973079983176,28.873265100370055
1.4302567378884832,1.481739222761672,1301,-5,19.72973079983176,28.873265100370055
1.4450703537540959,1.4817244088508075,1301,-5,19.72973079983176,28.873265100370055
1.4598838213972651,1.4817095950881891,1301,-5,19.72973079983176,28.873265100370055
1.4746971408287908,1.4816947814738048,1301,-5,19.72973079983176,28.873265100370055
1.4895103120587563,1.4816799680076431,1301,-5,19.72973079983176,28.873265100370055
1.5043233350965826,1.481665154689693,1301,-5,19.72973079983176,28.873265100370055
1.51913620995108,1.4816503415199442,1301,-5,19.72973079983176,28.873265100370055
1.5339489366304944,1.4816355284983878,1301,-5,19.72973079983176,28.873265100370055
1.5487615151425522,1.4816207156250147,1301,-5,19.72973079983176,28.873265100370055
1.5635739454944975,1.4816059028998165,1301,-5,19.72973079983176,28.873265100370055
1.5783862276931326,1.4815910903227858,1301,-5,19.72973079983176,28.873265100370055
1.5931983617448493,1.4815762778939152,1301,-5,19.72973079983176,28.873265100370055
1.6080103476556624,1.4815614656131977,1301,-5,19.72973079983176,28.873265100370055
1.6228221854312368,1.4815466534806272,1301,-5,19.72973079983176,28.873265100370055
1.6376338750769162,1.4815318414961978,1301,-5,19.72973079983176,28.873265100370055
1.6524454165977458,1.4815170296599034,1301,-5,19.72973079983176,28.873265100370055
1.6672568099984988,1.4815022179717388,1301,-5,19.72973079983176,28.873265100370055
1.6820680552836929,1.4814874064316992,1301,-5,19.72973079983176,28.873265100370055
1.6968791524576123,1.4814725950397796,1301,-5,19.72973079983176,28.873265100370055
1.711690101524327,1.4814577837959755,1301,-5,19.72973079983176,28.873265100370055
1.7265009024877074,1.4814429727002827,1301,-5,19.72973079983176,28.873265100370055
1.741311555351438,1.4814281617526972,1301,-5,19.72973079983176,28.873265100370055
1.7561220601190355,1.481413350953215,1301,-5,19.72973079983176,28.873265100370055
1.7709324167938596,1.4813985403018324,1301,-5,19.72973079983176,28.873265100370055
1.7857426253791253,1.4813837297985457,1301,-5,19.72973079983176,28.873265100370055
1.800552685877914,1.481368919443352,1301,-5,19.72973079983176,28.873265100370055
1.815362598293184,1.4813541092362479,1301,-5,19.72973079983176,28.873265100370055
1.83017236262778,1.48133929917723,1301,-5,19.72973079983176,28.873265100370055
1.8449819788844415,1.4813244892662958,1301,-5,19.72973079983176,28.873265100370055
1.859791447065811,1.4813096795034422,1301,-5,19.72973079983176,28.873265100370055
1.8746007671744422,1.4812948698886665,1301,-5,19.72973079983176,28.873265100370055
1.889409939212805,1.4812800604219662,1301,-5,19.72973079983176,28.873265100370055
1.904218963183294,1.4812652511033384,1301,-5,19.72973079983176,28.873265100370055
1.9190278390882336,1.481250441932781,1301,-5,19.72973079983176,28.873265100370055
1.9338365669298827,1.4812356329102916,1301,-5,19.72973079983176,28.873265100370055
1.9486451467104406,1.4812208240358675,1301,-5,19.72973079983176,28.873265100370055
1.9634535784320508,1.4812060153095068,1301,-5,19.72973079983176,28.873265100370055
1.9782618620968069,1.481191206731207,1301,-5,19.72973079983176,28.873265100370055
1.9930699977067543,1.4811763983009663,1301,-5,19.72973079983176,28.873265100370055
2.007877985263894,1.4811615900187824,1301,-5,19.72973079983176,28.873265100370055
2.0226858247701895,1.4811467818846533,1301,-5,19.72973079983176,28.873265100370055
2.0374935162275642,1.481131973898577,1301,-5,19.72973079983176,28.873265100370055
2.0523010596379097,1.4811171660605515,1301,-5,19.72973079983176,28.873265100370055
2.0671084550030847,1.481102358370575,1301,-5,19.72973079983176,28.873265100370055
2.081915702324919,1.4810875508286454,1301,-5,19.72973079983176,28.873265100370055
2.0967228016052153,1.481072743434761,1301,-5,19.72973079983176,28.873265100370055
2.1115297528457524,1.48105793618892,1301,-5,19.72973079983176,28.873265100370055
2.126336556048284,1.4810431290911203,1301,-5,19.72973079983176,28.873265100370055
2.141143211214546,1.4810283221413605,1301,-5,19.72973079983176,28.873265100370055
2.1559497183462506,1.4810135153396387,1301,-5,19.72973079983176,28.873265100370055
2.170756077445096,1.480998708685953,1301,-5,19.72973079983176,28.873265100370055
2.185562288512761,1.4809839021803022,1301,-5,19.72973079983176,28.873265100370055
2.2003683515509094,1.480969095822684,1301,-5,19.72973079983176,28.873265100370055
2.2151742665611915,1.480954289613097,1301,-5,19.72973079983176,28.873265100370055
2.2299800335452447,1.4809394835515395,1301,-5,19.72973079983176,28.873265100370055
2.2447856525046945,1.4809246776380098,1301,-5,19.72973079983176,28.873265100370055
2.2595911234411528,1.4809098718725062,1301,-5,19.72973079983176,28.873265100370055
2.2743964463562247,1.4808950662550275,1301,-5,19.72973079983176,28.873265100370055
2.289201621251504,1.4808802607855716,1301,-5,19.72973079983176,28.873265100370055
2.3040066481285746,1.480865455464137,1301,-5,19.72973079983176,28.873265100370055
2.3188115269890144,1.4808506502907224,1301,-5,19.72973079983176,28.873265100370055
2.333616257834392,1.4808358452653259,1301,-5,19.72973079983176,28.873265100370055
2.3484208406662708,1.4808210403879458,1301,-5,19.72973079983176,28.873265100370055
2.363225275486207,1.480806235658581,1301,-5,19.72973079983176,28.873265100370055
2.3780295622957506,1.4807914310772297,1301,-5,19.72973079983176,28.873265100370055
2.3928337010964467,1.4807766266438902,1301,-5,19.72973079983176,28.873265100370055
2.407637691889834,1.480761822358561,1301,-5,19.72973079983176,28.873265100370055
2.4224415346774495,1.4807470182212408,1301,-5,19.72973079983176,28.873265100370055
2.4372452294608227,1.480732214231928,1301,-5,19.72973079983176,28.873265100370055
2.452048776241481,1.4807174103906207,1301,-5,19.72973079983176,28.873265100370055
2.4668521750209473,1.4807026066973177,1301,-5,19.72973079983176,28.873265100370055
2.4816554258007426,1.4806878031520174,1301,-5,19.72973079983176,28.873265100370055
2.496458528582383,1.4806729997547183,1301,-5,19.72973079983176,28.873265100370055
2.5112614833673828,1.4806581965054189,1301,-5,19.72973079983176,28.873265100370055
2.5260642901572523,1.4806433934041174,1301,-5,19.72973079983176,28.873265100370055
2.540866948953502,1.480628590450813,1301,-5,19.72973079983176,28.873265100370055
2.5556694597576364,1.4806137876455032,1301,-5,19.72973079983176,28.873265100370055
2.570471822571162,1.4805989849881873,1301,-5,19.72973079983176,28.873265100370055
2.58527403739558,1.4805841824788635,1301,-5,19.72973079983176,28.873265100370055
2.6000761042323917,1.4805693801175301,1301,-5,19.72973079983176,28.873265100370055
2.614878023083096,1.480554577904186,1301,-5,19.72973079983176,28.873265100370055
2.6296797939491903,1.4805397758388295,1301,-5,19.72973079983176,28.873265100370055
2.6444814168321713,1.480524973921459,1301,-5,19.72973079983176,28.873265100370055
2.6592828917335343,1.480510172152073,1301,-5,19.72973079983176,28.873265100370055
2.6740842186547726,1.4804953705306703,1301,-5,19.72973079983176,28.873265100370055
2.6888853975973785,1.4804805690572491,1301,-5,19.72973079983176,28.873265100370055
2.7036864285628424,1.480465767731808,1301,-5,19.72973079983176,28.873265100370055
2.7184873115526567,1.4804509665543457,1301,-5,19.72973079983176,28.873265100370055
2.733288046568311,1.4804361655248603,1301,-5,19.72973079983176,28.873265100370055
2.7480886336112937,1.4804213646433506,1301,-5,19.72973079983176,28.873265100370055
2.762889072683093,1.480406563909815,1301,-5,19.72973079983176,28.873265100370055
2.777689363785196,1.480391763324252,1301,-5,19.72973079983176,28.873265100370055
2.79248950691909,1.4803769628866603,1301,-5,19.72973079983176,28.873265100370055
2.807289502086262,1.4803621625970385,1301,-5,19.72973079983176,28.873265100370055
2.8220893492881967,1.4803473624553845,1301,-5,19.72973079983176,28.873265100370055
2.836889048526379,1.4803325624616974,1301,-5,19.72973079983176,28.873265100370055
2.8516885998022947,1.4803177626159754,1301,-5,19.72973079983176,28.873265100370055
2.8664880031174267,1.4803029629182172,1301,-5,19.72973079983176,28.873265100370055
2.8812872584732596,1.4802881633684213,1301,-5,19.72973079983176,28.873265100370055
2.896086365871278,1.4802733639665862,1301,-5,19.72973079983176,28.873265100370055
2.910885325312964,1.4802585647127102,1301,-5,19.72973079983176,28.873265100370055
2.9256841367998003,1.4802437656067922,1301,-5,19.72973079983176,28.873265100370055
2.94048280033327,1.4802289666488304,1301,-5,19.72973079983176,28.873265100370055
2.955281315914856,1.4802141678388236,1301,-5,19.72973079983176,28.873265100370055
2.970079683546038,1.4801993691767699,1301,-5,19.72973079983176,28.873265100370055
2.984877903228301,1.4801845706626682,1301,-5,19.72973079983176,28.873265100370055
2.999675974963124,1.480169772296517,1301,-5,19.72973079983176,28.873265100370055
3.0144738987519895,1.4801549740783146,1301,-5,19.72973079983176,28.873265100370055
3.0292716745963784,1.4801401760080595,1301,-5,19.72973079983176,28.873265100370055
3.044069302497771,1.4801253780857504,1301,-5,19.72973079983176,28.873265100370055
3.0588667824576503,1.4801105803113859,1301,-5,19.72973079983176,28.873265100370055
3.0736641144774937,1.4800957826849643,1301,-5,19.72973079983176,28.873265100370055
3.088461298558785,1.4800809852064842,1301,-5,19.72973079983176,28.873265100370055
3.1032583347030025,1.4800661878759442,1301,-5,19.72973079983176,28.873265100370055
3.1180552229116283,1.4800513906933426,1301,-5,19.72973079983176,28.873265100370055
3.1328519631861407,1.4800365936586781,1301,-5,19.72973079983176,28.873265100370055
3.147648555528021,1.4800217967719491,1301,-5,19.72973079983176,28.873265100370055
3.1624449999387494,1.4800070000331544,1301,-5,19.72973079983176,28.873265100370055
3.1772412964198056,1.479992203442292,1301,-5,19.72973079983176,28.873265100370055
3.1920374449726685,1.4799774069993612,1301,-5,19.72973079983176,28.873265100370055
3.2068334455988188,1.4799626107043597,1301,-5,19.72973079983176,28.873265100370055
3.221629298299736,1.4799478145572866,1301,-5,19.72973079983176,28.873265100370055
3.2364250030768997,1.47993301855814,1301,-5,19.72973079983176,28.873265100370055
3.251220559931789,1.4799182227069188,1301,-5,19.72973079983176,28.873265100370055
3.2660159688658834,1.479903427003621,1301,-5,19.72973079983176,28.873265100370055
3.2808112298806615,1.4798886314482458,1301,-5,19.72973079983176,28.873265100370055
3.2956063429776057,1.4798738360407913,1301,-5,19.72973079983176,28.873265100370055
3.3104013081581916,1.4798590407812562,1301,-5,19.72973079983176,28.873265100370055
3.3251961254239015,1.4798442456696388,1301,-5,19.72973079983176,28.873265100370055
3.339990794776212,1.4798294507059377,1301,-5,19.72973079983176,28.873265100370055
3.354785316216604,1.4798146558901515,1301,-5,19.72973079983176,28.873265100370055
3.369579689746556,1.4797998612222787,1301,-5,19.72973079983176,28.873265100370055
3.3843739153675467,1.4797850667023178,1301,-5,19.72973079983176,28.873265100370055
3.399167993081055,1.4797702723302673,1301,-5,19.72973079983176,28.873265100370055
3.413961922888561,1.4797554781061257,1301,-5,19.72973079983176,28.873265100370055
3.428755704791543,1.4797406840298917,1301,-5,19.72973079983176,28.873265100370055
3.44354933879148,1.4797258901015635,1301,-5,19.72973079983176,28.873265100370055
3.4583428248898507,1.47971109632114,1301,-5,19.72973079983176,28.873265100370055
3.473136163088134,1.4796963026886194,1301,-5,19.72973079983176,28.873265100370055
3.487929353387809,1.4796815092040003,1301,-5,19.72973079983176,28.873265100370055
3.502722395790354,1.4796667158672816,1301,-5,19.72973079983176,28.873265100370055
3.517515290297248,1.4796519226784612,1301,-5,19.72973079983176,28.873265100370055
3.5323080369099706,1.479637129637538,1301,-5,19.72973079983176,28.873265100370055
