Vout,Iout,Irradiance,Temperature,MaxVoltage,MaxPower
0.005855793694291401,1.1711699999999998,1001,10,20.824482945828052,23.955827207642624
0.017567272803706506,1.1711699999999998,1001,10,20.824482945828052,23.955827207642624
0.029278513821688824,1.1711640270893056,1001,10,20.824482945828052,23.955827207642624
0.040989474213282744,1.1711523156101962,1001,10,20.824482945828052,23.955827207642624
0.05270014007732683,1.1711406043697754,1001,10,20.824482945828052,23.955827207642624
0.06441052506918032,1.171128893410555,1001,10,20.824482945828052,23.955827207642624
0.07612064179401681,1.171117182745862,1001,10,20.824482945828052,23.955827207642624
0.08783050188736793,1.1711054723620413,1001,10,20.824482945828052,23.955827207642624
0.09954011608959919,1.1710937622464874,1001,10,20.824482945828052,23.955827207642624
0.11124949431478562,1.1710820523875651,1001,10,20.824482945828052,23.955827207642624
0.12295864571428772,1.171070342774534,1001,10,20.824482945828052,23.955827207642624
0.134667578735436,1.1710586333974797,1001,10,20.824482945828052,23.955827207642624
0.14637630117570008,1.1710469242472512,1001,10,20.824482945828052,23.955827207642624
0.15808482023269013,1.1710352153154011,1001,10,20.824482945828052,23.955827207642624
0.16979314255031083,1.1710235065941317,1001,10,20.824482945828052,23.955827207642624
0.18150127426136453,1.1710117980762456,1001,10,20.824482945828052,23.955827207642624
0.19320922102687596,1.171000089755099,1001,10,20.824482945828052,23.955827207642624
0.204916988072392,1.1709883816245588,1001,10,20.824482945828052,23.955827207642624
0.2166245802214876,1.170976673678964,1001,10,20.824482945828052,23.955827207642624
0.2283320019266943,1.1709649659130892,1001,10,20.824482945828052,23.955827207642624
0.24003925729804898,1.170953258322111,1001,10,20.824482945828052,23.955827207642624
0.25174635012944574,1.1709415509015766,1001,10,20.824482945828052,23.955827207642624
0.2634532839229607,1.1709298436473758,1001,10,20.824482945828052,23.955827207642624
0.2751600619113046,1.1709181365557153,1001,10,20.824482945828052,23.955827207642624
0.28686668707854834,1.1709064296230924,1001,10,20.824482945828052,23.955827207642624
0.2985731621792539,1.170894722846275,1001,10,20.824482945828052,23.955827207642624
0.3102794897561328,1.1708830162222783,1001,10,20.824482945828052,23.955827207642624
0.32198567215634644,1.1708713097483483,1001,10,20.824482945828052,23.955827207642624
0.3336917115465519,1.170859603421942,1001,10,20.824482945828052,23.955827207642624
0.34539760992679036,1.1708478972407126,1001,10,20.824482945828052,23.955827207642624
0.35710336914330654,1.170836191202493,1001,10,20.824482945828052,23.955827207642624
0.3688089909003823,1.1708244853052834,1001,10,20.824482945828052,23.955827207642624
0.38051447677125955,1.1708127795472374,1001,10,20.824482945828052,23.955827207642624
0.39221982820822215,1.170801073926651,1001,10,20.824482945828052,23.955827207642624
0.40392504655190326,1.1707893684419506,1001,10,20.824482945828052,23.955827207642624
0.4156301330398756,1.1707776630916842,1001,10,20.824482945828052,23.955827207642624
0.42733508881458093,1.170765957874511,1001,10,20.824482945828052,23.955827207642624
0.43903991493065,1.1707542527891937,1001,10,20.824482945828052,23.955827207642624
0.45074461236165836,1.1707425478345894,1001,10,20.824482945828052,23.955827207642624
0.46244918200636326,1.170730843009644,1001,10,20.824482945828052,23.955827207642624
0.47415362469446015,1.1707191383133835,1001,10,20.824482945828052,23.955827207642624
0.48585794119189657,1.1707074337449093,1001,10,20.824482945828052,23.955827207642624
0.49756213220577655,1.1706957293033915,1001,10,20.824482945828052,23.955827207642624
0.5092661983888885,1.1706840249880646,1001,10,20.824482945828052,23.955827207642624
0.5209701403438846,1.170672320798221,1001,10,20.824482945828052,23.955827207642624
0.5326739586271375,1.1706606167332085,1001,10,20.824482945828052,23.955827207642624
0.544377653752302,1.1706489127924238,1001,10,20.824482945828052,23.955827207642624
0.5560812261936015,1.170637208975311,1001,10,20.824482945828052,23.955827207642624
0.5677846763888618,1.1706255052813563,1001,10,20.824482945828052,23.955827207642624
0.5794880047423117,1.1706138017100853,1001,10,20.824482945828052,23.955827207642624
0.591191211627168,1.1706020982610605,1001,10,20.824482945828052,23.955827207642624
0.6028942973880216,1.1705903949338774,1001,10,20.824482945828052,23.955827207642624
0.6145972623430401,1.1705786917281629,1001,10,20.824482945828052,23.955827207642624
0.6263001067860008,1.1705669886435723,1001,10,20.824482945828052,23.955827207642624
0.6380028309881669,1.1705552856797876,1001,10,20.824482945828052,23.955827207642624
0.6497054352000209,1.170543582836515,1001,10,20.824482945828052,23.955827207642624
0.661407919652862,1.1705318801134832,1001,10,20.824482945828052,23.955827207642624
0.6731102845602835,1.1705201775104415,1001,10,20.824482945828052,23.955827207642624
0.6848125301195342,1.170508475027159,1001,10,20.824482945828052,23.955827207642624
0.6965146565127762,1.170496772663422,1001,10,20.824482945828052,23.955827207642624
0.7082166639082458,1.1704850704190328,1001,10,20.824482945828052,23.955827207642624
0.7199185524613249,1.1704733682938098,1001,10,20.824482945828052,23.955827207642624
0.73162032231553,1.1704616662875846,1001,10,20.824482945828052,23.955827207642624
0.7433219736034257,1.1704499644002018,1001,10,20.824482945828052,23.955827207642624
0.7550235064474662,1.1704382626315177,1001,10,20.824482945828052,23.955827207642624
0.7667249209607742,1.1704265609814,1001,10,20.824482945828052,23.955827207642624
0.7784262172478581,1.1704148594497261,1001,10,20.824482945828052,23.955827207642624
0.790127395405276,1.170403158036383,1001,10,20.824482945828052,23.955827207642624
0.8018284555222461,1.170391456741266,1001,10,20.824482945828052,23.955827207642624
0.8135293976812121,1.1703797555642788,1001,10,20.824482945828052,23.955827207642624
0.8252302219583644,1.1703680545053319,1001,10,20.824482945828052,23.955827207642624
0.836930928424121,1.170356353564343,1001,10,20.824482945828052,23.955827207642624
0.848631517143572,1.170344652741236,1001,10,20.824482945828052,23.955827207642624
0.8603319881768894,1.1703329520359405,1001,10,20.824482945828052,23.955827207642624
0.8720323415797051,1.170321251448391,1001,10,20.824482945828052,23.955827207642624
0.883732577403461,1.1703095509785277,1001,10,20.824482945828052,23.955827207642624
0.8954326956957304,1.1702978506262949,1001,10,20.824482945828052,23.955827207642624
0.9071326965005169,1.1702861503916413,1001,10,20.824482945828052,23.955827207642624
0.9188325798585277,1.170274450274519,1001,10,20.824482945828052,23.955827207642624
0.9305323458074284,1.1702627502748844,1001,10,20.824482945828052,23.955827207642624
0.9422319943820762,1.1702510503926962,1001,10,20.824482945828052,23.955827207642624
0.953931525614736,1.1702393506279174,1001,10,20.824482945828052,23.955827207642624
0.9656309395352813,1.1702276509805127,1001,10,20.824482945828052,23.955827207642624
0.977330236171376,1.17021595145045,1001,10,20.824482945828052,23.955827207642624
0.9890294155486458,1.1702042520376994,1001,10,20.824482945828052,23.955827207642624
1.0007284776908345,1.1701925527422332,1001,10,20.824482945828052,23.955827207642624
1.0124274226199492,1.170180853564026,1001,10,20.824482945828052,23.955827207642624
1.0241262503563937,1.1701691545030537,1001,10,20.824482945828052,23.955827207642624
1.0358249609190917,1.1701574555592946,1001,10,20.824482945828052,23.955827207642624
1.047523554325601,1.170145756732728,1001,10,20.824482945828052,23.955827207642624
1.0592220305922182,1.1701340580233353,1001,10,20.824482945828052,23.955827207642624
1.0709203897340764,1.1701223594310985,1001,10,20.824482945828052,23.955827207642624
1.0826186317652338,1.1701106609560017,1001,10,20.824482945828052,23.955827207642624
1.0943167566987573,1.1700989625980298,1001,10,20.824482945828052,23.955827207642624
1.1060147645467981,1.1700872643571685,1001,10,20.824482945828052,23.955827207642624
1.1177126553206624,1.1700755662334048,1001,10,20.824482945828052,23.955827207642624
1.129410429030877,1.1700638682267266,1001,10,20.824482945828052,23.955827207642624
1.1411080856872478,1.1700521703371225,1001,10,20.824482945828052,23.955827207642624
1.1528056252989163,1.170040472564582,1001,10,20.824482945828052,23.955827207642624
1.1645030478744114,1.1700287749090956,1001,10,20.824482945828052,23.955827207642624
1.1762003534216952,1.1700170773706537,1001,10,20.824482945828052,23.955827207642624
1.1878975419482074,1.170005379949248,1001,10,20.824482945828052,23.955827207642624
1.1995946134609048,1.1699936826448705,1001,10,20.824482945828052,23.955827207642624
1.2112915679662988,1.1699819854575135,1001,10,20.824482945828052,23.955827207642624
1.22298840547049,1.1699702883871705,1001,10,20.824482945828052,23.955827207642624
1.2346851259792002,1.169958591433835,1001,10,20.824482945828052,23.955827207642624
1.2463817294977997,1.1699468945975005,1001,10,20.824482945828052,23.955827207642624
1.258078216031336,1.1699351978781616,1001,10,20.824482945828052,23.955827207642624
1.2697745855845588,1.1699235012758125,1001,10,20.824482945828052,23.955827207642624
1.2814708381619415,1.1699118047904487,1001,10,20.824482945828052,23.955827207642624
1.2931669737677038,1.169900108422065,1001,10,20.824482945828052,23.955827207642624
1.30486299240583,1.1698884121706574,1001,10,20.824482945828052,23.955827207642624
1.3165588940800883,1.1698767160362213,1001,10,20.824482945828052,23.955827207642624
1.3282546787940468,1.1698650200187528,1001,10,20.824482945828052,23.955827207642624
1.3399503465510894,1.169853324118248,1001,10,20.824482945828052,23.955827207642624
1.3516458973544287,1.1698416283347037,1001,10,20.824482945828052,23.955827207642624
1.3633413312071208,1.1698299326681163,1001,10,20.824482945828052,23.955827207642624
1.3750366481120762,1.1698182371184827,1001,10,20.824482945828052,23.955827207642624
1.3867318480720712,1.1698065416857995,1001,10,20.824482945828052,23.955827207642624
1.3984269310897597,1.169794846370064,1001,10,20.824482945828052,23.955827207642624
1.4101218971676792,1.1697831511712735,1001,10,20.824482945828052,23.955827207642624
1.421816746308264,1.1697714560894255,1001,10,20.824482945828052,23.955827207642624
1.4335114785138494,1.169759761124517,1001,10,20.824482945828052,23.955827207642624
1.4452060937866822,1.169748066276546,1001,10,20.824482945828052,23.955827207642624
1.456900592128925,1.1697363715455098,1001,10,20.824482945828052,23.955827207642624
1.468594973542665,1.1697246769314065,1001,10,20.824482945828052,23.955827207642624
1.4802892380299186,1.1697129824342338,1001,10,20.824482945828052,23.955827207642624
1.4919833855926368,1.1697012880539894,1001,10,20.824482945828052,23.955827207642624
1.5036774162327096,1.1696895937906717,1001,10,20.824482945828052,23.955827207642624
1.5153713299519729,1.1696778996442785,1001,10,20.824482945828052,23.955827207642624
1.5270651267522104,1.1696662056148077,1001,10,20.824482945828052,23.955827207642624
1.5387588066351585,1.1696545117022579,1001,10,20.824482945828052,23.955827207642624
1.550452369602511,1.169642817906627,1001,10,20.824482945828052,23.955827207642624
1.5621458156559196,1.1696311242279136,1001,10,20.824482945828052,23.955827207642624
1.5738391447969997,1.1696194306661156,1001,10,20.824482945828052,23.955827207642624
1.5855323570273323,1.1696077372212315,1001,10,20.824482945828052,23.955827207642624
1.5972254523484668,1.1695960438932598,1001,10,20.824482945828052,23.955827207642624
1.6089184307619235,1.1695843506821988,1001,10,20.824482945828052,23.955827207642624
1.6206112922691944,1.169572657588047,1001,10,20.824482945828052,23.955827207642624
1.6323040368717487,1.1695609646108027,1001,10,20.824482945828052,23.955827207642624
1.6439966645710304,1.169549271750465,1001,10,20.824482945828052,23.955827207642624
1.6556891753684633,1.1695375790070317,1001,10,20.824482945828052,23.955827207642624
1.6673815692654514,1.1695258863805016,1001,10,20.824482945828052,23.955827207642624
1.6790738462633814,1.1695141938708735,1001,10,20.824482945828052,23.955827207642624
1.6907660063636214,1.1695025014781457,1001,10,20.824482945828052,23.955827207642624
1.7024580495675259,1.169490809202317,1001,10,20.824482945828052,23.955827207642624
1.7141499758764343,1.169479117043386,1001,10,20.824482945828052,23.955827207642624
1.7258417852916725,1.1694674250013515,1001,10,20.824482945828052,23.955827207642624
1.7375334778145552,1.1694557330762116,1001,10,20.824482945828052,23.955827207642624
1.7492250534463858,1.1694440412679656,1001,10,20.824482945828052,23.955827207642624
1.7609165121884558,1.169432349576612,1001,10,20.824482945828052,23.955827207642624
1.7726078540420491,1.1694206580021493,1001,10,20.824482945828052,23.955827207642624
1.7842990790084399,1.1694089665445764,1001,10,20.824482945828052,23.955827207642624
1.795990187088894,1.169397275203892,1001,10,20.824482945828052,23.955827207642624
1.80768117828467,1.1693855839800946,1001,10,20.824482945828052,23.955827207642624
1.81937205259702,1.1693738928731834,1001,10,20.824482945828052,23.955827207642624
1.8310628100271893,1.1693622018831566,1001,10,20.824482945828052,23.955827207642624
1.8427534505764167,1.1693505110100135,1001,10,20.824482945828052,23.955827207642624
1.8544439742459367,1.1693388202537525,1001,10,20.824482945828052,23.955827207642624
1.8661343810369777,1.1693271296143724,1001,10,20.824482945828052,23.955827207642624
1.8778246709507638,1.1693154390918719,1001,10,20.824482945828052,23.955827207642624
1.8895148439885152,1.1693037486862499,1001,10,20.824482945828052,23.955827207642624
1.9012049001514477,1.169292058397505,1001,10,20.824482945828052,23.955827207642624
1.912894839440774,1.1692803682256365,1001,10,20.824482945828052,23.955827207642624
1.9245846618577027,1.1692686781706425,1001,10,20.824482945828052,23.955827207642624
1.936274367403439,1.1692569882325223,1001,10,20.824482945828052,23.955827207642624
1.9479639560791866,1.1692452984112742,1001,10,20.824482945828052,23.955827207642624
1.9596534278861453,1.1692336087068975,1001,10,20.824482945828052,23.955827207642624
1.9713427828255128,1.1692219191193909,1001,10,20.824482945828052,23.955827207642624
1.9830320208984848,1.1692102296487528,1001,10,20.824482945828052,23.955827207642624
1.9947211421062545,1.1691985402949825,1001,10,20.824482945828052,23.955827207642624
2.0064101464500137,1.1691868510580783,1001,10,20.824482945828052,23.955827207642624
2.018099033930952,1.1691751619380395,1001,10,20.824482945828052,23.955827207642624
2.029787804550257,1.1691634729348648,1001,10,20.824482945828052,23.955827207642624
2.041476458309116,1.1691517840485526,1001,10,20.824482945828052,23.955827207642624
2.053164995208713,1.1691400952791022,1001,10,20.824482945828052,23.955827207642624
2.0648534152502322,1.1691284066265124,1001,10,20.824482945828052,23.955827207642624
2.076541718434857,1.1691167180907815,1001,10,20.824482945828052,23.955827207642624
2.088229904763768,1.169105029671909,1001,10,20.824482945828052,23.955827207642624
2.099917974238146,1.1690933413698932,1001,10,20.824482945828052,23.955827207642624
2.1116059268591703,1.169081653184733,1001,10,20.824482945828052,23.955827207642624
2.1232937626280197,1.1690699651164276,1001,10,20.824482945828052,23.955827207642624
2.1349814815458714,1.1690582771649753,1001,10,20.824482945828052,23.955827207642624
2.1466690836139035,1.1690465893303752,1001,10,20.824482945828052,23.955827207642624
2.158356568833291,1.1690349016126262,1001,10,20.824482945828052,23.955827207642624
2.170043937205212,1.169023214011727,1001,10,20.824482945828052,23.955827207642624
2.181731188730839,1.1690115265276764,1001,10,20.824482945828052,23.955827207642624
2.193418323411348,1.1689998391604732,1001,10,20.824482945828052,23.955827207642624
2.2051053412479127,1.1689881519101164,1001,10,20.824482945828052,23.955827207642624
2.216792242241707,1.1689764647766046,1001,10,20.824482945828052,23.955827207642624
2.2284790263939036,1.1689647777599368,1001,10,20.824482945828052,23.955827207642624
2.2401656937056758,1.1689530908601116,1001,10,20.824482945828052,23.955827207642624
2.2518522441781963,1.1689414040771282,1001,10,20.824482945828052,23.955827207642624
2.2635386778126367,1.1689297174109852,1001,10,20.824482945828052,23.955827207642624
2.2752249946101686,1.1689180308616811,1001,10,20.824482945828052,23.955827207642624
2.286911194571964,1.1689063444292154,1001,10,20.824482945828052,23.955827207642624
2.298597277699193,1.1688946581135866,1001,10,20.824482945828052,23.955827207642624
2.3102832439930276,1.1688829719147935,1001,10,20.824482945828052,23.955827207642624
2.3219690934546384,1.1688712858328347,1001,10,20.824482945828052,23.955827207642624
2.333654826085196,1.1688595998677096,1001,10,20.824482945828052,23.955827207642624
2.3453404418858703,1.1688479140194166,1001,10,20.824482945828052,23.955827207642624
2.357025940857832,1.1688362282879547,1001,10,20.824482945828052,23.955827207642624
2.3687113230022496,1.1688245426733226,1001,10,20.824482945828052,23.955827207642624
2.380396588320295,1.1688128571755192,1001,10,20.824482945828052,23.955827207642624
2.392081736813136,1.1688011717945432,1001,10,20.824482945828052,23.955827207642624
2.403766768481943,1.1687894865303938,1001,10,20.824482945828052,23.955827207642624
2.4154516833278854,1.1687778013830694,1001,10,20.824482945828052,23.955827207642624
2.4271364813521323,1.1687661163525693,1001,10,20.824482945828052,23.955827207642624
2.4388211625558522,1.1687544314388918,1001,10,20.824482945828052,23.955827207642624
2.4505057269402153,1.1687427466420361,1001,10,20.824482945828052,23.955827207642624
2.46219017450639,1.1687310619620008,1001,10,20.824482945828052,23.955827207642624
2.4738745052555444,1.168719377398785,1001,10,20.824482945828052,23.955827207642624
2.485558719188848,1.1687076929523872,1001,10,20.824482945828052,23.955827207642624
2.4972428163074705,1.1686960086228066,1001,10,20.824482945828052,23.955827207642624
2.508926796612579,1.1686843244100418,1001,10,20.824482945828052,23.955827207642624
2.5206106601053415,1.1686726403140915,1001,10,20.824482945828052,23.955827207642624
2.5322944067869284,1.1686609563349548,1001,10,20.824482945828052,23.955827207642624
2.5439780366585074,1.1686492724726305,1001,10,20.824482945828052,23.955827207642624
2.555661549721246,1.1686375887271172,1001,10,20.824482945828052,23.955827207642624
2.5673449459763136,1.168625905098414,1001,10,20.824482945828052,23.955827207642624
2.5790282254248775,1.1686142215865196,1001,10,20.824482945828052,23.955827207642624
2.5907113880681067,1.168602538191433,1001,10,20.824482945828052,23.955827207642624
2.602394433907169,1.1685908549131527,1001,10,20.824482945828052,23.955827207642624
2.6140773629432332,1.1685791717516778,1001,10,20.824482945828052,23.955827207642624
2.6257601751774664,1.1685674887070072,1001,10,20.824482945828052,23.955827207642624
2.6374428706110367,1.1685558057791394,1001,10,20.824482945828052,23.955827207642624
2.649125449245113,1.1685441229680735,1001,10,20.824482945828052,23.955827207642624
2.6608079110808625,1.1685324402738082,1001,10,20.824482945828052,23.955827207642624
2.672490256119454,1.1685207576963423,1001,10,20.824482945828052,23.955827207642624
2.6841724843620547,1.168509075235675,1001,10,20.824482945828052,23.955827207642624
2.6958545958098323,1.1684973928918045,1001,10,20.824482945828052,23.955827207642624
2.7075365904639543,1.1684857106647302,1001,10,20.824482945828052,23.955827207642624
2.7192184683255896,1.1684740285544506,1001,10,20.824482945828052,23.955827207642624
2.730900229395906,1.1684623465609647,1001,10,20.824482945828052,23.955827207642624
2.74258187367607,1.1684506646842714,1001,10,20.824482945828052,23.955827207642624
