Vout,Iout,Irradiance,Temperature,MaxVoltage,MaxPower
6.1499408659532124e-06,0.00123,1,40,0.22291989863592968,0.00022450266063934449
1.8449708879632337e-05,0.00123,1,40,0.22291989863592968,0.00022450266063934449
3.0749226842112816e-05,0.001229993727059134,1,40,0.22291989863592968,0.00022450266063934449
4.3048450081830806e-05,0.0012299814272911202,1,40,0.22291989863592968,0.00022450266063934449
5.534736399934426e-05,0.001229969127773785,1,40,0.22291989863592968,0.00022450266063934449
6.764598293594593e-05,0.0012299568285517755,1,40,0.22291989863592968,0.00022450266063934449
7.994432012999026e-05,0.0012299445296390878,1,40,0.22291989863592968,0.00022450266063934449
9.224238780148274e-05,0.0012299322310213813,1,40,0.22291989863592968,0.00022450266063934449
0.00010454019723029709,0.001229919932685417,1,40,0.22291989863592968,0.00022450266063934449
0.00011683775882851023,0.0012299076346189753,1,40,0.22291989863592968,0.00022450266063934449
0.00012913508220717222,0.0012298953368107765,1,40,0.22291989863592968,0.00022450266063934449
0.0001414321762379384,0.001229883039250408,1,40,0.22291989863592968,0.00022450266063934449
0.00015372904910995942,0.0012298707419282592,1,40,0.22291989863592968,0.00022450266063934449
0.00016602570838239447,0.001229858444835458,1,40,0.22291989863592968,0.00022450266063934449
0.00017832216103288371,0.0012298461479638158,1,40,0.22291989863592968,0.00022450266063934449
0.00019061841350229128,0.0012298338513057731,1,40,0.22291989863592968,0.00022450266063934449
0.0002029144717360055,0.0012298215548543522,1,40,0.22291989863592968,0.00022450266063934449
0.00021521034122206189,0.0012298092586031126,1,40,0.22291989863592968,0.00022450266063934449
0.0002275060270263324,0.0012297969625461086,1,40,0.22291989863592968,0.00022450266063934449
0.00023980153382500746,0.001229784666677852,1,40,0.22291989863592968,0.00022450266063934449
0.00025209686593457854,0.0012297723709932774,1,40,0.22291989863592968,0.00022450266063934449
0.00026439202733951375,0.0012297600754877082,1,40,0.22291989863592968,0.00022450266063934449
0.000276687021717805,0.0012297477801568282,1,40,0.22291989863592968,0.00022450266063934449
0.000288981852464548,0.001229735484996653,1,40,0.22291989863592968,0.00022450266063934449
0.00030127652271370897,0.001229723190003504,1,40,0.22291989863592968,0.00022450266063934449
0.0003135710353582164,0.001229710895173987,1,40,0.22291989863592968,0.00022450266063934449
0.00032586539306850705,0.0012296986005049674,1,40,0.22291989863592968,0.00022450266063934449
0.00033815959830964433,0.0012296863059935523,1,40,0.22291989863592968,0.00022450266063934449
0.0003504536533571205,0.0012296740116370713,1,40,0.22291989863592968,0.00022450266063934449
0.00036274756031144244,0.0012296617174330597,1,40,0.22291989863592968,0.00022450266063934449
0.0003750413211115952,0.0012296494233792416,1,40,0.22291989863592968,0.00022450266063934449
0.00038733493754746976,0.0012296371294735168,1,40,0.22291989863592968,0.00022450266063934449
0.0003996284112713347,0.001229624835713946,1,40,0.22291989863592968,0.00022450266063934449
0.00041192174380842516,0.0012296125420987395,1,40,0.22291989863592968,0.00022450266063934449
0.0004242149365667163,0.001229600248626245,1,40,0.22291989863592968,0.00022450266063934449
0.0004365079908459464,0.0012295879552949374,1,40,0.22291989863592968,0.00022450266063934449
0.0004488009078459443,0.0012295756621034085,1,40,0.22291989863592968,0.00022450266063934449
0.0004610936886743167,0.0012295633690503586,1,40,0.22291989863592968,0.00022450266063934449
0.0004733863343535436,0.0012295510761345877,1,40,0.22291989863592968,0.00022450266063934449
0.00048567884582752854,0.0012295387833549888,1,40,0.22291989863592968,0.00022450266063934449
0.0004979712239676442,0.0012295264907105387,1,40,0.22291989863592968,0.00022450266063934449
0.0005102634695783129,0.0012295141982002942,1,40,0.22291989863592968,0.00022450266063934449
0.0005225555834021576,0.0012295019058233833,1,40,0.22291989863592968,0.00022450266063934449
0.0005348475661247579,0.001229489613579002,1,40,0.22291989863592968,0.00022450266063934449
0.0005471394183790379,0.0012294773214664072,1,40,0.22291989863592968,0.00022450266063934449
0.0005594311407493181,0.0012294650294849138,1,40,0.22291989863592968,0.00022450266063934449
0.0005717227337750551,0.0012294527376338889,1,40,0.22291989863592968,0.00022450266063934449
0.0005840141979542934,0.0012294404459127477,1,40,0.22291989863592968,0.00022450266063934449
0.0005963055337468513,0.001229428154320951,1,40,0.22291989863592968,0.00022450266063934449
0.0006085967415772633,0.0012294158628580012,1,40,0.22291989863592968,0.00022450266063934449
0.000620887821837493,0.0012294035715234377,1,40,0.22291989863592968,0.00022450266063934449
0.000633178774889441,0.0012293912803168364,1,40,0.22291989863592968,0.00022450266063934449
0.000645469601067257,0.0012293789892378053,1,40,0.22291989863592968,0.00022450266063934449
0.0006577603006794751,0.0012293666982859826,1,40,0.22291989863592968,0.00022450266063934449
0.000670050874010985,0.0012293544074610339,1,40,0.22291989863592968,0.00022450266063934449
0.0006823413213248508,0.0012293421167626506,1,40,0.22291989863592968,0.00022450266063934449
0.000694631642863991,0.0012293298261905482,1,40,0.22291989863592968,0.00022450266063934449
0.0007069218388527274,0.0012293175357444635,1,40,0.22291989863592968,0.00022450266063934449
0.0007192119094982174,0.0012293052454241534,1,40,0.22291989863592968,0.00022450266063934449
0.0007315018549917731,0.0012292929552293937,1,40,0.22291989863592968,0.00022450266063934449
0.0007437916755100818,0.0012292806651599771,1,40,0.22291989863592968,0.00022450266063934449
0.0007560813712163305,0.0012292683752157126,1,40,0.22291989863592968,0.00022450266063934449
0.000768370942261245,0.0012292560853964234,1,40,0.22291989863592968,0.00022450266063934449
0.0007806603887840484,0.001229243795701946,1,40,0.22291989863592968,0.00022450266063934449
0.0007929497109133462,0.0012292315061321302,1,40,0.22291989863592968,0.00022450266063934449
0.0008052389087679435,0.0012292192166868364,1,40,0.22291989863592968,0.00022450266063934449
0.0008175279824575986,0.001229206927365936,1,40,0.22291989863592968,0.00022450266063934449
0.0008298169320837195,0.0012291946381693104,1,40,0.22291989863592968,0.00022450266063934449
0.000842105757740006,0.0012291823490968496,1,40,0.22291989863592968,0.00022450266063934449
0.0008543944595130435,0.0012291700601484525,1,40,0.22291989863592968,0.00022450266063934449
0.0008666830374828491,0.001229157771324025,1,40,0.22291989863592968,0.00022450266063934449
0.0008789714917233783,0.001229145482623481,1,40,0.22291989863592968,0.00022450266063934449
0.0008912598223029907,0.00122913319404674,1,40,0.22291989863592968,0.00022450266063934449
0.0009035480292848811,0.0012291209055937283,1,40,0.22291989863592968,0.00022450266063934449
0.0009158361127274753,0.0012291086172643777,1,40,0.22291989863592968,0.00022450266063934449
0.0009281240726847997,0.0012290963290586246,1,40,0.22291989863592968,0.00022450266063934449
0.0009404119092068173,0.0012290840409764107,1,40,0.22291989863592968,0.00022450266063934449
0.000952699622339742,0.0012290717530176823,1,40,0.22291989863592968,0.00022450266063934449
0.0009649872121263258,0.0012290594651823891,1,40,0.22291989863592968,0.00022450266063934449
0.0009772746786061261,0.001229047177470485,1,40,0.22291989863592968,0.00022450266063934449
0.0009895620218157513,0.0012290348898819272,1,40,0.22291989863592968,0.00022450266063934449
0.0010018492417890876,0.0012290226024166762,1,40,0.22291989863592968,0.00022450266063934449
0.0010141363385575074,0.0012290103150746953,1,40,0.22291989863592968,0.00022450266063934449
0.001026423312150066,0.0012289980278559506,1,40,0.22291989863592968,0.00022450266063934449
0.001038710162593675,0.001228985740760411,1,40,0.22291989863592968,0.00022450266063934449
0.0010509968899132718,0.001228973453788047,1,40,0.22291989863592968,0.00022450266063934449
0.0010632834941319688,0.0012289611669388323,1,40,0.22291989863592968,0.00022450266063934449
0.0010755699752711943,0.0012289488802127413,1,40,0.22291989863592968,0.00022450266063934449
0.0010878563333508225,0.0012289365936097513,1,40,0.22291989863592968,0.00022450266063934449
0.0011001425683892939,0.0012289243071298408,1,40,0.22291989863592968,0.00022450266063934449
0.0011124286804037233,0.0012289120207729899,1,40,0.22291989863592968,0.00022450266063934449
0.0011247146694100037,0.00122889973453918,1,40,0.22291989863592968,0.00022450266063934449
0.0011370005354229002,0.0012288874484283941,1,40,0.22291989863592968,0.00022450266063934449
0.0011492862784561351,0.0012288751624406164,1,40,0.22291989863592968,0.00022450266063934449
0.0011615718985224705,0.0012288628765758322,1,40,0.22291989863592968,0.00022450266063934449
0.0011738573956337809,0.0012288505908340276,1,40,0.22291989863592968,0.00022450266063934449
0.0011861427698011207,0.0012288383052151898,1,40,0.22291989863592968,0.00022450266063934449
0.0011984280210347894,0.001228826019719307,1,40,0.22291989863592968,0.00022450266063934449
0.0012107131493443882,0.0012288137343463683,1,40,0.22291989863592968,0.00022450266063934449
0.0012229981547388733,0.0012288014490963632,1,40,0.22291989863592968,0.00022450266063934449
0.0012352830372266072,0.0012287891639692823,1,40,0.22291989863592968,0.00022450266063934449
0.0012475677968154027,0.0012287768789651162,1,40,0.22291989863592968,0.00022450266063934449
0.0012598524335125667,0.001228764594083857,1,40,0.22291989863592968,0.00022450266063934449
0.0012721369473249378,0.0012287523093254967,1,40,0.22291989863592968,0.00022450266063934449
0.0012844213382589226,0.001228740024690028,1,40,0.22291989863592968,0.00022450266063934449
0.0012967056063205305,0.001228727740177444,1,40,0.22291989863592968,0.00022450266063934449
0.0013089897515154015,0.0012287154557877385,1,40,0.22291989863592968,0.00022450266063934449
0.0013212737738488372,0.0012287031715209054,1,40,0.22291989863592968,0.00022450266063934449
0.0013335576733258254,0.001228690887376939,1,40,0.22291989863592968,0.00022450266063934449
0.0013458414499510642,0.001228678603355834,1,40,0.22291989863592968,0.00022450266063934449
0.0013581251037289848,0.0012286663194575854,1,40,0.22291989863592968,0.00022450266063934449
0.0013704086346637723,0.0012286540356821886,1,40,0.22291989863592968,0.00022450266063934449
0.0013826920427593846,0.001228641752029639,1,40,0.22291989863592968,0.00022450266063934449
0.001394975328019568,0.0012286294684999326,1,40,0.22291989863592968,0.00022450266063934449
0.0014072584904478767,0.0012286171850930654,1,40,0.22291989863592968,0.00022450266063934449
0.0014195415300476849,0.0012286049018090336,1,40,0.22291989863592968,0.00022450266063934449
0.0014318244468222018,0.0012285926186478336,1,40,0.22291989863592968,0.00022450266063934449
0.0014441072407744848,0.001228580335609462,1,40,0.22291989863592968,0.00022450266063934449
0.0014563899119074495,0.0012285680526939158,1,40,0.22291989863592968,0.00022450266063934449
0.0014686724602238823,0.001228555769901192,1,40,0.22291989863592968,0.00022450266063934449
0.001480954885726449,0.0012285434872312873,1,40,0.22291989863592968,0.00022450266063934449
0.0014932371884177056,0.001228531204684199,1,40,0.22291989863592968,0.00022450266063934449
0.0015055193683001056,0.0012285189222599247,1,40,0.22291989863592968,0.00022450266063934449
0.0015178014253760073,0.0012285066399584617,1,40,0.22291989863592968,0.00022450266063934449
0.0015300833596476834,0.0012284943577798076,1,40,0.22291989863592968,0.00022450266063934449
0.0015423651711173254,0.00122848207572396,1,40,0.22291989863592968,0.00022450266063934449
0.00155464685978705,0.0012284697937909165,1,40,0.22291989863592968,0.00022450266063934449
0.0015669284256589074,0.0012284575119806752,1,40,0.22291989863592968,0.00022450266063934449
0.0015792098687348822,0.0012284452302932336,1,40,0.22291989863592968,0.00022450266063934449
0.001591491189016903,0.0012284329487285898,1,40,0.22291989863592968,0.00022450266063934449
0.0016037723865068422,0.001228420667286742,1,40,0.22291989863592968,0.00022450266063934449
0.0016160534612065243,0.0012284083859676882,1,40,0.22291989863592968,0.00022450266063934449
0.0016283344131177268,0.0012283961047714264,1,40,0.22291989863592968,0.00022450266063934449
0.001640615242242186,0.0012283838236979549,1,40,0.22291989863592968,0.00022450266063934449
0.0016528959485815973,0.0012283715427472718,1,40,0.22291989863592968,0.00022450266063934449
0.001665176532137622,0.0012283592619193753,1,40,0.22291989863592968,0.00022450266063934449
0.0016774569929118867,0.001228346981214264,1,40,0.22291989863592968,0.00022450266063934449
0.0016897373309059881,0.0012283347006319361,1,40,0.22291989863592968,0.00022450266063934449
0.0017020175461214934,0.00122832242017239,1,40,0.22291989863592968,0.00022450266063934449
0.0017142976385599454,0.001228310139835624,1,40,0.22291989863592968,0.00022450266063934449
0.0017265776082228607,0.0012282978596216364,1,40,0.22291989863592968,0.00022450266063934449
0.0017388574551117349,0.001228285579530426,1,40,0.22291989863592968,0.00022450266063934449
0.0017511371792280422,0.001228273299561991,1,40,0.22291989863592968,0.00022450266063934449
0.0017634167805732385,0.0012282610197163304,1,40,0.22291989863592968,0.00022450266063934449
0.0017756962591487613,0.0012282487399934419,1,40,0.22291989863592968,0.00022450266063934449
0.0017879756149560334,0.0012282364603933248,1,40,0.22291989863592968,0.00022450266063934449
0.0018002548479964606,0.0012282241809159773,1,40,0.22291989863592968,0.00022450266063934449
0.0018125339582714362,0.001228211901561398,1,40,0.22291989863592968,0.00022450266063934449
0.0018248129457823403,0.0012281996223295853,1,40,0.22291989863592968,0.00022450266063934449
0.0018370918105305417,0.0012281873432205383,1,40,0.22291989863592968,0.00022450266063934449
0.0018493705525173979,0.0012281750642342555,1,40,0.22291989863592968,0.00022450266063934449
0.0018616491717442561,0.0012281627853707351,1,40,0.22291989863592968,0.00022450266063934449
0.0018739276682124553,0.0012281505066299762,1,40,0.22291989863592968,0.00022450266063934449
0.0018862060419233245,0.0012281382280119773,1,40,0.22291989863592968,0.00022450266063934449
0.0018984842928781857,0.0012281259495167368,1,40,0.22291989863592968,0.00022450266063934449
0.0019107624210783533,0.0012281136711442537,1,40,0.22291989863592968,0.00022450266063934449
0.0019230404265251355,0.001228101392894527,1,40,0.22291989863592968,0.00022450266063934449
0.0019353183092198337,0.0012280891147675545,1,40,0.22291989863592968,0.00022450266063934449
0.0019475960691637442,0.0012280768367633355,1,40,0.22291989863592968,0.00022450266063934449
0.0019598737063581573,0.0012280645588818686,1,40,0.22291989863592968,0.00022450266063934449
0.0019721512208043575,0.0012280522811231526,1,40,0.22291989863592968,0.00022450266063934449
0.001984428612503628,0.001228040003487186,1,40,0.22291989863592968,0.00022450266063934449
0.001996705881457245,0.0012280277259739676,1,40,0.22291989863592968,0.00022450266063934449
0.002008983027666481,0.001228015448583496,1,40,0.22291989863592968,0.00022450266063934449
0.002021260051132606,0.00122800317131577,1,40,0.22291989863592968,0.00022450266063934449
0.002033536951856887,0.0012279908941707886,1,40,0.22291989863592968,0.00022450266063934449
0.0020458137298405865,0.0012279786171485502,1,40,0.22291989863592968,0.00022450266063934449
0.0020580903850849655,0.0012279663402490536,1,40,0.22291989863592968,0.00022450266063934449
0.002070366917591281,0.0012279540634722976,1,40,0.22291989863592968,0.00022450266063934449
0.00208264332736079,0.001227941786818281,1,40,0.22291989863592968,0.00022450266063934449
0.002094919614394745,0.0012279295102870023,1,40,0.22291989863592968,0.00022450266063934449
0.0021071957786943977,0.0012279172338784605,1,40,0.22291989863592968,0.00022450266063934449
0.002119471820260997,0.0012279049575926542,1,40,0.22291989863592968,0.00022450266063934449
0.00213174773909579,0.0012278926814295822,1,40,0.22291989863592968,0.00022450266063934449
0.0021440235352000246,0.0012278804053892432,1,40,0.22291989863592968,0.00022450266063934449
0.002156299208574944,0.0012278681294716361,1,40,0.22291989863592968,0.00022450266063934449
0.0021685747592217926,0.0012278558536767594,1,40,0.22291989863592968,0.00022450266063934449
0.0021808501871418114,0.001227843578004612,1,40,0.22291989863592968,0.00022450266063934449
0.0021931254923362414,0.0012278313024551928,1,40,0.22291989863592968,0.00022450266063934449
0.0022054006748063217,0.0012278190270285003,1,40,0.22291989863592968,0.00022450266063934449
0.0022176757345532933,0.0012278067517245334,1,40,0.22291989863592968,0.00022450266063934449
0.0022299506715783915,0.0012277944765432909,1,40,0.22291989863592968,0.00022450266063934449
0.002242225485882855,0.0012277822014847715,1,40,0.22291989863592968,0.00022450266063934449
0.0022545001774679184,0.001227769926548974,1,40,0.22291989863592968,0.00022450266063934449
0.0022667747463348186,0.001227757651735897,1,40,0.22291989863592968,0.00022450266063934449
0.00227904919248479,0.0012277453770455395,1,40,0.22291989863592968,0.00022450266063934449
0.0022913235159190666,0.0012277331024779,1,40,0.22291989863592968,0.00022450266063934449
0.0023035977166388825,0.0012277208280329775,1,40,0.22291989863592968,0.00022450266063934449
0.0023158717946454694,0.0012277085537107707,1,40,0.22291989863592968,0.00022450266063934449
0.002328145749940061,0.0012276962795112782,1,40,0.22291989863592968,0.00022450266063934449
0.0023404195825238896,0.0012276840054344991,1,40,0.22291989863592968,0.00022450266063934449
0.0023526932923981863,0.001227671731480432,1,40,0.22291989863592968,0.00022450266063934449
0.002364966879564183,0.0012276594576490756,1,40,0.22291989863592968,0.00022450266063934449
0.0023772403440231096,0.0012276471839404285,1,40,0.22291989863592968,0.00022450266063934449
0.0023895136857761978,0.00122763491035449,1,40,0.22291989863592968,0.00022450266063934449
0.002401786904824677,0.0012276226368912585,1,40,0.22291989863592968,0.00022450266063934449
0.0024140600011697782,0.0012276103635507328,1,40,0.22291989863592968,0.00022450266063934449
0.002426332974812731,0.0012275980903329116,1,40,0.22291989863592968,0.00022450266063934449
0.0024386058257547644,0.001227585817237794,1,40,0.22291989863592968,0.00022450266063934449
0.0024508785539971083,0.0012275735442653782,1,40,0.22291989863592968,0.00022450266063934449
0.0024631511595409918,0.0012275612714156634,1,40,0.22291989863592968,0.00022450266063934449
0.0024754236423876427,0.0012275489986886485,1,40,0.22291989863592968,0.00022450266063934449
0.00248769600253829,0.0012275367260843318,1,40,0.22291989863592968,0.00022450266063934449
0.002499968239994164,0.0012275244536027125,1,40,0.22291989863592968,0.00022450266063934449
0.002512240354756491,0.0012275121812437891,1,40,0.22291989863592968,0.00022450266063934449
0.0025245123468265003,0.0012274999090075604,1,40,0.22291989863592968,0.00022450266063934449
0.0025367842162054197,0.0012274876368940253,1,40,0.22291989863592968,0.00022450266063934449
0.002549055962894477,0.0012274753649031825,1,40,0.22291989863592968,0.00022450266063934449
0.0025613275868949003,0.0012274630930350309,1,40,0.22291989863592968,0.00022450266063934449
0.002573599088207918,0.001227450821289569,1,40,0.22291989863592968,0.00022450266063934449
0.002585870466834757,0.0012274385496667958,1,40,0.22291989863592968,0.00022450266063934449
0.002598141722776645,0.00122742627816671,1,40,0.22291989863592968,0.00022450266063934449
0.0026104128560348085,0.0012274140067893102,1,40,0.22291989863592968,0.00022450266063934449
0.0026226838666104767,0.0012274017355345956,1,40,0.22291989863592968,0.00022450266063934449
0.0026349547545048754,0.0012273894644025645,1,40,0.22291989863592968,0.00022450266063934449
