Vout,Iout,Irradiance,Temperature,MaxVoltage,MaxPower
0.01125614176786762,2.25125,1801,50,22.918816182653966,51.01947277254136
0.03376821716688805,2.25125,1801,50,22.918816182653966,51.01947277254136
0.05627983490106218,2.251238518733232,1801,50,22.918816182653966,51.01947277254136
0.07879091320871674,2.2512160066578333,1801,50,22.918816182653966,51.01947277254136
0.10130142536871849,2.2511934950412473,1801,50,22.918816182653966,51.01947277254136
0.12381139762971403,2.2511709839651908,1801,50,22.918816182653966,51.01947277254136
0.14632085422165894,2.251148473455282,1801,50,22.918816182653966,51.01947277254136
0.16882981751064063,2.251125963485272,1801,50,22.918816182653966,51.01947277254136
0.19133830814203762,2.251103454030931,1801,50,22.918816182653966,51.01947277254136
0.2138463451729136,2.2510809450698934,1801,50,22.918816182653966,51.01947277254136
0.23635394619422478,2.2510584365815127,1801,50,22.918816182653966,51.01947277254136
0.25886112744362505,2.2510359285467327,1801,50,22.918816182653966,51.01947277254136
0.28136790390959027,2.251013420947962,1801,50,22.918816182653966,51.01947277254136
0.303874289427533,2.250990913768964,1801,50,22.918816182653966,51.01947277254136
0.3263802967685198,2.2509684069947484,1801,50,22.918816182653966,51.01947277254136
0.34888593772116505,2.250945900611481,1801,50,22.918816182653966,51.01947277254136
0.37139122316722134,2.250923394606391,1801,50,22.918816182653966,51.01947277254136
0.3938961631513551,2.250900888967689,1801,50,22.918816182653966,51.01947277254136
0.41640076694555356,2.2508783836844937,1801,50,22.918816182653966,51.01947277254136
0.4389050431085757,2.25085587874676,1801,50,22.918816182653966,51.01947277254136
0.4614089995408291,2.2508333741452162,1801,50,22.918816182653966,51.01947277254136
0.48391264353502467,2.250810869871304,1801,50,22.918816182653966,51.01947277254136
0.5064159818229337,2.250788365917122,1801,50,22.918816182653966,51.01947277254136
0.5289190206185477,2.250765862275378,1801,50,22.918816182653966,51.01947277254136
0.5514217656579165,2.250743358939341,1801,50,22.918816182653966,51.01947277254136
0.5739242222359225,2.2507208559027956,1801,50,22.918816182653966,51.01947277254136
0.5964263952402247,2.2506983531600064,1801,50,22.918816182653966,51.01947277254136
0.6189282891825908,2.2506758507056785,1801,50,22.918816182653966,51.01947277254136
0.6414299082278193,2.2506533485349247,1801,50,22.918816182653966,51.01947277254136
0.6639312562204349,2.2506308466432325,1801,50,22.918816182653966,51.01947277254136
0.6864323367093323,2.2506083450264374,1801,50,22.918816182653966,51.01947277254136
0.7089331529705215,2.250585843680695,1801,50,22.918816182653966,51.01947277254136
0.7314337080281239,2.2505633426024563,1801,50,22.918816182653966,51.01947277254136
0.7539340046737537,2.250540841788445,1801,50,22.918816182653966,51.01947277254136
0.7764340454844065,2.250518341235638,1801,50,22.918816182653966,51.01947277254136
0.7989338328389729,2.2504958409412423,1801,50,22.918816182653966,51.01947277254136
0.8214333689334813,2.2504733409026816,1801,50,22.918816182653966,51.01947277254136
0.8439326557951669,2.250450841117577,1801,50,22.918816182653966,51.01947277254136
0.8664316952954594,2.2504283415837327,1801,50,22.918816182653966,51.01947277254136
0.8889304891619705,2.250405842299121,1801,50,22.918816182653966,51.01947277254136
0.9114290389895603,2.2503833432618707,1801,50,22.918816182653966,51.01947277254136
0.9339273462505504,2.250360844470254,1801,50,22.918816182653966,51.01947277254136
0.9564254123041525,2.2503383459226765,1801,50,22.918816182653966,51.01947277254136
0.9789232384051718,2.250315847617665,1801,50,22.918816182653966,51.01947277254136
1.00142082571204,2.2502933495538615,1801,50,22.918816182653966,51.01947277254136
1.02391817529423,2.25027085173001,1801,50,22.918816182653966,51.01947277254136
1.0464152881391002,2.2502483541449534,1801,50,22.918816182653966,51.01947277254136
1.0689121651582143,2.2502258567976208,1801,50,22.918816182653966,51.01947277254136
1.0914088071931705,2.250203359687026,1801,50,22.918816182653966,51.01947277254136
1.1139052150209872,2.250180862812256,1801,50,22.918816182653966,51.01947277254136
1.13640138935907,2.250158366172471,1801,50,22.918816182653966,51.01947277254136
1.1588973308698003,2.250135869766893,1801,50,22.918816182653966,51.01947277254136
1.1813930401647663,2.2501133735948047,1801,50,22.918816182653966,51.01947277254136
1.2038885178086738,2.2500908776555435,1801,50,22.918816182653966,51.01947277254136
1.2263837643229514,2.250068381948498,1801,50,22.918816182653966,51.01947277254136
1.248878780189082,2.250045886473104,1801,50,22.918816182653966,51.01947277254136
1.2713735658516747,2.250023391228839,1801,50,22.918816182653966,51.01947277254136
1.2938681217213033,2.2500008962152225,1801,50,22.918816182653966,51.01947277254136
1.3163624481771237,2.2499784014318096,1801,50,22.918816182653966,51.01947277254136
1.3388565455692922,2.2499559068781894,1801,50,22.918816182653966,51.01947277254136
1.361350414221196,2.249933412553983,1801,50,22.918816182653966,51.01947277254136
1.3838440544315151,2.2499109184588404,1801,50,22.918816182653966,51.01947277254136
1.4063374664761201,2.2498884245924375,1801,50,22.918816182653966,51.01947277254136
1.428830650609828,2.249865930954477,1801,50,22.918816182653966,51.01947277254136
1.4513236070680249,2.2498434375446816,1801,50,22.918816182653966,51.01947277254136
1.4738163360681564,2.2498209443627974,1801,50,22.918816182653966,51.01947277254136
1.4963088378111127,2.2497984514085885,1801,50,22.918816182653966,51.01947277254136
1.5188011124824983,2.2497759586818376,1801,50,22.918816182653966,51.01947277254136
1.5412931602538118,2.249753466182344,1801,50,22.918816182653966,51.01947277254136
1.5637849812835272,2.249730973909922,1801,50,22.918816182653966,51.01947277254136
1.5862765757181003,2.2497084818644,1801,50,22.918816182653966,51.01947277254136
1.60876794369289,2.249685990045619,1801,50,22.918816182653966,51.01947277254136
1.631259085333014,2.249663498453434,1801,50,22.918816182653966,51.01947277254136
1.6537500007541361,2.249641007087708,1801,50,22.918816182653966,51.01947277254136
1.6762406900631939,2.2496185159483173,1801,50,22.918816182653966,51.01947277254136
1.698731153359069,2.2495960250351454,1801,50,22.918816182653966,51.01947277254136
1.721221390733209,2.2495735343480856,1801,50,22.918816182653966,51.01947277254136
1.7437114022701985,2.2495510438870387,1801,50,22.918816182653966,51.01947277254136
1.7662011880482853,2.2495285536519134,1801,50,22.918816182653966,51.01947277254136
1.788690748139871,2.2495060636426256,1801,50,22.918816182653966,51.01947277254136
1.8111800826119597,2.2494835738590964,1801,50,22.918816182653966,51.01947277254136
1.833669191526572,2.249461084301254,1801,50,22.918816182653966,51.01947277254136
1.8561580749411293,2.249438594969031,1801,50,22.918816182653966,51.01947277254136
1.87864673290881,2.249416105862365,1801,50,22.918816182653966,51.01947277254136
1.901135165478871,2.2493936169811994,1801,50,22.918816182653966,51.01947277254136
1.9236233726969545,2.249371128325481,1801,50,22.918816182653966,51.01947277254136
1.946111354605362,2.2493486398951594,1801,50,22.918816182653966,51.01947277254136
1.9685991112433143,2.2493261516901906,1801,50,22.918816182653966,51.01947277254136
1.9910866426471874,2.249303663710531,1801,50,22.918816182653966,51.01947277254136
2.013573948850731,2.2492811759561415,1801,50,22.918816182653966,51.01947277254136
2.0360610298852713,2.2492586884269867,1801,50,22.918816182653966,51.01947277254136
2.058547885779896,2.249236201123032,1801,50,22.918816182653966,51.01947277254136
2.08103451656163,2.249213714044246,1801,50,22.918816182653966,51.01947277254136
2.10352092225559,2.2491912271906003,1801,50,22.918816182653966,51.01947277254136
2.1260071028851324,2.2491687405620673,1801,50,22.918816182653966,51.01947277254136
2.1484930584719923,2.249146254158622,1801,50,22.918816182653966,51.01947277254136
2.1709787890364023,2.249123767980241,1801,50,22.918816182653966,51.01947277254136
2.1934642945972125,2.2491012820269027,1801,50,22.918816182653966,51.01947277254136
2.215949575171996,2.249078796298587,1801,50,22.918816182653966,51.01947277254136
2.2384346307771463,2.249056310795275,1801,50,22.918816182653966,51.01947277254136
2.2609194614279677,2.2490338255169484,1801,50,22.918816182653966,51.01947277254136
2.283404067138761,2.249011340463592,1801,50,22.918816182653966,51.01947277254136
2.3058884479228996,2.2489888556351896,1801,50,22.918816182653966,51.01947277254136
2.3283726037929,2.2489663710317274,1801,50,22.918816182653966,51.01947277254136
2.3508565347604886,2.248943886653192,1801,50,22.918816182653966,51.01947277254136
2.3733402408366633,2.2489214024995703,1801,50,22.918816182653966,51.01947277254136
2.3958237220317478,2.248898918570851,1801,50,22.918816182653966,51.01947277254136
2.4183069783554445,2.2488764348670234,1801,50,22.918816182653966,51.01947277254136
2.440790009816883,2.2488539513880768,1801,50,22.918816182653966,51.01947277254136
2.4632728164246624,2.2488314681340014,1801,50,22.918816182653966,51.01947277254136
2.485755398186893,2.2488089851047883,1801,50,22.918816182653966,51.01947277254136
2.5082377551112347,2.2487865023004288,1801,50,22.918816182653966,51.01947277254136
2.5307198872049312,2.2487640197209147,1801,50,22.918816182653966,51.01947277254136
2.55320179447484,2.248741537366239,1801,50,22.918816182653966,51.01947277254136
2.5756834769274666,2.248719055236393,1801,50,22.918816182653966,51.01947277254136
2.5981649345689855,2.2486965733313715,1801,50,22.918816182653966,51.01947277254136
2.620646167405271,2.2486740916511674,1801,50,22.918816182653966,51.01947277254136
2.6431271754419186,2.248651610195774,1801,50,22.918816182653966,51.01947277254136
2.6656079586842645,2.248629128965186,1801,50,22.918816182653966,51.01947277254136
2.6880885171374107,2.2486066479593974,1801,50,22.918816182653966,51.01947277254136
2.7105688508062338,2.248584167178403,1801,50,22.918816182653966,51.01947277254136
2.7330489596954144,2.248561686622198,1801,50,22.918816182653966,51.01947277254136
2.7555288438094405,2.2485392062907774,1801,50,22.918816182653966,51.01947277254136
2.778008503152631,2.2485167261841363,1801,50,22.918816182653966,51.01947277254136
2.8004879377291427,2.24849424630227,1801,50,22.918816182653966,51.01947277254136
2.82296714754299,2.248471766645175,1801,50,22.918816182653966,51.01947277254136
2.8454461325980454,2.2484492872128463,1801,50,22.918816182653966,51.01947277254136
2.86792489289806,2.2484268080052807,1801,50,22.918816182653966,51.01947277254136
2.8904034284466693,2.2484043290224736,1801,50,22.918816182653966,51.01947277254136
2.9128817392474002,2.2483818502644213,1801,50,22.918816182653966,51.01947277254136
2.935359825303682,2.2483593717311208,1801,50,22.918816182653966,51.01947277254136
2.9578376866188516,2.2483368934225676,1801,50,22.918816182653966,51.01947277254136
2.9803153231961645,2.2483144153387595,1801,50,22.918816182653966,51.01947277254136
3.0027927350387977,2.248291937479692,1801,50,22.918816182653966,51.01947277254136
3.025269922149855,2.2482694598453623,1801,50,22.918816182653966,51.01947277254136
3.047746884532375,2.248246982435768,1801,50,22.918816182653966,51.01947277254136
3.0702236221893373,2.2482245052509042,1801,50,22.918816182653966,51.01947277254136
3.0927001351236623,2.2482020282907698,1801,50,22.918816182653966,51.01947277254136
3.1151764233382213,2.2481795515553604,1801,50,22.918816182653966,51.01947277254136
3.137652486835834,2.2481570750446735,1801,50,22.918816182653966,51.01947277254136
3.1601283256192794,2.248134598758707,1801,50,22.918816182653966,51.01947277254136
3.1826039396912935,2.248112122697457,1801,50,22.918816182653966,51.01947277254136
3.205079329054576,2.248089646860921,1801,50,22.918816182653966,51.01947277254136
3.2275544937117893,2.2480671712490965,1801,50,22.918816182653966,51.01947277254136
3.2500294336655675,2.248044695861981,1801,50,22.918816182653966,51.01947277254136
3.2725041489185105,2.2480222206995712,1801,50,22.918816182653966,51.01947277254136
3.2949786394731952,2.2479997457618652,1801,50,22.918816182653966,51.01947277254136
3.3174529053321704,2.2479772710488595,1801,50,22.918816182653966,51.01947277254136
3.3399269464979615,2.2479547965605526,1801,50,22.918816182653966,51.01947277254136
3.362400762973074,2.2479323222969407,1801,50,22.918816182653966,51.01947277254136
3.3848743547599933,2.2479098482580224,1801,50,22.918816182653966,51.01947277254136
3.407347721861184,2.247887374443795,1801,50,22.918816182653966,51.01947277254136
3.4298208642790966,2.2478649008542555,1801,50,22.918816182653966,51.01947277254136
3.452293782016165,2.2478424274894016,1801,50,22.918816182653966,51.01947277254136
3.474766475074809,2.247819954349231,1801,50,22.918816182653966,51.01947277254136
3.4972389434574334,2.247797481433741,1801,50,22.918816182653966,51.01947277254136
3.5197111871664317,2.24777500874293,1801,50,22.918816182653966,51.01947277254136
3.542183206204187,2.2477525362767947,1801,50,22.918816182653966,51.01947277254136
3.564655000573072,2.247730064035333,1801,50,22.918816182653966,51.01947277254136
3.587126570275448,2.2477075920185423,1801,50,22.918816182653966,51.01947277254136
3.609597915313667,2.2476851202264205,1801,50,22.918816182653966,51.01947277254136
3.6320690356900753,2.2476626486589657,1801,50,22.918816182653966,51.01947277254136
3.6545399314070095,2.2476401773161747,1801,50,22.918816182653966,51.01947277254136
3.677010602466801,2.2476177061980454,1801,50,22.918816182653966,51.01947277254136
3.699481048871772,2.2475952353045754,1801,50,22.918816182653966,51.01947277254136
3.721951270624241,2.2475727646357626,1801,50,22.918816182653966,51.01947277254136
3.7444212677265205,2.247550294191605,1801,50,22.918816182653966,51.01947277254136
3.7668910401809166,2.2475278239720993,1801,50,22.918816182653966,51.01947277254136
3.7893605879897327,2.2475053539772443,1801,50,22.918816182653966,51.01947277254136
3.811829911155267,2.2474828842070367,1801,50,22.918816182653966,51.01947277254136
3.834299009679813,2.247460414661475,1801,50,22.918816182653966,51.01947277254136
3.8567678835656607,2.2474379453405566,1801,50,22.918816182653966,51.01947277254136
3.879236532815097,2.247415476244279,1801,50,22.918816182653966,51.01947277254136
3.9017049574304057,2.24739300737264,1801,50,22.918816182653966,51.01947277254136
3.924173157413868,2.2473705387256375,1801,50,22.918816182653966,51.01947277254136
3.9466411327677604,2.247348070303269,1801,50,22.918816182653966,51.01947277254136
3.9691088834943593,2.2473256021055326,1801,50,22.918816182653966,51.01947277254136
3.991576409595938,2.247303134132425,1801,50,22.918816182653966,51.01947277254136
4.014043711074768,2.2472806663839457,1801,50,22.918816182653966,51.01947277254136
4.036510787933116,2.247258198860091,1801,50,22.918816182653966,51.01947277254136
4.058977640173254,2.247235731560859,1801,50,22.918816182653966,51.01947277254136
4.081444267797442,2.247213264486247,1801,50,22.918816182653966,51.01947277254136
4.103910670807947,2.2471907976362537,1801,50,22.918816182653966,51.01947277254136
4.126376849207034,2.2471683310108763,1801,50,22.918816182653966,51.01947277254136
4.14884280299696,2.2471458646101126,1801,50,22.918816182653966,51.01947277254136
4.171308532179986,2.2471233984339603,1801,50,22.918816182653966,51.01947277254136
4.193774036758372,2.2471009324824167,1801,50,22.918816182653966,51.01947277254136
4.2162393167343755,2.24707846675548,1801,50,22.918816182653966,51.01947277254136
4.238704372110253,2.2470560012531484,1801,50,22.918816182653966,51.01947277254136
4.26116920288826,2.247033535975419,1801,50,22.918816182653966,51.01947277254136
4.283633809070654,2.24701107092229,1801,50,22.918816182653966,51.01947277254136
4.306098190659687,2.2469886060937583,1801,50,22.918816182653966,51.01947277254136
4.328562347657613,2.2469661414898225,1801,50,22.918816182653966,51.01947277254136
4.3510262800666855,2.24694367711048,1801,50,22.918816182653966,51.01947277254136
4.373489987889157,2.2469212129557286,1801,50,22.918816182653966,51.01947277254136
4.395953471127279,2.246898749025566,1801,50,22.918816182653966,51.01947277254136
4.418416729783302,2.2468762853199897,1801,50,22.918816182653966,51.01947277254136
4.4408797638594795,2.246853821838998,1801,50,22.918816182653966,51.01947277254136
4.463342573358059,2.2468313585825883,1801,50,22.918816182653966,51.01947277254136
4.485805158281293,2.2468088955507586,1801,50,22.918816182653966,51.01947277254136
4.5082675186314285,2.246786432743506,1801,50,22.918816182653966,51.01947277254136
4.530729654410716,2.2467639701608295,1801,50,22.918816182653966,51.01947277254136
4.553191565621404,2.2467415078027253,1801,50,22.918816182653966,51.01947277254136
4.575653252265741,2.2467190456691926,1801,50,22.918816182653966,51.01947277254136
4.598114714345976,2.246696583760228,1801,50,22.918816182653966,51.01947277254136
4.620575951864357,2.24667412207583,1801,50,22.918816182653966,51.01947277254136
4.643036964823131,2.2466516606159956,1801,50,22.918816182653966,51.01947277254136
4.665497753224546,2.2466291993807235,1801,50,22.918816182653966,51.01947277254136
4.6879583170708505,2.246606738370011,1801,50,22.918816182653966,51.01947277254136
4.710418656364289,2.246584277583856,1801,50,22.918816182653966,51.01947277254136
4.73287877110711,2.2465618170222554,1801,50,22.918816182653966,51.01947277254136
4.755338661301561,2.2465393566852083,1801,50,22.918816182653966,51.01947277254136
4.777798326949888,2.2465168965727114,1801,50,22.918816182653966,51.01947277254136
4.800257768054337,2.246494436684763,1801,50,22.918816182653966,51.01947277254136
4.822716984617154,2.246471977021361,1801,50,22.918816182653966,51.01947277254136
4.845175976640586,2.2464495175825023,1801,50,22.918816182653966,51.01947277254136
4.86763474412688,2.246427058368185,1801,50,22.918816182653966,51.01947277254136
4.89009328707828,2.246404599378408,1801,50,22.918816182653966,51.01947277254136
4.912551605497033,2.2463821406131674,1801,50,22.918816182653966,51.01947277254136
4.935009699385384,2.246359682072462,1801,50,22.918816182653966,51.01947277254136
4.95746756874558,2.246337223756289,1801,50,22.918816182653966,51.01947277254136
4.979925213579864,2.2463147656646467,1801,50,22.918816182653966,51.01947277254136
5.002382633890486,2.2462923077975323,1801,50,22.918816182653966,51.01947277254136
5.024839829679686,2.2462698501549436,1801,50,22.918816182653966,51.01947277254136
5.047296800949712,2.246247392736879,1801,50,22.918816182653966,51.01947277254136
5.06975354770281,2.2462249355433355,1801,50,22.918816182653966,51.01947277254136
5.092210069941224,2.246202478574311,1801,50,22.918816182653966,51.01947277254136
5.1146663676671995,2.246180021829804,1801,50,22.918816182653966,51.01947277254136
5.137122440882982,2.246157565309811,1801,50,22.918816182653966,51.01947277254136
5.159578289590817,2.2461351090143307,1801,50,22.918816182653966,51.01947277254136
5.182033913792948,2.246112652943361,1801,50,22.918816182653966,51.01947277254136
5.204489313491618,2.2460901970968985,1801,50,22.918816182653966,51.01947277254136
5.2269444886890755,2.246067741474942,1801,50,22.918816182653966,51.01947277254136
5.249399439387564,2.246045286077489,1801,50,22.918816182653966,51.01947277254136
5.271854165589329,2.246022830904537,1801,50,22.918816182653966,51.01947277254136
5.294308667296614,2.246000375956084,1801,50,22.918816182653966,51.01947277254136
5.316762944511664,2.245977921232128,1801,50,22.918816182653966,51.01947277254136
5.339216997236724,2.2459554667326658,1801,50,22.918816182653966,51.01947277254136
5.361670825474037,2.2459330124576966,1801,50,22.918816182653966,51.01947277254136
5.38412442922585,2.2459105584072168,1801,50,22.918816182653966,51.01947277254136
