Vout,Iout,Irradiance,Temperature,MaxVoltage,MaxPower
0.0024059768656070615,0.48119999999999996,401,25,21.91603428363764,10.06588340131351
0.007217886108031772,0.48119999999999996,401,25,21.91603428363764,10.06588340131351
0.012029697525548522,0.48119754590313435,401,25,21.91603428363764,10.06588340131351
0.016841393641769904,0.48119273399389195,401,25,21.91603428363764,10.06588340131351
0.02165296874510931,0.48118792218271983,401,25,21.91603428363764,10.06588340131351
0.026464428446160308,0.4811831104870848,401,25,21.91603428363764,10.06588340131351
0.03127577792402545,0.4811782989124626,401,25,21.91603428363764,10.06588340131351
0.03608702195940934,0.48117348745324273,401,25,21.91603428363764,10.06588340131351
0.04089816496521865,0.481168676104246,401,25,21.91603428363764,10.06588340131351
0.04570921101486106,0.4811638648606918,401,25,21.91603428363764,10.06588340131351
0.05052016386836688,0.48115905371816714,401,25,21.91603428363764,10.06588340131351
0.05533102699650075,0.4811542426725986,401,25,21.91603428363764,10.06588340131351
0.060141803603018226,0.48114943172022623,401,25,21.91603428363764,10.06588340131351
0.06495249664520988,0.4811446208575792,401,25,21.91603428363764,10.06588340131351
0.06976310885286469,0.4811398100814538,401,25,21.91603428363764,10.06588340131351
0.07457364274577437,0.48113499938889265,401,25,21.91603428363764,10.06588340131351
0.07938410064989088,0.48113018877716607,401,25,21.91603428363764,10.06588340131351
0.08419448471224074,0.48112537824375423,401,25,21.91603428363764,10.06588340131351
0.08900479691469199,0.48112056778633117,401,25,21.91603428363764,10.06588340131351
0.09381503908666144,0.4811157574027499,401,25,21.91603428363764,10.06588340131351
0.0986252129168448,0.4811109470910285,401,25,21.91603428363764,10.06588340131351
0.10343531996404386,0.48110613684933756,401,25,21.91603428363764,10.06588340131351
0.10824536166716073,0.4811013266759884,401,25,21.91603428363764,10.06588340131351
0.11305533935442312,0.4810965165694222,401,25,21.91603428363764,10.06588340131351
0.11786525425189977,0.48109170652820016,401,25,21.91603428363764,10.06588340131351
0.12267510749136074,0.4810868965509939,401,25,21.91603428363764,10.06588340131351
0.127484900117533,0.4810820866365774,401,25,21.91603428363764,10.06588340131351
0.13229463309479744,0.48107727678381895,401,25,21.91603428363764,10.06588340131351
0.13710430731337106,0.4810724669916738,401,25,21.91603428363764,10.06588340131351
0.14191392359501312,0.4810676572591775,401,25,21.91603428363764,10.06588340131351
0.1467234826982924,0.4810628475854399,401,25,21.91603428363764,10.06588340131351
0.15153298532344917,0.4810580379696392,401,25,21.91603428363764,10.06588340131351
0.15634243211688317,0.4810532284110169,401,25,21.91603428363764,10.06588340131351
0.1611518236752961,0.48104841890887273,401,25,21.91603428363764,10.06588340131351
0.16596116054951535,0.48104360946256025,401,25,21.91603428363764,10.06588340131351
0.1707704432480239,0.48103880007148275,401,25,21.91603428363764,10.06588340131351
0.17557967224021823,0.4810339907350895,401,25,21.91603428363764,10.06588340131351
0.1803888479594156,0.48102918145287193,401,25,21.91603428363764,10.06588340131351
0.18519797080563027,0.4810243722243607,401,25,21.91603428363764,10.06588340131351
0.1900070411481356,0.4810195630491224,401,25,21.91603428363764,10.06588340131351
0.19481605932782964,0.48101475392675713,401,25,21.91603428363764,10.06588340131351
0.19962502565941803,0.4810099448568955,401,25,21.91603428363764,10.06588340131351
0.20443394043342952,0.48100513583919674,401,25,21.91603428363764,10.06588340131351
0.20924280391807604,0.48100032687334604,401,25,21.91603428363764,10.06588340131351
0.21405161636096995,0.48099551795905293,401,25,21.91603428363764,10.06588340131351
0.2188603779907089,0.4809907090960492,401,25,21.91603428363764,10.06588340131351
0.22366908901833868,0.4809859002840872,401,25,21.91603428363764,10.06588340131351
0.22847774963870407,0.48098109152293833,401,25,21.91603428363764,10.06588340131351
0.23328636003169503,0.4809762828123916,401,25,21.91603428363764,10.06588340131351
0.2380949203633976,0.4809714741522521,401,25,21.91603428363764,10.06588340131351
0.24290343078715573,0.48096666554233997,401,25,21.91603428363764,10.06588340131351
0.24771189144455202,0.48096185698248917,401,25,21.91603428363764,10.06588340131351
0.25252030246631224,0.4809570484725463,401,25,21.91603428363764,10.06588340131351
0.257328663973141,0.4809522400123697,401,25,21.91603428363764,10.06588340131351
0.26213697607649267,0.4809474316018288,401,25,21.91603428363764,10.06588340131351
0.2669452388792832,0.48094262324080284,401,25,21.91603428363764,10.06588340131351
0.2717534524765467,0.4809378149291803,401,25,21.91603428363764,10.06588340131351
0.2765616169560426,0.48093300666685834,401,25,21.91603428363764,10.06588340131351
0.2813697323988147,0.4809281984537419,401,25,21.91603428363764,10.06588340131351
0.2861777988797082,0.48092339028974324,401,25,21.91603428363764,10.06588340131351
0.29098581646784644,0.4809185821747813,401,25,21.91603428363764,10.06588340131351
0.29579378522707156,0.4809137741087812,401,25,21.91603428363764,10.06588340131351
0.3006017052163503,0.4809089660916739,401,25,21.91603428363764,10.06588340131351
0.30540957649014955,0.4809041581233955,401,25,21.91603428363764,10.06588340131351
0.31021739909878215,0.480899350203887,401,25,21.91603428363764,10.06588340131351
0.315025173088727,0.480894542333094,401,25,21.91603428363764,10.06588340131351
0.3198328985029238,0.48088973451096617,401,25,21.91603428363764,10.06588340131351
0.32464057538104524,0.480884926737457,401,25,21.91603428363764,10.06588340131351
0.3294482037597486,0.4808801190125236,401,25,21.91603428363764,10.06588340131351
0.3342557836729076,0.48087531133612627,401,25,21.91603428363764,10.06588340131351
0.33906331515182675,0.4808705037082283,401,25,21.91603428363764,10.06588340131351
0.3438707982254387,0.4808656961287959,401,25,21.91603428363764,10.06588340131351
0.34867823292048705,0.48086088859779774,401,25,21.91603428363764,10.06588340131351
0.35348561926169475,0.4808560811152049,401,25,21.91603428363764,10.06588340131351
0.3582929572719195,0.4808512736809906,401,25,21.91603428363764,10.06588340131351
0.36310024697229715,0.48084646629513017,401,25,21.91603428363764,10.06588340131351
0.3679074883823743,0.48084165895760067,401,25,21.91603428363764,10.06588340131351
0.37271468152023063,0.480836851668381,401,25,21.91603428363764,10.06588340131351
0.37752182640259163,0.4808320444274517,401,25,21.91603428363764,10.06588340131351
0.3823289230449331,0.4808272372347946,401,25,21.91603428363764,10.06588340131351
0.38713597146157663,0.48082243009039294,401,25,21.91603428363764,10.06588340131351
0.39194297166577935,0.4808176229942313,401,25,21.91603428363764,10.06588340131351
0.39674992366981504,0.4808128159462954,401,25,21.91603428363764,10.06588340131351
0.40155682748504995,0.4808080089465719,401,25,21.91603428363764,10.06588340131351
0.4063636831220131,0.48080320199504856,401,25,21.91603428363764,10.06588340131351
0.4111704905904602,0.480798395091714,401,25,21.91603428363764,10.06588340131351
0.4159772498994333,0.48079358823655777,401,25,21.91603428363764,10.06588340131351
0.42078396105731564,0.48078878142957,401,25,21.91603428363764,10.06588340131351
0.42559062407188253,0.4807839746707417,401,25,21.91603428363764,10.06588340131351
0.4303972389503479,0.4807791679600645,401,25,21.91603428363764,10.06588340131351
0.43520380569940764,0.4807743612975306,401,25,21.91603428363764,10.06588340131351
0.44001032432527926,0.4807695546831328,401,25,21.91603428363764,10.06588340131351
0.44481679483373926,0.4807647481168644,401,25,21.91603428363764,10.06588340131351
0.44962321723015614,0.4807599415987192,401,25,21.91603428363764,10.06588340131351
0.45442959151952245,0.4807551351286914,401,25,21.91603428363764,10.06588340131351
0.45923591770648386,0.48075032870677564,401,25,21.91603428363764,10.06588340131351
0.46404219579536526,0.4807455223329669,401,25,21.91603428363764,10.06588340131351
0.4688484257901956,0.4807407160072606,401,25,21.91603428363764,10.06588340131351
0.4736546076947312,0.48073590972965236,401,25,21.91603428363764,10.06588340131351
0.47846074151247614,0.48073110350013815,401,25,21.91603428363764,10.06588340131351
0.4832668272467017,0.48072629731871425,401,25,21.91603428363764,10.06588340131351
0.48807286490046464,0.48072149118537716,401,25,21.91603428363764,10.06588340131351
0.4928788544766234,0.48071668510012355,401,25,21.91603428363764,10.06588340131351
0.49768479597785337,0.4807118790629504,401,25,21.91603428363764,10.06588340131351
0.5024906894066612,0.48070707307385485,401,25,21.91603428363764,10.06588340131351
0.5072965347653975,0.4807022671328342,401,25,21.91603428363764,10.06588340131351
0.5121023320562692,0.480697461239886,401,25,21.91603428363764,10.06588340131351
0.5169080812813498,0.48069265539500783,401,25,21.91603428363764,10.06588340131351
0.5217137824425909,0.48068784959819755,401,25,21.91603428363764,10.06588340131351
0.5265194355418307,0.4806830438494531,401,25,21.91603428363764,10.06588340131351
0.5313250405808025,0.4806782381487724,401,25,21.91603428363764,10.06588340131351
0.5361305975611439,0.48067343249615374,401,25,21.91603428363764,10.06588340131351
0.5409361064844028,0.48066862689159534,401,25,21.91603428363764,10.06588340131351
0.5457415673520453,0.48066382133509555,401,25,21.91603428363764,10.06588340131351
0.5505469801654617,0.4806590158266529,401,25,21.91603428363764,10.06588340131351
0.5553523449259721,0.48065421036626577,401,25,21.91603428363764,10.06588340131351
0.5601576616348319,0.48064940495393293,401,25,21.91603428363764,10.06588340131351
0.5649629302932372,0.48064459958965294,401,25,21.91603428363764,10.06588340131351
0.5697681509023286,0.4806397942734246,401,25,21.91603428363764,10.06588340131351
0.5745733234631963,0.48063498900524676,401,25,21.91603428363764,10.06588340131351
0.5793784479768835,0.4806301837851182,401,25,21.91603428363764,10.06588340131351
0.5841835244443897,0.4806253786130379,401,25,21.91603428363764,10.06588340131351
0.5889885528666747,0.4806205734890047,401,25,21.91603428363764,10.06588340131351
0.5937935332446618,0.48061576841301773,401,25,21.91603428363764,10.06588340131351
0.5985984655792395,0.4806109633850759,401,25,21.91603428363764,10.06588340131351
0.6034033498712652,0.48060615840517845,401,25,21.91603428363764,10.06588340131351
0.6082081861215674,0.4806013534733244,401,25,21.91603428363764,10.06588340131351
0.6130129743309476,0.48059654858951284,401,25,21.91603428363764,10.06588340131351
0.6178177145001826,0.48059174375374303,401,25,21.91603428363764,10.06588340131351
0.6226224066300267,0.4805869389660142,401,25,21.91603428363764,10.06588340131351
0.6274270507212127,0.4805821342263254,401,25,21.91603428363764,10.06588340131351
0.6322316467744541,0.480577329534676,401,25,21.91603428363764,10.06588340131351
0.6370361947904466,0.48057252489106533,401,25,21.91603428363764,10.06588340131351
0.641840694769869,0.48056772029549255,401,25,21.91603428363764,10.06588340131351
0.646645146713385,0.480562915747957,401,25,21.91603428363764,10.06588340131351
0.6514495506216446,0.48055811124845804,401,25,21.91603428363764,10.06588340131351
0.6562539064952838,0.480553306796995,401,25,21.91603428363764,10.06588340131351
0.6610582143349273,0.48054850239356717,401,25,21.91603428363764,10.06588340131351
0.6658624741411885,0.480543698038174,401,25,21.91603428363764,10.06588340131351
0.6706666859146707,0.4805388937308148,401,25,21.91603428363764,10.06588340131351
0.6754708496559672,0.48053408947148896,401,25,21.91603428363764,10.06588340131351
0.6802749653656632,0.4805292852601959,401,25,21.91603428363764,10.06588340131351
0.6850790330443357,0.4805244810969351,401,25,21.91603428363764,10.06588340131351
0.6898830526925539,0.4805196769817058,401,25,21.91603428363764,10.06588340131351
0.6946870243108807,0.4805148729145075,401,25,21.91603428363764,10.06588340131351
0.6994909478998718,0.4805100688953397,401,25,21.91603428363764,10.06588340131351
0.704294823460078,0.4805052649242018,401,25,21.91603428363764,10.06588340131351
0.709098650992044,0.4805004610010932,401,25,21.91603428363764,10.06588340131351
0.7139024304963099,0.4804956571260134,401,25,21.91603428363764,10.06588340131351
0.7187061619734112,0.4804908532989618,401,25,21.91603428363764,10.06588340131351
0.7235098454238789,0.48048604951993795,401,25,21.91603428363764,10.06588340131351
0.7283134808482401,0.48048124578894125,401,25,21.91603428363764,10.06588340131351
0.7331170682470184,0.4804764421059711,401,25,21.91603428363764,10.06588340131351
0.7379206076207341,0.48047163847102714,401,25,21.91603428363764,10.06588340131351
0.7427240989699042,0.48046683488410874,401,25,21.91603428363764,10.06588340131351
0.7475275422950431,0.48046203134521537,401,25,21.91603428363764,10.06588340131351
0.7523309375966624,0.4804572278543466,401,25,21.91603428363764,10.06588340131351
0.7571342848752712,0.48045242441150177,401,25,21.91603428363764,10.06588340131351
0.7619375841313766,0.48044762101668054,401,25,21.91603428363764,10.06588340131351
0.7667408353654833,0.4804428176698822,401,25,21.91603428363764,10.06588340131351
0.7715440385780946,0.4804380143711065,401,25,21.91603428363764,10.06588340131351
0.7763471937697115,0.4804332111203527,401,25,21.91603428363764,10.06588340131351
0.7811503009408338,0.4804284079176204,401,25,21.91603428363764,10.06588340131351
0.7859533600919593,0.48042360476290913,401,25,21.91603428363764,10.06588340131351
0.7907563712235849,0.4804188016562183,401,25,21.91603428363764,10.06588340131351
0.7955593343362061,0.4804139985975475,401,25,21.91603428363764,10.06588340131351
0.8003622494303166,0.4804091955868962,401,25,21.91603428363764,10.06588340131351
0.8051651165064103,0.4804043926242639,401,25,21.91603428363764,10.06588340131351
0.8099679355649789,0.4803995897096501,401,25,21.91603428363764,10.06588340131351
0.8147707066065137,0.4803947868430543,401,25,21.91603428363764,10.06588340131351
0.8195734296315047,0.480389984024476,401,25,21.91603428363764,10.06588340131351
0.824376104640442,0.4803851812539148,401,25,21.91603428363764,10.06588340131351
0.829178731633814,0.48038037853137006,401,25,21.91603428363764,10.06588340131351
0.8339813106121088,0.4803755758568414,401,25,21.91603428363764,10.06588340131351
0.8387838415758141,0.4803707732303283,401,25,21.91603428363764,10.06588340131351
0.8435863245254169,0.4803659706518303,401,25,21.91603428363764,10.06588340131351
0.8483887594614032,0.4803611681213468,401,25,21.91603428363764,10.06588340131351
0.8531911463842593,0.48035636563887746,401,25,21.91603428363764,10.06588340131351
0.8579934852944705,0.48035156320442174,401,25,21.91603428363764,10.06588340131351
0.8627957761925217,0.4803467608179791,401,25,21.91603428363764,10.06588340131351
0.8675980190788977,0.4803419584795492,401,25,21.91603428363764,10.06588340131351
0.8724002139540825,0.48033715618913136,401,25,21.91603428363764,10.06588340131351
0.8772023608185603,0.4803323539467252,401,25,21.91603428363764,10.06588340131351
0.8820044596728146,0.4803275517523303,401,25,21.91603428363764,10.06588340131351
0.8868065105173287,0.480322749605946,401,25,21.91603428363764,10.06588340131351
0.8916085133525856,0.48031794750757195,401,25,21.91603428363764,10.06588340131351
0.8964104681790683,0.48031314545720766,401,25,21.91603428363764,10.06588340131351
0.9012123749972595,0.4803083434548526,401,25,21.91603428363764,10.06588340131351
0.9060142338076415,0.48030354150050636,401,25,21.91603428363764,10.06588340131351
0.9108160446106962,0.48029873959416836,401,25,21.91603428363764,10.06588340131351
0.9156178074069061,0.4802939377358382,401,25,21.91603428363764,10.06588340131351
0.9204195221967529,0.4802891359255153,401,25,21.91603428363764,10.06588340131351
0.9252211889807183,0.48028433416319927,401,25,21.91603428363764,10.06588340131351
0.9300228077592838,0.4802795324488896,401,25,21.91603428363764,10.06588340131351
0.9348243785329308,0.4802747307825858,401,25,21.91603428363764,10.06588340131351
0.9396259013021409,0.48026992916428746,401,25,21.91603428363764,10.06588340131351
0.9444273760673954,0.480265127593994,401,25,21.91603428363764,10.06588340131351
0.9492288028291747,0.4802603260717049,401,25,21.91603428363764,10.06588340131351
0.9540301815879605,0.4802555245974198,401,25,21.91603428363764,10.06588340131351
0.9588315123442335,0.4802507231711382,401,25,21.91603428363764,10.06588340131351
0.9636327950984745,0.4802459217928595,401,25,21.91603428363764,10.06588340131351
0.9684340298511644,0.48024112046258344,401,25,21.91603428363764,10.06588340131351
0.9732352166027838,0.4802363191803093,401,25,21.91603428363764,10.06588340131351
0.9780363553538133,0.48023151794603675,401,25,21.91603428363764,10.06588340131351
0.9828374461047336,0.48022671675976525,401,25,21.91603428363764,10.06588340131351
0.9876384888560249,0.48022191562149436,401,25,21.91603428363764,10.06588340131351
0.9924394836081678,0.48021711453122357,401,25,21.91603428363764,10.06588340131351
0.997240430361643,0.4802123134889524,401,25,21.91603428363764,10.06588340131351
1.0020413291169306,0.48020751249468036,401,25,21.91603428363764,10.06588340131351
1.006842179874511,0.480202711548407,401,25,21.91603428363764,10.06588340131351
1.0116429826348645,0.4801979106501318,401,25,21.91603428363764,10.06588340131351
1.0164437373984712,0.4801931097998543,401,25,21.91603428363764,10.06588340131351
1.0212444441658115,0.48018830899757403,401,25,21.91603428363764,10.06588340131351
1.0260451029373652,0.48018350824329054,401,25,21.91603428363764,10.06588340131351
1.030845713713613,0.48017870753700326,401,25,21.91603428363764,10.06588340131351
1.0356462764950347,0.48017390687871175,401,25,21.91603428363764,10.06588340131351
1.0404467912821103,0.4801691062684156,401,25,21.91603428363764,10.06588340131351
1.04524725807532,0.48016430570611424,401,25,21.91603428363764,10.06588340131351
1.0500476768751443,0.4801595051918072,401,25,21.91603428363764,10.06588340131351
1.0548480476820625,0.4801547047254941,401,25,21.91603428363764,10.06588340131351
1.059648370496555,0.4801499043071743,401,25,21.91603428363764,10.06588340131351
1.0644486453191013,0.48014510393684745,401,25,21.91603428363764,10.06588340131351
1.0692488721501823,0.480140303614513,401,25,21.91603428363764,10.06588340131351
1.0740490509902771,0.48013550334017047,401,25,21.91603428363764,10.06588340131351
1.078849181839866,0.4801307031138194,401,25,21.91603428363764,10.06588340131351
1.0836492646994287,0.48012590293545937,401,25,21.91603428363764,10.06588340131351
1.0884492995694455,0.4801211028050898,401,25,21.91603428363764,10.06588340131351
1.0932492864503955,0.4801163027227102,401,25,21.91603428363764,10.06588340131351
1.0980492253427596,0.48011150268832026,401,25,21.91603428363764,10.06588340131351
1.102849116247017,0.4801067027019193,401,25,21.91603428363764,10.06588340131351
1.107648959163648,0.48010190276350695,401,25,21.91603428363764,10.06588340131351
1.112448754093132,0.48009710287308266,401,25,21.91603428363764,10.06588340131351
1.117248501035949,0.48009230303064604,401,25,21.91603428363764,10.06588340131351
1.1220481999925787,0.48008750323619653,401,25,21.91603428363764,10.06588340131351
1.1268478509635012,0.4800827034897337,401,25,21.91603428363764,10.06588340131351
1.131647453949196,0.48007790379125703,401,25,21.91603428363764,10.06588340131351
1.1364470089501433,0.4800731041407661,401,25,21.91603428363764,10.06588340131351
1.1412465159668224,0.4800683045382604,401,25,21.91603428363764,10.06588340131351
1.146045974999713,0.4800635049837394,401,25,21.91603428363764,10.06588340131351
1.1508453860492955,0.4800587054772027,401,25,21.91603428363764,10.06588340131351
1.155644749116049,0.4800539060186497,401,25,21.91603428363764,10.06588340131351
