Vout,Iout,Irradiance,Temperature,MaxVoltage,MaxPower
0.010175552158152325,2.0351299999999997,1801,-10,19.36884481016863,39.043741772232025
0.030526468318866788,2.0351299999999997,1801,-10,19.36884481016863,39.043741772232025
0.0508769707505602,2.0351196209348417,1801,-10,19.36884481016863,39.043741772232025
0.07122698554067994,2.035099270018681,1801,-10,19.36884481016863,39.043741772232025
0.09157648853332152,2.035078919517287,1801,-10,19.36884481016863,39.043741772232025
0.11192550345726149,2.035058569504532,1801,-10,19.36884481016863,39.043741772232025
0.13227405221637972,2.0350382200035746,1801,-10,19.36884481016863,39.043741772232025
0.15262215502961915,2.0350178709906857,1801,-10,19.36884481016863,39.043741772232025
0.172969830560402,2.034997522443961,1801,-10,19.36884481016863,39.043741772232025
0.1933170960363138,2.034977174343183,1801,-10,19.36884481016863,39.043741772232025
0.21366396735957915,2.034956826669687,1801,-10,19.36884481016863,39.043741772232025
0.23401045920903693,2.034936479406246,1801,-10,19.36884481016863,39.043741772232025
0.25435658513426956,2.0349161325369574,1801,-10,19.36884481016863,39.043741772232025
0.27470235764248974,2.0348957860471426,1801,-10,19.36884481016863,39.043741772232025
0.29504778827874184,2.034875439923252,1801,-10,19.36884481016863,39.043741772232025
0.3153928876999331,2.0348550941527788,1801,-10,19.36884481016863,39.043741772232025
0.335737665743168,2.034834748724177,1801,-10,19.36884481016863,39.043741772232025
0.3560821314888249,2.03481440362679,1801,-10,19.36884481016863,39.043741772232025
0.3764262933187803,2.034794058850782,1801,-10,19.36884481016863,39.043741772232025
0.3967701589701523,2.0347737143870703,1801,-10,19.36884481016863,39.043741772232025
0.41711373558490933,2.034753370227275,1801,-10,19.36884481016863,39.043741772232025
0.43745702975566214,2.034733026363658,1801,-10,19.36884481016863,39.043741772232025
0.45780004756793186,2.0347126827890776,1801,-10,19.36884481016863,39.043741772232025
0.4781427946391669,2.0346923394969414,1801,-10,19.36884481016863,39.043741772232025
0.4984852761547563,2.0346719964811633,1801,-10,19.36884481016863,39.043741772232025
0.5188274969012738,2.0346516537361263,1801,-10,19.36884481016863,39.043741772232025
0.539169461297163,2.0346313112566454,1801,-10,19.36884481016863,39.043741772232025
0.5595111734210618,2.034610969037933,1801,-10,19.36884481016863,39.043741772232025
0.5798526370379483,2.0345906270755716,1801,-10,19.36884481016863,39.043741772232025
0.600193855623273,2.034570285365482,1801,-10,19.36884481016863,39.043741772232025
0.6205348323852363,2.034549943903899,1801,-10,19.36884481016863,39.043741772232025
0.6408755702853515,2.034529602687348,1801,-10,19.36884481016863,39.043741772232025
0.6612160720574239,2.03450926171262,1801,-10,19.36884481016863,39.043741772232025
0.6815563402250733,2.034488920976754,1801,-10,19.36884481016863,39.043741772232025
0.7018963771179035,2.034468580477016,1801,-10,19.36884481016863,39.043741772232025
0.7222361848864314,2.0344482402108826,1801,-10,19.36884481016863,39.043741772232025
0.7425757655158671,2.034427900176024,1801,-10,19.36884481016863,39.043741772232025
0.7629151208388311,2.034407560370289,1801,-10,19.36884481016863,39.043741772232025
0.7832542525470954,2.034387220791694,1801,-10,19.36884481016863,39.043741772232025
0.8035931622024216,2.034366881438405,1801,-10,19.36884481016863,39.043741772232025
0.8239318512465628,2.0343465423087306,1801,-10,19.36884481016863,39.043741772232025
0.8442703210104977,2.034326203401109,1801,-10,19.36884481016863,39.043741772232025
0.864608572722954,2.034305864714099,1801,-10,19.36884481016863,39.043741772232025
0.8849466075182756,2.034285526246369,1801,-10,19.36884481016863,39.043741772232025
0.9052844264436842,2.03426518799669,1801,-10,19.36884481016863,39.043741772232025
0.9256220304659839,2.0342448499639287,1801,-10,19.36884481016863,39.043741772232025
0.9459594204777466,2.0342245121470373,1801,-10,19.36884481016863,39.043741772232025
0.9662965973030254,2.0342041745450485,1801,-10,19.36884481016863,39.043741772232025
0.9866335617026258,2.034183837157071,1801,-10,19.36884481016863,39.043741772232025
1.0069703143789723,2.034163499982279,1801,-10,19.36884481016863,39.043741772232025
1.0273068559805996,2.0341431630199134,1801,-10,19.36884481016863,39.043741772232025
1.0476431871062994,2.0341228262692708,1801,-10,19.36884481016863,39.043741772232025
1.0679793083089488,2.034102489729703,1801,-10,19.36884481016863,39.043741772232025
1.0883152200990411,2.0340821534006106,1801,-10,19.36884481016863,39.043741772232025
1.108650922947948,2.0340618172814415,1801,-10,19.36884481016863,39.043741772232025
1.1289864172909299,2.0340414813716854,1801,-10,19.36884481016863,39.043741772232025
1.149321703529914,2.03402114567087,1801,-10,19.36884481016863,39.043741772232025
1.169656782036058,2.0340008101785605,1801,-10,19.36884481016863,39.043741772232025
1.1899916531521197,2.033980474894355,1801,-10,19.36884481016863,39.043741772232025
1.21032631719464,2.0339601398178826,1801,-10,19.36884481016863,39.043741772232025
1.2306607744559617,2.0339398049488002,1801,-10,19.36884481016863,39.043741772232025
1.2509950252060904,2.033919470286791,1801,-10,19.36884481016863,39.043741772232025
1.2713290696944128,2.0338991358315632,1801,-10,19.36884481016863,39.043741772232025
1.2916629081512851,2.0338788015828464,1801,-10,19.36884481016863,39.043741772232025
1.3119965407894951,2.0338584675403917,1801,-10,19.36884481016863,39.043741772232025
1.332329967805614,2.033838133703968,1801,-10,19.36884481016863,39.043741772232025
1.3526631893812464,2.0338178000733635,1801,-10,19.36884481016863,39.043741772232025
1.3729962056841793,2.0337974666483807,1801,-10,19.36884481016863,39.043741772232025
1.3933290168694465,2.0337771334288384,1801,-10,19.36884481016863,39.043741772232025
1.4136616230803094,2.0337568004145687,1801,-10,19.36884481016863,39.043741772232025
1.4339940244491634,2.033736467605417,1801,-10,19.36884481016863,39.043741772232025
1.4543262210983734,2.033716135001239,1801,-10,19.36884481016863,39.043741772232025
1.4746582131410453,2.033695802601904,1801,-10,19.36884481016863,39.043741772232025
1.4949900006817398,2.033675470407288,1801,-10,19.36884481016863,39.043741772232025
1.5153215838171277,2.0336551384172785,1801,-10,19.36884481016863,39.043741772232025
1.5356529626365987,2.033634806631771,1801,-10,19.36884481016863,39.043741772232025
1.5559841372228214,2.0336144750506686,1801,-10,19.36884481016863,39.043741772232025
1.5763151076522592,2.0335941436738825,1801,-10,19.36884481016863,39.043741772232025
1.5966458739956495,2.0335738125013294,1801,-10,19.36884481016863,39.043741772232025
1.6169764363184431,2.033553481532933,1801,-10,19.36884481016863,39.043741772232025
1.6373067946812108,2.0335331507686227,1801,-10,19.36884481016863,39.043741772232025
1.6576369491400198,2.0335128202083332,1801,-10,19.36884481016863,39.043741772232025
1.6779668997467803,2.0334924898520033,1801,-10,19.36884481016863,39.043741772232025
1.6982966465495632,2.0334721596995777,1801,-10,19.36884481016863,39.043741772232025
1.718626189592898,2.033451829751004,1801,-10,19.36884481016863,39.043741772232025
1.7389555289180452,2.033431500006234,1801,-10,19.36884481016863,39.043741772232025
1.7592846645632454,2.033411170465224,1801,-10,19.36884481016863,39.043741772232025
1.7796135965639543,2.0333908411279316,1801,-10,19.36884481016863,39.043741772232025
1.7999423249530553,2.0333705119943195,1801,-10,19.36884481016863,39.043741772232025
1.820270849761059,2.0333501830643517,1801,-10,19.36884481016863,39.043741772232025
1.8405991710162828,2.0333298543379956,1801,-10,19.36884481016863,39.043741772232025
1.860927288745024,2.0333095258152203,1801,-10,19.36884481016863,39.043741772232025
1.8812552029717113,2.033289197495998,1801,-10,19.36884481016863,39.043741772232025
1.901582913719051,2.033268869380302,1801,-10,19.36884481016863,39.043741772232025
1.9219104210081577,2.033248541468108,1801,-10,19.36884481016863,39.043741772232025
1.9422377248586788,2.0332282137593936,1801,-10,19.36884481016863,39.043741772232025
1.9625648252889052,2.033207886254137,1801,-10,19.36884481016863,39.043741772232025
1.9828917223158777,2.0331875589523194,1801,-10,19.36884481016863,39.043741772232025
2.003218415955482,2.033167231853922,1801,-10,19.36884481016863,39.043741772232025
2.0235449062225377,2.0331469049589277,1801,-10,19.36884481016863,39.043741772232025
2.0438711931308813,2.033126578267321,1801,-10,19.36884481016863,39.043741772232025
2.0641972766934384,2.0331062517790865,1801,-10,19.36884481016863,39.043741772232025
2.0845231569222995,2.033085925494211,1801,-10,19.36884481016863,39.043741772232025
2.10484883382878,2.033065599412681,1801,-10,19.36884481016863,39.043741772232025
2.12517430742348,2.033045273534485,1801,-10,19.36884481016863,39.043741772232025
2.145499577716342,2.033024947859611,1801,-10,19.36884481016863,39.043741772232025
2.1658246447166976,2.0330046223880487,1801,-10,19.36884481016863,39.043741772232025
2.18614950843332,2.0329842971197887,1801,-10,19.36884481016863,39.043741772232025
2.20647416887446,2.0329639720548207,1801,-10,19.36884481016863,39.043741772232025
2.2267986260478927,2.032943647193137,1801,-10,19.36884481016863,39.043741772232025
2.2471228799609495,2.032923322534728,1801,-10,19.36884481016863,39.043741772232025
2.267446930620555,2.032902998079587,1801,-10,19.36884481016863,39.043741772232025
2.2877707780332557,2.0328826738277064,1801,-10,19.36884481016863,39.043741772232025
2.308094422205254,2.032862349779079,1801,-10,19.36884481016863,39.043741772232025
2.3284178631424273,2.0328420259336992,1801,-10,19.36884481016863,39.043741772232025
2.3487411008503605,2.0328217022915593,1801,-10,19.36884481016863,39.043741772232025
2.3690641353343627,2.0328013788526547,1801,-10,19.36884481016863,39.043741772232025
2.3893869665994925,2.032781055616979,1801,-10,19.36884481016863,39.043741772232025
2.409709594650574,2.0327607325845274,1801,-10,19.36884481016863,39.043741772232025
2.4300320194922174,2.0327404097552946,1801,-10,19.36884481016863,39.043741772232025
2.4503542411288346,2.0327200871292757,1801,-10,19.36884481016863,39.043741772232025
2.4706762595646525,2.0326997647064666,1801,-10,19.36884481016863,39.043741772232025
2.4909980748037324,2.032679442486862,1801,-10,19.36884481016863,39.043741772232025
2.5113196868499763,2.0326591204704587,1801,-10,19.36884481016863,39.043741772232025
2.531641095707144,2.032638798657252,1801,-10,19.36884481016863,39.043741772232025
2.551962301378861,2.0326184770472375,1801,-10,19.36884481016863,39.043741772232025
2.5722833038686317,2.0325981556404127,1801,-10,19.36884481016863,39.043741772232025
2.5926041031798452,2.0325778344367733,1801,-10,19.36884481016863,39.043741772232025
2.612924699315788,2.0325575134363154,1801,-10,19.36884481016863,39.043741772232025
2.633245092279648,2.0325371926390363,1801,-10,19.36884481016863,39.043741772232025
2.653565282074526,2.0325168720449325,1801,-10,19.36884481016863,39.043741772232025
2.6738852687034393,2.032496551654001,1801,-10,19.36884481016863,39.043741772232025
2.694205052169331,2.032476231466238,1801,-10,19.36884481016863,39.043741772232025
2.71452463247507,2.032455911481641,1801,-10,19.36884481016863,39.043741772232025
2.7348440096234654,2.032435591700207,1801,-10,19.36884481016863,39.043741772232025
2.7551631836172636,2.0324152721219333,1801,-10,19.36884481016863,39.043741772232025
2.7754821544591577,2.032394952746817,1801,-10,19.36884481016863,39.043741772232025
2.7958009221517868,2.032374633574855,1801,-10,19.36884481016863,39.043741772232025
2.816119486697748,2.0323543146060454,1801,-10,19.36884481016863,39.043741772232025
2.83643784809959,2.0323339958403843,1801,-10,19.36884481016863,39.043741772232025
2.856756006359825,2.0323136772778705,1801,-10,19.36884481016863,39.043741772232025
2.877073961480926,2.0322933589185004,1801,-10,19.36884481016863,39.043741772232025
2.897391713465333,2.032273040762272,1801,-10,19.36884481016863,39.043741772232025
2.917709262315454,2.032252722809183,1801,-10,19.36884481016863,39.043741772232025
2.93802660803367,2.03223240505923,1801,-10,19.36884481016863,39.043741772232025
2.9583437506223307,2.032212087512412,1801,-10,19.36884481016863,39.043741772232025
2.9786606900837658,2.0321917701687253,1801,-10,19.36884481016863,39.043741772232025
2.9989774264202786,2.0321714530281687,1801,-10,19.36884481016863,39.043741772232025
3.019293959634154,2.032151136090739,1801,-10,19.36884481016863,39.043741772232025
3.0396102897276562,2.0321308193564342,1801,-10,19.36884481016863,39.043741772232025
3.0599264167030316,2.032110502825252,1801,-10,19.36884481016863,39.043741772232025
3.0802423405625086,2.03209018649719,1801,-10,19.36884481016863,39.043741772232025
3.1005580613083015,2.032069870372246,1801,-10,19.36884481016863,39.043741772232025
3.1208735789426107,2.0320495544504187,1801,-10,19.36884481016863,39.043741772232025
3.1411888934676253,2.0320292387317043,1801,-10,19.36884481016863,39.043741772232025
3.161504004885517,2.0320089232161016,1801,-10,19.36884481016863,39.043741772232025
3.1818189131984522,2.031988607903608,1801,-10,19.36884481016863,39.043741772232025
3.2021336184085833,2.0319682927942218,1801,-10,19.36884481016863,39.043741772232025
3.2224481205180546,2.0319479778879406,1801,-10,19.36884481016863,39.043741772232025
3.242762419529002,2.031927663184762,1801,-10,19.36884481016863,39.043741772232025
3.263076515443552,2.0319073486846837,1801,-10,19.36884481016863,39.043741772232025
3.2833904082638248,2.0318870343877045,1801,-10,19.36884481016863,39.043741772232025
3.3037040979919334,2.0318667202938214,1801,-10,19.36884481016863,39.043741772232025
3.3240175846299844,2.0318464064030324,1801,-10,19.36884481016863,39.043741772232025
3.3443308681800787,2.0318260927153355,1801,-10,19.36884481016863,39.043741772232025
3.364643948644311,2.031805779230729,1801,-10,19.36884481016863,39.043741772232025
3.3849568260247715,2.0317854659492105,1801,-10,19.36884481016863,39.043741772232025
3.405269500323546,2.0317651528707774,1801,-10,19.36884481016863,39.043741772232025
3.425581971542716,2.031744839995428,1801,-10,19.36884481016863,39.043741772232025
3.4458942396843577,2.031724527323161,1801,-10,19.36884481016863,39.043741772232025
3.466206304750547,2.031704214853973,1801,-10,19.36884481016863,39.043741772232025
3.486518166743354,2.0316839025878624,1801,-10,19.36884481016863,39.043741772232025
3.506829825664844,2.0316635905248277,1801,-10,19.36884481016863,39.043741772232025
3.527141281517083,2.031643278664866,1801,-10,19.36884481016863,39.043741772232025
3.547452534302132,2.031622967007976,1801,-10,19.36884481016863,39.043741772232025
3.567763584022051,2.031602655554155,1801,-10,19.36884481016863,39.043741772232025
3.5880744306788963,2.0315823443034007,1801,-10,19.36884481016863,39.043741772232025
3.6083850742747234,2.031562033255712,1801,-10,19.36884481016863,39.043741772232025
3.628695514811586,2.0315417224110863,1801,-10,19.36884481016863,39.043741772232025
3.6490057522915333,2.0315214117695217,1801,-10,19.36884481016863,39.043741772232025
3.669315786716617,2.031501101331016,1801,-10,19.36884481016863,39.043741772232025
3.689625618088884,2.031480791095567,1801,-10,19.36884481016863,39.043741772232025
3.709935246410381,2.031460481063173,1801,-10,19.36884481016863,39.043741772232025
3.7302446716831548,2.0314401712338315,1801,-10,19.36884481016863,39.043741772232025
3.7505538939092475,2.031419861607541,1801,-10,19.36884481016863,39.043741772232025
3.770862913090704,2.0313995521842996,1801,-10,19.36884481016863,39.043741772232025
3.791171729229565,2.031379242964104,1801,-10,19.36884481016863,39.043741772232025
3.8114803423278723,2.0313589339469535,1801,-10,19.36884481016863,39.043741772232025
3.831788752387666,2.031338625132846,1801,-10,19.36884481016863,39.043741772232025
3.852096959410985,2.0313183165217783,1801,-10,19.36884481016863,39.043741772232025
3.8724049633998674,2.0312980081137493,1801,-10,19.36884481016863,39.043741772232025
3.8927127643563533,2.031277699908757,1801,-10,19.36884481016863,39.043741772232025
3.913020362282479,2.031257391906799,1801,-10,19.36884481016863,39.043741772232025
3.9333277571802805,2.0312370841078735,1801,-10,19.36884481016863,39.043741772232025
3.9536349490517946,2.031216776511978,1801,-10,19.36884481016863,39.043741772232025
3.9739419378990566,2.031196469119111,1801,-10,19.36884481016863,39.043741772232025
3.9942487237241022,2.0311761619292703,1801,-10,19.36884481016863,39.043741772232025
4.014555306528966,2.0311558549424538,1801,-10,19.36884481016863,39.043741772232025
4.034861686315683,2.0311355481586593,1801,-10,19.36884481016863,39.043741772232025
4.055167863086285,2.031115241577885,1801,-10,19.36884481016863,39.043741772232025
4.075473836842807,2.0310949352001293,1801,-10,19.36884481016863,39.043741772232025
4.095779607587283,2.0310746290253894,1801,-10,19.36884481016863,39.043741772232025
4.116085175321744,2.0310543230536635,1801,-10,19.36884481016863,39.043741772232025
4.136390540048225,2.0310340172849495,1801,-10,19.36884481016863,39.043741772232025
4.156695701768759,2.0310137117192455,1801,-10,19.36884481016863,39.043741772232025
4.177000660485375,2.03099340635655,1801,-10,19.36884481016863,39.043741772232025
4.197305416200107,2.0309731011968597,1801,-10,19.36884481016863,39.043741772232025
4.217609968914987,2.0309527962401734,1801,-10,19.36884481016863,39.043741772232025
4.237914318632044,2.0309324914864892,1801,-10,19.36884481016863,39.043741772232025
4.2582184653533135,2.030912186935805,1801,-10,19.36884481016863,39.043741772232025
4.278522409080824,2.0308918825881186,1801,-10,19.36884481016863,39.043741772232025
4.298826149816606,2.0308715784434277,1801,-10,19.36884481016863,39.043741772232025
4.319129687562694,2.0308512745017304,1801,-10,19.36884481016863,39.043741772232025
4.339433022321115,2.030830970763025,1801,-10,19.36884481016863,39.043741772232025
4.359736154093902,2.0308106672273096,1801,-10,19.36884481016863,39.043741772232025
4.380039082883085,2.0307903638945817,1801,-10,19.36884481016863,39.043741772232025
4.400341808690694,2.030770060764839,1801,-10,19.36884481016863,39.043741772232025
4.42064433151876,2.03074975783808,1801,-10,19.36884481016863,39.043741772232025
4.4409466513693125,2.0307294551143027,1801,-10,19.36884481016863,39.043741772232025
4.461248768244382,2.0307091525935053,1801,-10,19.36884481016863,39.043741772232025
4.481550682145999,2.030688850275685,1801,-10,19.36884481016863,39.043741772232025
4.501852393076193,2.03066854816084,1801,-10,19.36884481016863,39.043741772232025
4.522153901036994,2.0306482462489686,1801,-10,19.36884481016863,39.043741772232025
4.542455206030431,2.030627944540069,1801,-10,19.36884481016863,39.043741772232025
4.562756308058535,2.030607643034138,1801,-10,19.36884481016863,39.043741772232025
4.5830572071233355,2.0305873417311746,1801,-10,19.36884481016863,39.043741772232025
4.603357903226862,2.0305670406311767,1801,-10,19.36884481016863,39.043741772232025
4.623658396371145,2.030546739734142,1801,-10,19.36884481016863,39.043741772232025
4.643958686558212,2.030526439040069,1801,-10,19.36884481016863,39.043741772232025
4.664258773790093,2.0305061385489545,1801,-10,19.36884481016863,39.043741772232025
4.684558658068818,2.0304858382607978,1801,-10,19.36884481016863,39.043741772232025
4.704858339396417,2.0304655381755956,1801,-10,19.36884481016863,39.043741772232025
4.725157817774919,2.030445238293347,1801,-10,19.36884481016863,39.043741772232025
4.745457093206353,2.0304249386140496,1801,-10,19.36884481016863,39.043741772232025
4.765756165692748,2.030404639137701,1801,-10,19.36884481016863,39.043741772232025
4.786055035236134,2.0303843398642996,1801,-10,19.36884481016863,39.043741772232025
4.806353701838538,2.030364040793843,1801,-10,19.36884481016863,39.043741772232025
