Vout,Iout,Irradiance,Temperature,MaxVoltage,MaxPower
0.005541096720223845,1.10823,901,40,22.856729017940285,24.772860996562443
0.016623187700548735,1.10823,901,40,22.856729017940285,24.772860996562443
0.027705053384743647,1.1082243480802798,901,40,22.856729017940285,24.772860996562443
0.03878665352372956,1.1082132659892996,901,40,22.856729017940285,24.772860996562443
0.04986797496340918,1.1082021841241805,901,40,22.856729017940285,24.772860996562443
0.06094903062528728,1.1081911025251496,901,40,22.856729017940285,24.772860996562443
0.07202983243712122,1.1081800212048183,901,40,22.856729017940285,24.772860996562443
0.08311039140913597,1.1081689401502646,901,40,22.856729017940285,24.772860996562443
0.09419071770449765,1.108157859349561,901,40,22.856729017940285,24.772860996562443
0.1052708207044877,1.108146778791697,901,40,22.856729017940285,24.772860996562443
0.11635070906866217,1.1081356984665096,901,40,22.856729017940285,24.772860996562443
0.1274303907903825,1.1081246183646176,901,40,22.856729017940285,24.772860996562443
0.1385098732480734,1.1081135384773615,901,40,22.856729017940285,24.772860996562443
0.1495891632525374,1.1081024587967478,901,40,22.856729017940285,24.772860996562443
0.16066826709062818,1.1080913793153981,901,40,22.856729017940285,24.772860996562443
0.17174719056556434,1.1080803000265016,901,40,22.856729017940285,24.772860996562443
0.1828259390341409,1.1080692209237715,901,40,22.856729017940285,24.772860996562443
0.19390451744107776,1.1080581420014044,901,40,22.856729017940285,24.772860996562443
0.20498293035072554,1.1080470632540438,901,40,22.856729017940285,24.772860996562443
0.21606118197633173,1.1080359846767447,901,40,22.856729017940285,24.772860996562443
0.22713927620705524,1.108024906264943,901,40,22.856729017940285,24.772860996562443
0.23821721663290193,1.1080138280144252,901,40,22.856729017940285,24.772860996562443
0.2492950065677423,1.1080027499213023,901,40,22.856729017940285,24.772860996562443
0.2603726490705577,1.1079916719819844,901,40,22.856729017940285,24.772860996562443
0.27145014696505176,1.1079805941931573,901,40,22.856729017940285,24.772860996562443
0.28252750285775297,1.1079695165517622,901,40,22.856729017940285,24.772860996562443
0.29360471915472475,1.1079584390549755,901,40,22.856729017940285,24.772860996562443
0.3046817980769895,1.1079473617001907,901,40,22.856729017940285,24.772860996562443
0.3157587416747656,1.1079362844850014,901,40,22.856729017940285,24.772860996562443
0.3268355518406097,1.1079252074071868,901,40,22.856729017940285,24.772860996562443
0.33791223032154727,1.107914130464697,901,40,22.856729017940285,24.772860996562443
0.3489887787302703,1.1079030536556387,901,40,22.856729017940285,24.772860996562443
0.3600651985554727,1.1078919769782654,901,40,22.856729017940285,24.772860996562443
0.37114149117139106,1.1078809004309644,901,40,22.856729017940285,24.772860996562443
0.38221765784661127,1.1078698240122469,901,40,22.856729017940285,24.772860996562443
0.3932936997521976,1.1078587477207387,901,40,22.856729017940285,24.772860996562443
0.4043696179691958,1.107847671555171,901,40,22.856729017940285,24.772860996562443
0.41544541349555936,1.107836595514373,901,40,22.856729017940285,24.772860996562443
0.42652108725254284,1.1078255195972637,901,40,22.856729017940285,24.772860996562443
0.43759664009060334,1.107814443802845,901,40,22.856729017940285,24.772860996562443
0.44867207279484755,1.1078033681301955,901,40,22.856729017940285,24.772860996562443
0.4597473860900598,1.1077922925784651,901,40,22.856729017940285,24.772860996562443
0.47082258064534405,1.1077812171468684,901,40,22.856729017940285,24.772860996562443
0.4818976570784068,1.1077701418346808,901,40,22.856729017940285,24.772860996562443
0.4929726159595131,1.107759066641233,901,40,22.856729017940285,24.772860996562443
0.5040474578151355,1.1077479915659074,901,40,22.856729017940285,24.772860996562443
0.5151221831313245,1.107736916608134,901,40,22.856729017940285,24.772860996562443
0.5261967923568182,1.1077258417673859,901,40,22.856729017940285,24.772860996562443
0.537271285905913,1.107714767043177,901,40,22.856729017940285,24.772860996562443
0.5483456641611141,1.107703692435059,901,40,22.856729017940285,24.772860996562443
0.5594199274755811,1.1076926179426174,901,40,22.856729017940285,24.772860996562443
0.5704940761753863,1.1076815435654697,901,40,22.856729017940285,24.772860996562443
0.5815681105615984,1.1076704693032626,901,40,22.856729017940285,24.772860996562443
0.5926420309122069,1.1076593951556704,901,40,22.856729017940285,24.772860996562443
0.6037158374838973,1.1076483211223915,901,40,22.856729017940285,24.772860996562443
0.6147895305136905,1.1076372472031484,901,40,22.856729017940285,24.772860996562443
0.6258631102204557,1.107626173397684,901,40,22.856729017940285,24.772860996562443
0.6369365768063072,1.1076150997057617,901,40,22.856729017940285,24.772860996562443
0.6480099304578936,1.1076040261271622,901,40,22.856729017940285,24.772860996562443
0.6590831713475871,1.1075929526616837,901,40,22.856729017940285,24.772860996562443
0.6701562996345833,1.1075818793091396,901,40,22.856729017940285,24.772860996562443
0.6812293154659133,1.1075708060693572,901,40,22.856729017940285,24.772860996562443
0.6923022189773813,1.1075597329421776,901,40,22.856729017940285,24.772860996562443
0.7033750102944273,1.1075486599274535,901,40,22.856729017940285,24.772860996562443
0.7144476895329247,1.1075375870250495,901,40,22.856729017940285,24.772860996562443
0.7255202567999167,1.1075265142348396,901,40,22.856729017940285,24.772860996562443
0.7365927121942961,1.1075154415567083,901,40,22.856729017940285,24.772860996562443
0.7476650558074308,1.1075043689905486,901,40,22.856729017940285,24.772860996562443
0.758737287723745,1.1074932965362616,901,40,22.856729017940285,24.772860996562443
0.7698094080212518,1.1074822241937556,901,40,22.856729017940285,24.772860996562443
0.7808814167720465,1.1074711519629465,901,40,22.856729017940285,24.772860996562443
0.7919533140427633,1.1074600798437564,901,40,22.856729017940285,24.772860996562443
0.803025099894994,1.1074490078361128,901,40,22.856729017940285,24.772860996562443
0.8140967743856771,1.1074379359399493,901,40,22.856729017940285,24.772860996562443
0.8251683375674547,1.1074268641552043,901,40,22.856729017940285,24.772860996562443
0.836239789489004,1.1074157924818209,901,40,22.856729017940285,24.772860996562443
0.8473111301953419,1.1074047209197462,901,40,22.856729017940285,24.772860996562443
0.8583823597281071,1.1073936494689318,901,40,22.856729017940285,24.772860996562443
0.869453478125819,1.1073825781293327,901,40,22.856729017940285,24.772860996562443
0.880524485424119,1.107371506900907,901,40,22.856729017940285,24.772860996562443
0.8915953816559915,1.1073604357836164,901,40,22.856729017940285,24.772860996562443
0.9026661668519674,1.1073493647774253,901,40,22.856729017940285,24.772860996562443
0.913736841040314,1.1073382938823004,901,40,22.856729017940285,24.772860996562443
0.924807404247209,1.1073272230982116,901,40,22.856729017940285,24.772860996562443
0.935877856496901,1.1073161524251303,901,40,22.856729017940285,24.772860996562443
0.9469481978118577,1.1073050818630306,901,40,22.856729017940285,24.772860996562443
0.9580184282129033,1.1072940114118879,901,40,22.856729017940285,24.772860996562443
0.9690885477193455,1.10728294107168,901,40,22.856729017940285,24.772860996562443
0.9801585563490909,1.107271870842386,901,40,22.856729017940285,24.772860996562443
0.9912284541187535,1.1072608007239866,901,40,22.856729017940285,24.772860996562443
1.0022982410437544,1.107249730716464,901,40,22.856729017940285,24.772860996562443
1.0133679171384131,1.1072386608198013,901,40,22.856729017940285,24.772860996562443
1.0244374824160327,1.1072275910339833,901,40,22.856729017940285,24.772860996562443
1.0355069368889773,1.1072165213589955,901,40,22.856729017940285,24.772860996562443
1.0465762805687455,1.1072054517948249,901,40,22.856729017940285,24.772860996562443
1.057645513466036,1.107194382341459,901,40,22.856729017940285,24.772860996562443
1.0687146355908095,1.1071833129988862,901,40,22.856729017940285,24.772860996562443
1.079783646952345,1.1071722437670959,901,40,22.856729017940285,24.772860996562443
1.0908525475592932,1.1071611746460779,901,40,22.856729017940285,24.772860996562443
1.1019213374197243,1.1071501056358233,901,40,22.856729017940285,24.772860996562443
1.1129900165411726,1.1071390367363232,901,40,22.856729017940285,24.772860996562443
1.1240585849306775,1.1071279679475698,901,40,22.856729017940285,24.772860996562443
1.1351270425948223,1.1071168992695553,901,40,22.856729017940285,24.772860996562443
1.1461953895397687,1.1071058307022725,901,40,22.856729017940285,24.772860996562443
1.1572636257712894,1.1070947622457152,901,40,22.856729017940285,24.772860996562443
1.1683317512947982,1.1070836938998772,901,40,22.856729017940285,24.772860996562443
1.179399766115377,1.1070726256647525,901,40,22.856729017940285,24.772860996562443
1.1904676702378025,1.1070615575403358,901,40,22.856729017940285,24.772860996562443
1.2015354636665687,1.107050489526622,901,40,22.856729017940285,24.772860996562443
1.2126031464059086,1.1070394216236066,901,40,22.856729017940285,24.772860996562443
1.2236707184598155,1.1070283538312846,901,40,22.856729017940285,24.772860996562443
1.2347381798320591,1.107017286149652,901,40,22.856729017940285,24.772860996562443
1.2458055305262055,1.1070062185787048,901,40,22.856729017940285,24.772860996562443
1.2568727705456308,1.1069951511184393,901,40,22.856729017940285,24.772860996562443
1.267939899893537,1.106984083768852,901,40,22.856729017940285,24.772860996562443
1.2790069185729642,1.1069730165299394,901,40,22.856729017940285,24.772860996562443
1.290073826586804,1.1069619494016982,901,40,22.856729017940285,24.772860996562443
1.3011406239378107,1.1069508823841254,901,40,22.856729017940285,24.772860996562443
1.3122073106286118,1.1069398154772183,901,40,22.856729017940285,24.772860996562443
1.3232738866617173,1.106928748680974,901,40,22.856729017940285,24.772860996562443
1.33434035203953,1.1069176819953899,901,40,22.856729017940285,24.772860996562443
1.3454067067643518,1.1069066154204634,901,40,22.856729017940285,24.772860996562443
1.3564729508383944,1.1068955489561922,901,40,22.856729017940285,24.772860996562443
1.3675390842637816,1.106884482602574,901,40,22.856729017940285,24.772860996562443
1.3786051070425616,1.1068734163596068,901,40,22.856729017940285,24.772860996562443
1.3896710191767085,1.106862350227288,901,40,22.856729017940285,24.772860996562443
1.4007368206681305,1.106851284205616,901,40,22.856729017940285,24.772860996562443
1.4118025115186739,1.1068402182945882,901,40,22.856729017940285,24.772860996562443
1.4228680917301275,1.1068291524942035,901,40,22.856729017940285,24.772860996562443
1.433933561304228,1.1068180868044595,901,40,22.856729017940285,24.772860996562443
1.4449989202426634,1.1068070212253547,901,40,22.856729017940285,24.772860996562443
1.4560641685470768,1.1067959557568872,901,40,22.856729017940285,24.772860996562443
1.4671293062190702,1.1067848903990554,901,40,22.856729017940285,24.772860996562443
1.4781943332602074,1.1067738251518573,901,40,22.856729017940285,24.772860996562443
1.489259249672017,1.1067627600152918,901,40,22.856729017940285,24.772860996562443
1.5003240554559951,1.1067516949893572,901,40,22.856729017940285,24.772860996562443
1.5113887506136077,1.106740630074052,901,40,22.856729017940285,24.772860996562443
1.522453335146293,1.1067295652693745,901,40,22.856729017940285,24.772860996562443
1.5335178090554633,1.1067185005753235,901,40,22.856729017940285,24.772860996562443
1.5445821723425082,1.1067074359918971,901,40,22.856729017940285,24.772860996562443
1.5556464250087947,1.1066963715190945,901,40,22.856729017940285,24.772860996562443
1.5667105670556705,1.106685307156914,901,40,22.856729017940285,24.772860996562443
1.5777745984844633,1.1066742429053542,901,40,22.856729017940285,24.772860996562443
1.5888385192964856,1.1066631787644137,901,40,22.856729017940285,24.772860996562443
1.599902329493032,1.1066521147340913,901,40,22.856729017940285,24.772860996562443
1.6109660290753842,1.1066410508143858,901,40,22.856729017940285,24.772860996562443
1.6220296180448093,1.1066299870052956,901,40,22.856729017940285,24.772860996562443
1.633093096402562,1.1066189233068195,901,40,22.856729017940285,24.772860996562443
1.644156464149887,1.1066078597189566,901,40,22.856729017940285,24.772860996562443
1.655219721288016,1.1065967962417051,901,40,22.856729017940285,24.772860996562443
1.6662828678181734,1.1065857328750641,901,40,22.856729017940285,24.772860996562443
1.677345903741573,1.1065746696190324,901,40,22.856729017940285,24.772860996562443
1.68840882905942,1.1065636064736086,901,40,22.856729017940285,24.772860996562443
1.6994716437729132,1.1065525434387915,901,40,22.856729017940285,24.772860996562443
1.710534347883243,1.10654148051458,901,40,22.856729017940285,24.772860996562443
1.7215969413915944,1.1065304177009727,901,40,22.856729017940285,24.772860996562443
1.732659424299145,1.1065193549979688,901,40,22.856729017940285,24.772860996562443
1.7437217966070684,1.1065082924055667,901,40,22.856729017940285,24.772860996562443
1.7547840583165317,1.1064972299237654,901,40,22.856729017940285,24.772860996562443
1.7658462094286975,1.1064861675525637,901,40,22.856729017940285,24.772860996562443
1.7769082499447246,1.1064751052919606,901,40,22.856729017940285,24.772860996562443
1.7879701798657668,1.1064640431419546,901,40,22.856729017940285,24.772860996562443
1.7990319991929755,1.1064529811025448,901,40,22.856729017940285,24.772860996562443
1.8100937079274977,1.10644191917373,901,40,22.856729017940285,24.772860996562443
1.8211553060704768,1.106430857355509,901,40,22.856729017940285,24.772860996562443
1.8322167936230533,1.1064197956478807,901,40,22.856729017940285,24.772860996562443
1.843278170586367,1.106408734050844,901,40,22.856729017940285,24.772860996562443
1.8543394369615522,1.1063976725643974,901,40,22.856729017940285,24.772860996562443
1.8654005927497432,1.1063866111885403,901,40,22.856729017940285,24.772860996562443
1.8764616379520707,1.1063755499232713,901,40,22.856729017940285,24.772860996562443
1.8875225725696638,1.1063644887685893,901,40,22.856729017940285,24.772860996562443
1.8985833966036507,1.106353427724493,901,40,22.856729017940285,24.772860996562443
1.9096441100551569,1.1063423667909815,901,40,22.856729017940285,24.772860996562443
1.9207047129253059,1.1063313059680537,901,40,22.856729017940285,24.772860996562443
1.9317652052152212,1.1063202452557082,901,40,22.856729017940285,24.772860996562443
1.9428255869260243,1.1063091846539441,901,40,22.856729017940285,24.772860996562443
1.9538858580588345,1.1062981241627603,901,40,22.856729017940285,24.772860996562443
1.9649460186147716,1.1062870637821556,901,40,22.856729017940285,24.772860996562443
1.9760060685949528,1.1062760035121288,901,40,22.856729017940285,24.772860996562443
1.9870660080004958,1.106264943352679,901,40,22.856729017940285,24.772860996562443
1.9981258368325168,1.1062538833038047,901,40,22.856729017940285,24.772860996562443
2.00918555509213,1.1062428233655053,901,40,22.856729017940285,24.772860996562443
2.020245162780452,1.1062317635377792,901,40,22.856729017940285,24.772860996562443
2.031304659898594,1.1062207038206255,901,40,22.856729017940285,24.772860996562443
2.0423640464476716,1.1062096442140432,901,40,22.856729017940285,24.772860996562443
2.0534233224287957,1.1061985847180311,901,40,22.856729017940285,24.772860996562443
2.0644824878430783,1.106187525332588,901,40,22.856729017940285,24.772860996562443
2.0755415426916315,1.1061764660577127,901,40,22.856729017940285,24.772860996562443
2.086600486975567,1.1061654068934044,901,40,22.856729017940285,24.772860996562443
2.097659320695994,1.1061543478396618,901,40,22.856729017940285,24.772860996562443
2.1087180438540236,1.1061432888964837,901,40,22.856729017940285,24.772860996562443
2.1197766564507647,1.1061322300638692,901,40,22.856729017940285,24.772860996562443
2.1308351584873275,1.106121171341817,901,40,22.856729017940285,24.772860996562443
2.141893549964821,1.1061101127303263,901,40,22.856729017940285,24.772860996562443
2.1529518308843527,1.1060990542293956,901,40,22.856729017940285,24.772860996562443
2.164010001247033,1.106087995839024,901,40,22.856729017940285,24.772860996562443
2.1750680610539694,1.1060769375592103,901,40,22.856729017940285,24.772860996562443
2.18612601030627,1.1060658793899534,901,40,22.856729017940285,24.772860996562443
2.1971838490050426,1.1060548213312522,901,40,22.856729017940285,24.772860996562443
2.208241577151394,1.106043763383106,901,40,22.856729017940285,24.772860996562443
2.2192991947464327,1.1060327055455128,901,40,22.856729017940285,24.772860996562443
2.230356701791265,1.1060216478184723,901,40,22.856729017940285,24.772860996562443
2.2414140982869992,1.106010590201983,901,40,22.856729017940285,24.772860996562443
2.2524713842347412,1.105999532696044,901,40,22.856729017940285,24.772860996562443
2.263528559635598,1.1059884753006541,901,40,22.856729017940285,24.772860996562443
2.274585624490676,1.105977418015812,901,40,22.856729017940285,24.772860996562443
2.2856425788010823,1.105966360841517,901,40,22.856729017940285,24.772860996562443
2.2966994225679227,1.1059553037777676,901,40,22.856729017940285,24.772860996562443
2.3077561557923043,1.1059442468245628,901,40,22.856729017940285,24.772860996562443
2.3188127784753325,1.1059331899819018,901,40,22.856729017940285,24.772860996562443
2.3298692906181144,1.105922133249783,901,40,22.856729017940285,24.772860996562443
2.3409256922217554,1.1059110766282056,901,40,22.856729017940285,24.772860996562443
2.3519819832873607,1.1059000201171687,901,40,22.856729017940285,24.772860996562443
2.3630381638160376,1.1058889637166707,901,40,22.856729017940285,24.772860996562443
2.3740942338088913,1.1058779074267107,901,40,22.856729017940285,24.772860996562443
2.385150193267027,1.1058668512472876,901,40,22.856729017940285,24.772860996562443
2.396206042191551,1.1058557951784005,901,40,22.856729017940285,24.772860996562443
2.407261780583569,1.105844739220048,901,40,22.856729017940285,24.772860996562443
2.418317408444186,1.1058336833722289,901,40,22.856729017940285,24.772860996562443
2.4293729257745085,1.1058226276349425,901,40,22.856729017940285,24.772860996562443
2.440428332575641,1.1058115720081876,901,40,22.856729017940285,24.772860996562443
2.4514836288486888,1.1058005164919629,901,40,22.856729017940285,24.772860996562443
2.4625388145947578,1.1057894610862673,901,40,22.856729017940285,24.772860996562443
2.4735938898149543,1.1057784057910998,901,40,22.856729017940285,24.772860996562443
2.484648854510382,1.1057673506064591,901,40,22.856729017940285,24.772860996562443
2.495703708682147,1.1057562955323446,901,40,22.856729017940285,24.772860996562443
2.5067584523313537,1.1057452405687547,901,40,22.856729017940285,24.772860996562443
2.5178130854591085,1.1057341857156884,901,40,22.856729017940285,24.772860996562443
2.5288676080665162,1.1057231309731446,901,40,22.856729017940285,24.772860996562443
2.5399220201546813,1.1057120763411223,901,40,22.856729017940285,24.772860996562443
2.55097632172471,1.1057010218196204,901,40,22.856729017940285,24.772860996562443
2.5620305127777065,1.1056899674086378,901,40,22.856729017940285,24.772860996562443
2.573084593314777,1.1056789131081732,901,40,22.856729017940285,24.772860996562443
2.5841385633370253,1.1056678589182256,901,40,22.856729017940285,24.772860996562443
2.5951924228455567,1.105656804838794,901,40,22.856729017940285,24.772860996562443
2.6062461718414762,1.1056457508698772,901,40,22.856729017940285,24.772860996562443
2.6172998103258895,1.105634697011474,901,40,22.856729017940285,24.772860996562443
2.6283533382999003,1.1056236432635835,901,40,22.856729017940285,24.772860996562443
