Vout,Iout,Irradiance,Temperature,MaxVoltage,MaxPower
0.006495837540023653,1.2991799999999998,1101,15,21.198281448160962,27.09155514733448
0.019487392505886776,1.2991799999999998,1101,15,21.198281448160962,27.09155514733448
0.03247868335669603,1.2991733742444598,1101,15,21.198281448160962,27.09155514733448
0.045469662908384494,1.299160382689494,1101,15,21.198281448160962,27.09155514733448
0.05846031574038054,1.2991473913993057,1101,15,21.198281448160962,27.09155514733448
0.07145065700058718,1.2991344004210532,1101,15,21.198281448160962,27.09155514733448
0.08444070067193556,1.2991214097695203,1101,15,21.198281448160962,27.09155514733448
0.097430459661732,1.2991084194295592,1101,15,21.198281448160962,27.09155514733448
0.11041994588427426,1.2990954293871868,1101,15,21.198281448160962,27.09155514733448
0.12340917033725521,1.2990824396294962,1101,15,21.198281448160962,27.09155514733448
0.13639814317228782,1.2990694501445725,1101,15,21.198281448160962,27.09155514733448
0.14938687376000387,1.2990564609214186,1101,15,21.198281448160962,27.09155514733448
0.1623753707501439,1.2990434719498825,1101,15,21.198281448160962,27.09155514733448
0.17536364212702374,1.2990304832205937,1101,15,21.198281448160962,27.09155514733448
0.18835169526073314,1.2990174947249025,1101,15,21.198281448160962,27.09155514733448
0.20133953695439563,1.2990045064548243,1101,15,21.198281448160962,27.09155514733448
0.21432717348779146,1.2989915184029897,1101,15,21.198281448160962,27.09155514733448
0.22731461065762465,1.2989785305625947,1101,15,21.198281448160962,27.09155514733448
0.24030185381469152,1.29896554292736,1101,15,21.198281448160962,27.09155514733448
0.2532889078981896,1.2989525554914891,1101,15,21.198281448160962,27.09155514733448
0.2662757774673867,1.2989395682496307,1101,15,21.198281448160962,27.09155514733448
0.2792624667308532,1.298926581196846,1101,15,21.198281448160962,27.09155514733448
0.2922489795734454,1.2989135943285757,1101,15,21.198281448160962,27.09155514733448
0.30523531958121247,1.2989006076406109,1101,15,21.198281448160962,27.09155514733448
0.31822149006438727,1.298887621129067,1101,15,21.198281448160962,27.09155514733448
0.3312074940786077,1.2988746347903577,1101,15,21.198281448160962,27.09155514733448
0.3441933344445064,1.2988616486211733,1101,15,21.198281448160962,27.09155514733448
0.3571790137657916,1.2988486626184577,1101,15,21.198281448160962,27.09155514733448
0.37016453444593816,1.2988356767793905,1101,15,21.198281448160962,27.09155514733448
0.3831498987035934,1.2988226911013678,1101,15,21.198281448160962,27.09155514733448
0.39613510858679857,1.2988097055819863,1101,15,21.198281448160962,27.09155514733448
0.4091201659861153,1.2987967202190271,1101,15,21.198281448160962,27.09155514733448
0.42210507264674213,1.2987837350104425,1101,15,21.198281448160962,27.09155514733448
0.43508983017969904,1.2987707499543417,1101,15,21.198281448160962,27.09155514733448
0.4480744400721516,1.2987577650489794,1101,15,21.198281448160962,27.09155514733448
0.46105890369694047,1.298744780292745,1101,15,21.198281448160962,27.09155514733448
0.4740432223213773,1.298731795684151,1101,15,21.198281448160962,27.09155514733448
0.48702739711536497,1.2987188112218249,1101,15,21.198281448160962,27.09155514733448
0.5000114291588919,1.2987058269044989,1101,15,21.198281448160962,27.09155514733448
0.5129953194489502,1.2986928427310034,1101,15,21.198281448160962,27.09155514733448
0.5259790689059222,1.2986798587002581,1101,15,21.198281448160962,27.09155514733448
0.5389626783794738,1.2986668748112666,1101,15,21.198281448160962,27.09155514733448
0.5519461486539962,1.298653891063108,1101,15,21.198281448160962,27.09155514733448
0.5649294804536286,1.2986409074549328,1101,15,21.198281448160962,27.09155514733448
0.5779126744468932,1.2986279239859566,1101,15,21.198281448160962,27.09155514733448
0.5908957312509749,1.2986149406554555,1101,15,21.198281448160962,27.09155514733448
0.6038786514356718,1.2986019574627605,1101,15,21.198281448160962,27.09155514733448
0.6168614355270396,1.2985889744072547,1101,15,21.198281448160962,27.09155514733448
0.6298440840107598,1.2985759914883683,1101,15,21.198281448160962,27.09155514733448
0.6428265973352429,1.2985630087055753,1101,15,21.198281448160962,27.09155514733448
0.6558089759144994,1.2985500260583898,1101,15,21.198281448160962,27.09155514733448
0.668791220130784,1.2985370435463637,1101,15,21.198281448160962,27.09155514733448
0.68177333033704,1.2985240611690827,1101,15,21.198281448160962,27.09155514733448
0.694755306859155,1.2985110789261647,1101,15,21.198281448160962,27.09155514733448
0.7077371499980418,1.2984980968172566,1101,15,21.198281448160962,27.09155514733448
0.7207188600315609,1.2984851148420327,1101,15,21.198281448160962,27.09155514733448
0.7337004372162926,1.298472133000192,1101,15,21.198281448160962,27.09155514733448
0.7466818817891758,1.2984591512914567,1101,15,21.198281448160962,27.09155514733448
0.7596631939690194,1.2984461697155703,1101,15,21.198281448160962,27.09155514733448
0.7726443739578956,1.2984331882722955,1101,15,21.198281448160962,27.09155514733448
0.785625421942429,1.2984202069614137,1101,15,21.198281448160962,27.09155514733448
0.7986063380949855,1.298407225782723,1101,15,21.198281448160962,27.09155514733448
0.8115871225747676,1.2983942447360366,1101,15,21.198281448160962,27.09155514733448
0.8245677755288293,1.2983812638211822,1101,15,21.198281448160962,27.09155514733448
0.837548297093009,1.2983682830380006,1101,15,21.198281448160962,27.09155514733448
0.8505286873927941,1.2983553023863446,1101,15,21.198281448160962,27.09155514733448
0.8635089465441161,1.2983423218660786,1101,15,21.198281448160962,27.09155514733448
0.8764890746540865,1.2983293414770767,1101,15,21.198281448160962,27.09155514733448
0.8894690718216756,1.2983163612192234,1101,15,21.198281448160962,27.09155514733448
0.9024489381383377,1.2983033810924116,1101,15,21.198281448160962,27.09155514733448
0.9154286736885915,1.298290401096542,1101,15,21.198281448160962,27.09155514733448
0.9284082785505515,1.2982774212315233,1101,15,21.198281448160962,27.09155514733448
0.9413877527964222,1.298264441497271,1101,15,21.198281448160962,27.09155514733448
0.9543670964929521,1.298251461893707,1101,15,21.198281448160962,27.09155514733448
0.9673463097018546,1.2982384824207591,1101,15,21.198281448160962,27.09155514733448
0.9803253924801933,1.2982255030783607,1101,15,21.198281448160962,27.09155514733448
0.993304344880742,1.2982125238664497,1101,15,21.198281448160962,27.09155514733448
1.0062831669523136,1.2981995447849692,1101,15,21.198281448160962,27.09155514733448
1.0192618587400648,1.2981865658338667,1101,15,21.198281448160962,27.09155514733448
1.0322404202857778,1.298173587013093,1101,15,21.198281448160962,27.09155514733448
1.04521885162812,1.2981606083226032,1101,15,21.198281448160962,27.09155514733448
1.058197152802883,1.2981476297623553,1101,15,21.198281448160962,27.09155514733448
1.0711753238432051,1.2981346513323109,1101,15,21.198281448160962,27.09155514733448
1.0841533647797743,1.2981216730324339,1101,15,21.198281448160962,27.09155514733448
1.0971312756410165,1.2981086948626914,1101,15,21.198281448160962,27.09155514733448
1.1101090564532714,1.2980957168230527,1101,15,21.198281448160962,27.09155514733448
1.1230867072409516,1.2980827389134892,1101,15,21.198281448160962,27.09155514733448
1.1360642280266904,1.2980697611339749,1101,15,21.198281448160962,27.09155514733448
1.1490416188314807,1.298056783484485,1101,15,21.198281448160962,27.09155514733448
1.162018879674799,1.298043805964997,1101,15,21.198281448160962,27.09155514733448
1.1749960105747228,1.29803082857549,1101,15,21.198281448160962,27.09155514733448
1.1879730115480394,1.2980178513159444,1101,15,21.198281448160962,27.09155514733448
1.2009498826103437,1.2980048741863421,1101,15,21.198281448160962,27.09155514733448
1.2139266237761308,1.2979918971866666,1101,15,21.198281448160962,27.09155514733448
1.2269032350588802,1.297978920316902,1101,15,21.198281448160962,27.09155514733448
1.239879716471134,1.2979659435770339,1101,15,21.198281448160962,27.09155514733448
1.2528560680245686,1.2979529669670489,1101,15,21.198281448160962,27.09155514733448
1.2658322897300625,1.2979399904869342,1101,15,21.198281448160962,27.09155514733448
1.2788083815977573,1.2979270141366785,1101,15,21.198281448160962,27.09155514733448
1.291784343637113,1.2979140379162706,1101,15,21.198281448160962,27.09155514733448
1.3047601758569616,1.2979010618257005,1101,15,21.198281448160962,27.09155514733448
1.3177358782655564,1.2978880858649589,1101,15,21.198281448160962,27.09155514733448
1.3307114508706144,1.2978751100340367,1101,15,21.198281448160962,27.09155514733448
1.3436868936793593,1.2978621343329257,1101,15,21.198281448160962,27.09155514733448
1.3566622066985583,1.297849158761618,1101,15,21.198281448160962,27.09155514733448
1.3696373899345582,1.297836183320107,1101,15,21.198281448160962,27.09155514733448
1.3826124433933162,1.2978232080083854,1101,15,21.198281448160962,27.09155514733448
1.3955873670804329,1.297810232826447,1101,15,21.198281448160962,27.09155514733448
1.4085621610011754,1.2977972577742856,1101,15,21.198281448160962,27.09155514733448
1.4215368251605067,1.297784282851896,1101,15,21.198281448160962,27.09155514733448
1.4345113595631076,1.2977713080592728,1101,15,21.198281448160962,27.09155514733448
1.447485764213398,1.297758333396411,1101,15,21.198281448160962,27.09155514733448
1.4604600391155587,1.2977453588633059,1101,15,21.198281448160962,27.09155514733448
1.4734341842735468,1.297732384459953,1101,15,21.198281448160962,27.09155514733448
1.4864081996911158,1.2977194101863483,1101,15,21.198281448160962,27.09155514733448
1.4993820853718305,1.2977064360424877,1101,15,21.198281448160962,27.09155514733448
1.51235584131908,1.2976934620283676,1101,15,21.198281448160962,27.09155514733448
1.5253294675360942,1.2976804881439843,1101,15,21.198281448160962,27.09155514733448
1.538302964025952,1.2976675143893346,1101,15,21.198281448160962,27.09155514733448
1.5512763307915967,1.2976545407644149,1101,15,21.198281448160962,27.09155514733448
1.5642495678358443,1.2976415672692223,1101,15,21.198281448160962,27.09155514733448
1.5772226751613942,1.2976285939037542,1101,15,21.198281448160962,27.09155514733448
1.5901956527708385,1.2976156206680072,1101,15,21.198281448160962,27.09155514733448
1.6031685006666676,1.297602647561979,1101,15,21.198281448160962,27.09155514733448
1.6161412188512823,1.2975896745856668,1101,15,21.198281448160962,27.09155514733448
1.6291138073269975,1.2975767017390683,1101,15,21.198281448160962,27.09155514733448
1.6420862660960491,1.297563729022181,1101,15,21.198281448160962,27.09155514733448
1.6550585951606012,1.2975507564350026,1101,15,21.198281448160962,27.09155514733448
1.668030794522752,1.2975377839775308,1101,15,21.198281448160962,27.09155514733448
1.681002864184537,1.2975248116497635,1101,15,21.198281448160962,27.09155514733448
1.693974804147935,1.2975118394516987,1101,15,21.198281448160962,27.09155514733448
1.7069466144148724,1.297498867383334,1101,15,21.198281448160962,27.09155514733448
1.7199182949872267,1.297485895444668,1101,15,21.198281448160962,27.09155514733448
1.7328898458668318,1.297472923635698,1101,15,21.198281448160962,27.09155514733448
1.7458612670554796,1.297459951956423,1101,15,21.198281448160962,27.09155514733448
1.7588325585549234,1.2974469804068405,1101,15,21.198281448160962,27.09155514733448
1.7718037203668826,1.2974340089869492,1101,15,21.198281448160962,27.09155514733448
1.784774752493042,1.2974210376967468,1101,15,21.198281448160962,27.09155514733448
1.7977456549350586,1.297408066536232,1101,15,21.198281448160962,27.09155514733448
1.8107164276945609,1.297395095505403,1101,15,21.198281448160962,27.09155514733448
1.8236870707731512,1.297382124604258,1101,15,21.198281448160962,27.09155514733448
1.8366575841724093,1.2973691538327956,1101,15,21.198281448160962,27.09155514733448
1.8496279678938925,1.297356183191014,1101,15,21.198281448160962,27.09155514733448
1.8625982219391382,1.297343212678912,1101,15,21.198281448160962,27.09155514733448
1.8755683463096653,1.2973302422964876,1101,15,21.198281448160962,27.09155514733448
1.8885383410069752,1.2973172720437394,1101,15,21.198281448160962,27.09155514733448
1.901508206032554,1.2973043019206658,1101,15,21.198281448160962,27.09155514733448
1.9144779413878736,1.2972913319272656,1101,15,21.198281448160962,27.09155514733448
1.9274475470743915,1.297278362063537,1101,15,21.198281448160962,27.09155514733448
1.940417023093553,1.2972653923294788,1101,15,21.198281448160962,27.09155514733448
1.9533863694467914,1.2972524227250892,1101,15,21.198281448160962,27.09155514733448
1.9663555861355315,1.297239453250367,1101,15,21.198281448160962,27.09155514733448
1.9793246731611858,1.2972264839053107,1101,15,21.198281448160962,27.09155514733448
1.9922936305251588,1.2972135146899189,1101,15,21.198281448160962,27.09155514733448
2.0052624582288465,1.2972005456041902,1101,15,21.198281448160962,27.09155514733448
2.0182311562736386,1.2971875766481231,1101,15,21.198281448160962,27.09155514733448
2.0311997246609157,1.2971746078217163,1101,15,21.198281448160962,27.09155514733448
2.044168163392052,1.2971616391249685,1101,15,21.198281448160962,27.09155514733448
2.057136472468417,1.297148670557878,1101,15,21.198281448160962,27.09155514733448
2.070104651891374,1.2971357021204437,1101,15,21.198281448160962,27.09155514733448
2.0830727016622808,1.2971227338126643,1101,15,21.198281448160962,27.09155514733448
2.0960406217824903,1.2971097656345383,1101,15,21.198281448160962,27.09155514733448
2.109008412253352,1.297096797586064,1101,15,21.198281448160962,27.09155514733448
2.12197607307621,1.2970838296672407,1101,15,21.198281448160962,27.09155514733448
2.1349436042524057,1.2970708618780666,1101,15,21.198281448160962,27.09155514733448
2.1479110057832767,1.2970578942185407,1101,15,21.198281448160962,27.09155514733448
2.160878277670157,1.2970449266886612,1101,15,21.198281448160962,27.09155514733448
2.173845419914378,1.2970319592884272,1101,15,21.198281448160962,27.09155514733448
2.186812432517269,1.297018992017837,1101,15,21.198281448160962,27.09155514733448
2.1997793154801553,1.2970060248768895,1101,15,21.198281448160962,27.09155514733448
2.2127460688043614,1.2969930578655833,1101,15,21.198281448160962,27.09155514733448
2.225712692491209,1.296980090983917,1101,15,21.198281448160962,27.09155514733448
2.2386791865420177,1.2969671242318896,1101,15,21.198281448160962,27.09155514733448
2.251645550958105,1.2969541576094994,1101,15,21.198281448160962,27.09155514733448
2.264611785740787,1.2969411911167454,1101,15,21.198281448160962,27.09155514733448
2.2775778908913793,1.296928224753626,1101,15,21.198281448160962,27.09155514733448
2.290543866411194,1.2969152585201398,1101,15,21.198281448160962,27.09155514733448
2.3035097123015436,1.2969022924162859,1101,15,21.198281448160962,27.09155514733448
2.3164754285637383,1.2968893264420627,1101,15,21.198281448160962,27.09155514733448
2.329441015199088,1.296876360597469,1101,15,21.198281448160962,27.09155514733448
2.3424064722089,1.2968633948825035,1101,15,21.198281448160962,27.09155514733448
2.355371799594484,1.2968504292971645,1101,15,21.198281448160962,27.09155514733448
2.368336997357144,1.2968374638414515,1101,15,21.198281448160962,27.09155514733448
2.3813020654981876,1.2968244985153623,1101,15,21.198281448160962,27.09155514733448
2.394267004018919,1.2968115333188963,1101,15,21.198281448160962,27.09155514733448
2.407231812920642,1.2967985682520518,1101,15,21.198281448160962,27.09155514733448
2.420196492204661,1.2967856033148275,1101,15,21.198281448160962,27.09155514733448
2.4331610418722787,1.2967726385072222,1101,15,21.198281448160962,27.09155514733448
2.4461254619247974,1.2967596738292348,1101,15,21.198281448160962,27.09155514733448
2.4590897523635187,1.2967467092808636,1101,15,21.198281448160962,27.09155514733448
2.4720539131897445,1.2967337448621077,1101,15,21.198281448160962,27.09155514733448
2.485017944404776,1.2967207805729652,1101,15,21.198281448160962,27.09155514733448
2.4979818460099144,1.2967078164134356,1101,15,21.198281448160962,27.09155514733448
2.5109456180064575,1.296694852383517,1101,15,21.198281448160962,27.09155514733448
2.5239092603957065,1.2966818884832083,1101,15,21.198281448160962,27.09155514733448
2.536872773178962,1.296668924712508,1101,15,21.198281448160962,27.09155514733448
2.5498361563575216,1.2966559610714152,1101,15,21.198281448160962,27.09155514733448
2.5627994099326856,1.2966429975599283,1101,15,21.198281448160962,27.09155514733448
2.5757625339057517,1.2966300341780461,1101,15,21.198281448160962,27.09155514733448
2.5887255282780184,1.2966170709257674,1101,15,21.198281448160962,27.09155514733448
2.6016883930507837,1.2966041078030905,1101,15,21.198281448160962,27.09155514733448
2.614651128225347,1.2965911448100147,1101,15,21.198281448160962,27.09155514733448
2.627613733803005,1.2965781819465383,1101,15,21.198281448160962,27.09155514733448
2.6405762097850545,1.29656521921266,1101,15,21.198281448160962,27.09155514733448
2.6535385561727938,1.2965522566083785,1101,15,21.198281448160962,27.09155514733448
2.666500772967521,1.2965392941336928,1101,15,21.198281448160962,27.09155514733448
2.679462860170533,1.2965263317886013,1101,15,21.198281448160962,27.09155514733448
2.6924248177831265,1.2965133695731028,1101,15,21.198281448160962,27.09155514733448
2.7053866458065983,1.296500407487196,1101,15,21.198281448160962,27.09155514733448
2.718348344242245,1.2964874455308797,1101,15,21.198281448160962,27.09155514733448
2.7313099130913643,1.2964744837041524,1101,15,21.198281448160962,27.09155514733448
2.7442713523552515,1.296461522007013,1101,15,21.198281448160962,27.09155514733448
2.7572326620352037,1.29644856043946,1101,15,21.198281448160962,27.09155514733448
2.7701938421325174,1.2964355990014924,1101,15,21.198281448160962,27.09155514733448
2.7831548926484895,1.2964226376931085,1101,15,21.198281448160962,27.09155514733448
2.796115813584415,1.2964096765143074,1101,15,21.198281448160962,27.09155514733448
2.809076604941591,1.2963967154650875,1101,15,21.198281448160962,27.09155514733448
2.8220372667213143,1.2963837545454477,1101,15,21.198281448160962,27.09155514733448
2.8349977989248787,1.2963707937553866,1101,15,21.198281448160962,27.09155514733448
2.8479582015535816,1.296357833094903,1101,15,21.198281448160962,27.09155514733448
2.8609184746087193,1.2963448725639954,1101,15,21.198281448160962,27.09155514733448
2.8738786180915867,1.2963319121626629,1101,15,21.198281448160962,27.09155514733448
2.886838632003481,1.2963189518909037,1101,15,21.198281448160962,27.09155514733448
2.899798516345697,1.296305991748717,1101,15,21.198281448160962,27.09155514733448
2.912758271119531,1.2962930317361012,1101,15,21.198281448160962,27.09155514733448
2.925717896326278,1.296280071853055,1101,15,21.198281448160962,27.09155514733448
2.938677391967235,1.296267112099577,1101,15,21.198281448160962,27.09155514733448
2.9516367580436964,1.2962541524756663,1101,15,21.198281448160962,27.09155514733448
2.9645959945569578,1.2962411929813213,1101,15,21.198281448160962,27.09155514733448
2.9775551015083157,1.296228233616541,1101,15,21.198281448160962,27.09155514733448
2.990514078899065,1.2962152743813236,1101,15,21.198281448160962,27.09155514733448
3.003472926730501,1.296202315275668,1101,15,21.198281448160962,27.09155514733448
3.01643164500392,1.2961893562995732,1101,15,21.198281448160962,27.09155514733448
3.0293902337206164,1.2961763974530378,1101,15,21.198281448160962,27.09155514733448
3.0423486928818857,1.2961634387360603,1101,15,21.198281448160962,27.09155514733448
3.055307022489024,1.2961504801486394,1101,15,21.198281448160962,27.09155514733448
3.0682652225433267,1.296137521690774,1101,15,21.198281448160962,27.09155514733448
3.0812232930460883,1.2961245633624627,1101,15,21.198281448160962,27.09155514733448
