Vout,Iout,Irradiance,Temperature,MaxVoltage,MaxPower
0.003131219892116422,0.62625,501,50,22.854265835127272,13.770555875097594
0.009393601777129877,0.62625,501,50,22.854265835127272,13.770555875097594
0.015655856349490363,0.6262468061551079,501,50,22.854265835127272,13.770555875097594
0.02191796086483459,0.6262405437732228,501,50,22.854265835127272,13.770555875097594
0.02817990788991003,0.6262342815189699,501,50,22.854265835127272,13.770555875097594
0.03444170472653344,0.6262280194150808,501,50,22.854265835127272,13.770555875097594
0.04070335811496455,0.6262217574686819,501,50,22.854265835127272,13.770555875097594
0.04696487427697444,0.6262154956724715,501,50,22.854265835127272,13.770555875097594
0.053226258955669535,0.6262092340197093,501,50,22.854265835127272,13.770555875097594
0.05948751745232074,0.6262029725041734,501,50,22.854265835127272,13.770555875097594
0.06574865466035902,0.6261967111201209,501,50,22.854265835127272,13.770555875097594
0.07200967509675518,0.6261904498622504,501,50,22.854265835127272,13.770555875097594
0.0782705829309854,0.6261841887256685,501,50,22.854265835127272,13.770555875097594
0.08453138201176788,0.6261779277058582,501,50,22.854265835127272,13.770555875097594
0.09079207589174258,0.6261716667986501,501,50,22.854265835127272,13.770555875097594
0.09705266785025189,0.6261654060001954,501,50,22.854265835127272,13.770555875097594
0.10331316091436855,0.6261591453069415,501,50,22.854265835127272,13.770555875097594
0.10957355787830583,0.6261528847156091,501,50,22.854265835127272,13.770555875097594
0.11583386132133383,0.626146624223171,501,50,22.854265835127272,13.770555875097594
0.12209407362431778,0.6261403638268332,501,50,22.854265835127272,13.770555875097594
0.1283541969849835,0.6261341035240162,501,50,22.854265835127272,13.770555875097594
0.1346142334320085,0.6261278433123393,501,50,22.854265835127272,13.770555875097594
0.14087418483802874,0.6261215831896046,501,50,22.854265835127272,13.770555875097594
0.14713405293164478,0.6261153231537836,501,50,22.854265835127272,13.770555875097594
0.15339383930850417,0.6261090632030036,501,50,22.854265835127272,13.770555875097594
0.15965354544153085,0.626102803335536,501,50,22.854265835127272,13.770555875097594
0.16591317269036784,0.6260965435497852,501,50,22.854265835127272,13.770555875097594
0.17217272231009323,0.6260902838442781,501,50,22.854265835127272,13.770555875097594
0.17843219545926564,0.6260840242176553,501,50,22.854265835127272,13.770555875097594
0.1846915932073503,0.6260777646686615,501,50,22.854265835127272,13.770555875097594
0.19095091654157437,0.6260715051961383,501,50,22.854265835127272,13.770555875097594
0.1972101663732544,0.6260652457990161,501,50,22.854265835127272,13.770555875097594
0.20346934354363697,0.6260589864763079,501,50,22.854265835127272,13.770555875097594
0.20972844882928962,0.6260527272271021,501,50,22.854265835127272,13.770555875097594
0.21598748294707815,0.6260464680505576,501,50,22.854265835127272,13.770555875097594
0.2222464465587593,0.626040208945898,501,50,22.854265835127272,13.770555875097594
0.22850534027522168,0.6260339499124061,501,50,22.854265835127272,13.770555875097594
0.2347641646603991,0.6260276909494203,501,50,22.854265835127272,13.770555875097594
0.24102292023488356,0.6260214320563298,501,50,22.854265835127272,13.770555875097594
0.2472816074792601,0.6260151732325705,501,50,22.854265835127272,13.770555875097594
0.25354022683718486,0.6260089144776219,501,50,22.854265835127272,13.770555875097594
0.2597987787182265,0.6260026557910033,501,50,22.854265835127272,13.770555875097594
0.26605726350048886,0.6259963971722713,501,50,22.854265835127272,13.770555875097594
0.2723156815330323,0.6259901386210162,501,50,22.854265835127272,13.770555875097594
0.2785740331381078,0.6259838801368598,501,50,22.854265835127272,13.770555875097594
0.28483231861322,0.625977621719453,501,50,22.854265835127272,13.770555875097594
0.29109053823303127,0.6259713633684738,501,50,22.854265835127272,13.770555875097594
0.29734869225111893,0.6259651050836246,501,50,22.854265835127272,13.770555875097594
0.3036067809015982,0.6259588468646307,501,50,22.854265835127272,13.770555875097594
0.3098648044006188,0.6259525887112384,501,50,22.854265835127272,13.770555875097594
0.316122762947748,0.6259463306232137,501,50,22.854265835127272,13.770555875097594
0.3223806567272459,0.6259400726003405,501,50,22.854265835127272,13.770555875097594
0.32863848590924377,0.6259338146424192,501,50,22.854265835127272,13.770555875097594
0.33489625065083045,0.6259275567492655,501,50,22.854265835127272,13.770555875097594
0.3411539510970565,0.6259212989207092,501,50,22.854265835127272,13.770555875097594
0.34741158738186023,0.6259150411565935,501,50,22.854265835127272,13.770555875097594
0.35366915962892237,0.625908783456773,501,50,22.854265835127272,13.770555875097594
0.35992666795245587,0.6259025258211139,501,50,22.854265835127272,13.770555875097594
0.3661841124579339,0.6258962682494927,501,50,22.854265835127272,13.770555875097594
0.3724414932427625,0.625890010741795,501,50,22.854265835127272,13.770555875097594
0.37869881039690134,0.6258837532979152,501,50,22.854265835127272,13.770555875097594
0.3849560640034366,0.6258774959177561,501,50,22.854265835127272,13.770555875097594
0.3912132541391095,0.6258712386012277,501,50,22.854265835127272,13.770555875097594
0.39747038087480513,0.625864981348247,501,50,22.854265835127272,13.770555875097594
0.40372744427600255,0.625858724158737,501,50,22.854265835127272,13.770555875097594
0.4099844444031909,0.625852467032627,501,50,22.854265835127272,13.770555875097594
0.416241381312253,0.6258462099698515,501,50,22.854265835127272,13.770555875097594
0.42249825505482075,0.6258399529703501,501,50,22.854265835127272,13.770555875097594
0.4287550656786007,0.6258336960340667,501,50,22.854265835127272,13.770555875097594
0.4350118132276777,0.6258274391609498,501,50,22.854265835127272,13.770555875097594
0.44126849774279214,0.6258211823509517,501,50,22.854265835127272,13.770555875097594
0.44752511926159816,0.6258149256040284,501,50,22.854265835127272,13.770555875097594
0.45378167781890094,0.625808668920139,501,50,22.854265835127272,13.770555875097594
0.4600381734468755,0.6258024122992458,501,50,22.854265835127272,13.770555875097594
0.4662946061752697,0.6257961557413142,501,50,22.854265835127272,13.770555875097594
0.4725509760315903,0.6257898992463119,501,50,22.854265835127272,13.770555875097594
0.47880728304127623,0.6257836428142092,501,50,22.854265835127272,13.770555875097594
0.4850635272278566,0.6257773864449785,501,50,22.854265835127272,13.770555875097594
0.4913197086130989,0.6257711301385944,501,50,22.854265835127272,13.770555875097594
0.4975758272171436,0.6257648738950334,501,50,22.854265835127272,13.770555875097594
0.5038318830586296,0.6257586177142739,501,50,22.854265835127272,13.770555875097594
0.5100878761548099,0.6257523615962954,501,50,22.854265835127272,13.770555875097594
0.5163438065216579,0.6257461055410796,501,50,22.854265835127272,13.770555875097594
0.5225996741739666,0.625739849548609,501,50,22.854265835127272,13.770555875097594
0.5288554791254382,0.6257335936188677,501,50,22.854265835127272,13.770555875097594
0.5351112213887695,0.6257273377518411,501,50,22.854265835127272,13.770555875097594
0.541366900975728,0.6257210819475152,501,50,22.854265835127272,13.770555875097594
0.5476225178972239,0.6257148262058775,501,50,22.854265835127272,13.770555875097594
0.5538780721633763,0.6257085705269161,501,50,22.854265835127272,13.770555875097594
0.5601335637835737,0.6257023149106201,501,50,22.854265835127272,13.770555875097594
0.5663889927665301,0.6256960593569796,501,50,22.854265835127272,13.770555875097594
0.5726443591203375,0.6256898038659849,501,50,22.854265835127272,13.770555875097594
0.5788996628525134,0.6256835484376275,501,50,22.854265835127272,13.770555875097594
0.5851549039700448,0.6256772930718992,501,50,22.854265835127272,13.770555875097594
0.591410082479429,0.6256710377687926,501,50,22.854265835127272,13.770555875097594
0.597665198386712,0.6256647825283006,501,50,22.854265835127272,13.770555875097594
0.6039202516975222,0.6256585273504167,501,50,22.854265835127272,13.770555875097594
0.6101752424171035,0.625652272235135,501,50,22.854265835127272,13.770555875097594
0.6164301705503443,0.6256460171824497,501,50,22.854265835127272,13.770555875097594
0.6226850361018047,0.6256397621923556,501,50,22.854265835127272,13.770555875097594
0.6289398390757424,0.6256335072648479,501,50,22.854265835127272,13.770555875097594
0.6351945794761352,0.6256272523999219,501,50,22.854265835127272,13.770555875097594
0.6414492573067034,0.6256209975975735,501,50,22.854265835127272,13.770555875097594
0.647703872570929,0.6256147428577986,501,50,22.854265835127272,13.770555875097594
0.6539584252720738,0.6256084881805936,501,50,22.854265835127272,13.770555875097594
0.6602129154131973,0.6256022335659548,501,50,22.854265835127272,13.770555875097594
0.6664673429971714,0.6255959790138791,501,50,22.854265835127272,13.770555875097594
0.6727217080266951,0.6255897245243635,501,50,22.854265835127272,13.770555875097594
0.6789760105043078,0.6255834700974049,501,50,22.854265835127272,13.770555875097594
0.6852302504324019,0.6255772157330008,501,50,22.854265835127272,13.770555875097594
0.6914844278132336,0.6255709614311487,501,50,22.854265835127272,13.770555875097594
0.6977385426489333,0.625564707191846,501,50,22.854265835127272,13.770555875097594
0.7039925949415162,0.6255584530150906,501,50,22.854265835127272,13.770555875097594
0.7102465846928903,0.6255521989008803,501,50,22.854265835127272,13.770555875097594
0.7165005119048644,0.6255459448492131,501,50,22.854265835127272,13.770555875097594
0.722754376579157,0.6255396908600872,501,50,22.854265835127272,13.770555875097594
0.729008178717402,0.6255334369335006,501,50,22.854265835127272,13.770555875097594
0.7352619183211556,0.6255271830694518,501,50,22.854265835127272,13.770555875097594
0.7415155953919028,0.6255209292679389,501,50,22.854265835127272,13.770555875097594
0.747769209931062,0.6255146755289606,501,50,22.854265835127272,13.770555875097594
0.7540227619399908,0.6255084218525151,501,50,22.854265835127272,13.770555875097594
0.7602762514199903,0.6255021682386014,501,50,22.854265835127272,13.770555875097594
0.7665296783723098,0.6254959146872178,501,50,22.854265835127272,13.770555875097594
0.77278304279815,0.6254896611983631,501,50,22.854265835127272,13.770555875097594
0.7790363446986681,0.6254834077720361,501,50,22.854265835127272,13.770555875097594
0.7852895840749795,0.6254771544082357,501,50,22.854265835127272,13.770555875097594
0.7915427609281626,0.6254709011069606,501,50,22.854265835127272,13.770555875097594
0.7977958752592607,0.6254646478682095,501,50,22.854265835127272,13.770555875097594
0.8040489270692844,0.6254583946919817,501,50,22.854265835127272,13.770555875097594
0.8103019163592156,0.6254521415782759,501,50,22.854265835127272,13.770555875097594
0.8165548431300076,0.6254458885270913,501,50,22.854265835127272,13.770555875097594
0.8228077073825897,0.6254396355384266,501,50,22.854265835127272,13.770555875097594
0.8290605091178667,0.6254333826122811,501,50,22.854265835127272,13.770555875097594
0.8353132483367223,0.6254271297486538,501,50,22.854265835127272,13.770555875097594
0.8415659250400204,0.6254208769475439,501,50,22.854265835127272,13.770555875097594
0.847818539228606,0.6254146242089503,501,50,22.854265835127272,13.770555875097594
0.8540710909033079,0.6254083715328722,501,50,22.854265835127272,13.770555875097594
0.8603235800649386,0.625402118919309,501,50,22.854265835127272,13.770555875097594
0.8665760067142968,0.6253958663682595,501,50,22.854265835127272,13.770555875097594
0.8728283708521671,0.6253896138797231,501,50,22.854265835127272,13.770555875097594
0.8790806724793221,0.625383361453699,501,50,22.854265835127272,13.770555875097594
0.8853329115965233,0.6253771090901864,501,50,22.854265835127272,13.770555875097594
0.8915850882045211,0.6253708567891845,501,50,22.854265835127272,13.770555875097594
0.897837202304057,0.6253646045506925,501,50,22.854265835127272,13.770555875097594
0.904089253895863,0.6253583523747098,501,50,22.854265835127272,13.770555875097594
0.9103412429806629,0.6253521002612354,501,50,22.854265835127272,13.770555875097594
0.9165931695591732,0.6253458482102688,501,50,22.854265835127272,13.770555875097594
0.9228450336321029,0.6253395962218092,501,50,22.854265835127272,13.770555875097594
0.9290968352001548,0.625333344295856,501,50,22.854265835127272,13.770555875097594
0.9353485742640258,0.6253270924324082,501,50,22.854265835127272,13.770555875097594
0.9416002508244068,0.6253208406314654,501,50,22.854265835127272,13.770555875097594
0.947851864881984,0.6253145888930267,501,50,22.854265835127272,13.770555875097594
0.9541034164374389,0.6253083372170916,501,50,22.854265835127272,13.770555875097594
0.9603549054914486,0.6253020856036591,501,50,22.854265835127272,13.770555875097594
0.9666063320446858,0.6252958340527288,501,50,22.854265835127272,13.770555875097594
0.9728576960978201,0.6252895825643,501,50,22.854265835127272,13.770555875097594
0.9791089976515172,0.6252833311383719,501,50,22.854265835127272,13.770555875097594
0.9853602367064397,0.6252770797749438,501,50,22.854265835127272,13.770555875097594
0.9916114132632476,0.6252708284740154,501,50,22.854265835127272,13.770555875097594
0.9978625273225982,0.6252645772355856,501,50,22.854265835127272,13.770555875097594
1.0041135788851456,0.6252583260596539,501,50,22.854265835127272,13.770555875097594
1.0103645679515423,0.6252520749462197,501,50,22.854265835127272,13.770555875097594
1.0166154945224384,0.6252458238952823,501,50,22.854265835127272,13.770555875097594
1.0228663585984823,0.625239572906841,501,50,22.854265835127272,13.770555875097594
1.0291171601803204,0.6252333219808951,501,50,22.854265835127272,13.770555875097594
1.0353678992685977,0.6252270711174442,501,50,22.854265835127272,13.770555875097594
1.041618575863957,0.6252208203164874,501,50,22.854265835127272,13.770555875097594
1.04786918996704,0.6252145695780242,501,50,22.854265835127272,13.770555875097594
1.0541197415784873,0.625208318902054,501,50,22.854265835127272,13.770555875097594
1.0603702306989384,0.6252020682885759,501,50,22.854265835127272,13.770555875097594
1.0666206573290313,0.6251958177375896,501,50,22.854265835127272,13.770555875097594
1.0728710214694033,0.6251895672490942,501,50,22.854265835127272,13.770555875097594
1.0791213231206902,0.6251833168230891,501,50,22.854265835127272,13.770555875097594
1.0853715622835274,0.6251770664595738,501,50,22.854265835127272,13.770555875097594
1.0916217389585492,0.6251708161585476,501,50,22.854265835127272,13.770555875097594
1.0978718531463896,0.6251645659200098,501,50,22.854265835127272,13.770555875097594
1.1041219048476811,0.6251583157439599,501,50,22.854265835127272,13.770555875097594
1.1103718940630565,0.625152065630397,501,50,22.854265835127272,13.770555875097594
1.1166218207931473,0.6251458155793207,501,50,22.854265835127272,13.770555875097594
1.122871685038585,0.6251395655907304,501,50,22.854265835127272,13.770555875097594
1.1291214867999997,0.6251333156646253,501,50,22.854265835127272,13.770555875097594
1.1353712260780224,0.6251270658010049,501,50,22.854265835127272,13.770555875097594
1.1416209028732829,0.6251208159998685,501,50,22.854265835127272,13.770555875097594
1.1478705171864099,0.6251145662612154,501,50,22.854265835127272,13.770555875097594
1.1541200690180329,0.6251083165850451,501,50,22.854265835127272,13.770555875097594
1.1603695583687803,0.625102066971357,501,50,22.854265835127272,13.770555875097594
1.1666189852392805,0.6250958174201503,501,50,22.854265835127272,13.770555875097594
1.1728683496301622,0.6250895679314245,501,50,22.854265835127272,13.770555875097594
1.1791176515420527,0.625083318505179,501,50,22.854265835127272,13.770555875097594
1.1853668909755795,0.625077069141413,501,50,22.854265835127272,13.770555875097594
1.1916160679313699,0.625070819840126,501,50,22.854265835127272,13.770555875097594
1.1978651824100517,0.6250645706013175,501,50,22.854265835127272,13.770555875097594
1.2041142344122513,0.6250583214249866,501,50,22.854265835127272,13.770555875097594
1.210363223938595,0.6250520723111329,501,50,22.854265835127272,13.770555875097594
1.2166121509897103,0.6250458232597556,501,50,22.854265835127272,13.770555875097594
1.2228610155662227,0.6250395742708541,501,50,22.854265835127272,13.770555875097594
1.2291098176687592,0.6250333253444279,501,50,22.854265835127272,13.770555875097594
1.235358557297945,0.6250270764804763,501,50,22.854265835127272,13.770555875097594
1.2416072344544073,0.6250208276789987,501,50,22.854265835127272,13.770555875097594
1.2478558491387717,0.6250145789399943,501,50,22.854265835127272,13.770555875097594
1.2541044013516631,0.6250083302634628,501,50,22.854265835127272,13.770555875097594
1.2603528910937083,0.6250020816494033,501,50,22.854265835127272,13.770555875097594
1.2666013183655322,0.6249958330978153,501,50,22.854265835127272,13.770555875097594
1.2728496831677605,0.6249895846086981,501,50,22.854265835127272,13.770555875097594
1.2790979855010185,0.6249833361820512,501,50,22.854265835127272,13.770555875097594
1.2853462253659316,0.6249770878178738,501,50,22.854265835127272,13.770555875097594
1.2915944027631252,0.6249708395161654,501,50,22.854265835127272,13.770555875097594
1.297842517693225,0.6249645912769253,501,50,22.854265835127272,13.770555875097594
1.3040905701568548,0.6249583431001529,501,50,22.854265835127272,13.770555875097594
1.3103385601546413,0.6249520949858476,501,50,22.854265835127272,13.770555875097594
1.3165864876872087,0.6249458469340088,501,50,22.854265835127272,13.770555875097594
1.3228343527551818,0.6249395989446358,501,50,22.854265835127272,13.770555875097594
1.3290821553591863,0.6249333510177281,501,50,22.854265835127272,13.770555875097594
1.3353298954998463,0.6249271031532849,501,50,22.854265835127272,13.770555875097594
1.3415775731777873,0.6249208553513057,501,50,22.854265835127272,13.770555875097594
1.3478251883936343,0.6249146076117899,501,50,22.854265835127272,13.770555875097594
1.3540727411480113,0.6249083599347367,501,50,22.854265835127272,13.770555875097594
1.3603202314415435,0.6249021123201456,501,50,22.854265835127272,13.770555875097594
1.3665676592748555,0.624895864768016,501,50,22.854265835127272,13.770555875097594
1.3728150246485722,0.6248896172783472,501,50,22.854265835127272,13.770555875097594
1.3790623275633185,0.6248833698511387,501,50,22.854265835127272,13.770555875097594
1.385309568019719,0.6248771224863897,501,50,22.854265835127272,13.770555875097594
1.3915567460183977,0.6248708751840997,501,50,22.854265835127272,13.770555875097594
1.39780386155998,0.624864627944268,501,50,22.854265835127272,13.770555875097594
1.4040509146450901,0.624858380766894,501,50,22.854265835127272,13.770555875097594
1.4102979052743527,0.6248521336519772,501,50,22.854265835127272,13.770555875097594
1.4165448334483925,0.6248458865995168,501,50,22.854265835127272,13.770555875097594
1.4227916991678335,0.6248396396095123,501,50,22.854265835127272,13.770555875097594
1.4290385024333008,0.6248333926819629,501,50,22.854265835127272,13.770555875097594
1.4352852432454193,0.6248271458168682,501,50,22.854265835127272,13.770555875097594
1.4415319216048121,0.6248208990142274,501,50,22.854265835127272,13.770555875097594
1.447778537512105,0.62481465227404,501,50,22.854265835127272,13.770555875097594
1.4540250909679222,0.6248084055963052,501,50,22.854265835127272,13.770555875097594
1.4602715819728873,0.6248021589810226,501,50,22.854265835127272,13.770555875097594
1.466518010527626,0.6247959124281915,501,50,22.854265835127272,13.770555875097594
1.4727643766327618,0.6247896659378112,501,50,22.854265835127272,13.770555875097594
1.4790106802889194,0.6247834195098811,501,50,22.854265835127272,13.770555875097594
