Vout,Iout,Irradiance,Temperature,MaxVoltage,MaxPower
0.0067710848934144875,1.35423,1101,40,22.868701422280193,30.40265217877907
0.020313129476475202,1.35423,1101,40,22.868701422280193,30.40265217877907
0.033854898753166204,1.3542230934921067,1101,40,22.868701422280193,30.40265217877907
0.04739634354009572,1.3542095514475236,1101,40,22.868701422280193,30.40265217877907
0.06093744776327803,1.3541960096789376,1101,40,22.868701422280193,30.40265217877907
0.07447822721247646,1.3541824682355048,1101,40,22.868701422280193,30.40265217877907
0.08801869646311927,1.3541689271326358,1101,40,22.868701422280193,30.40265217877907
0.10155886896943252,1.3541553863545408,1101,40,22.868701422280193,30.40265217877907
0.11509875715055709,1.354141845886644,1101,40,22.868701422280193,30.40265217877907
0.12863837247018978,1.354128305715492,1101,40,22.868701422280193,30.40265217877907
0.14217772551009664,1.354114765828665,1101,40,22.868701422280193,30.40265217877907
0.15571682603797019,1.3541012262146992,1101,40,22.868701422280193,30.40265217877907
0.1692556830700653,1.3540876868630134,1101,40,22.868701422280193,30.40265217877907
0.18279430492901627,1.3540741477638394,1101,40,22.868701422280193,30.40265217877907
0.19633269929720495,1.3540606089081613,1101,40,22.868701422280193,30.40265217877907
0.20987087326602263,1.3540470702876564,1101,40,22.868701422280193,30.40265217877907
0.22340883338134196,1.354033531894642,1101,40,22.868701422280193,30.40265217877907
0.2369465856854901,1.354019993722027,1101,40,22.868701422280193,30.40265217877907
0.250484135755992,1.3540064557632656,1101,40,22.868701422280193,30.40265217877907
0.2640214887413332,1.3539929180123151,1101,40,22.868701422280193,30.40265217877907
0.2775586493939709,1.3539793804635984,1101,40,22.868701422280193,30.40265217877907
0.2910956221008046,1.353965843111967,1101,40,22.868701422280193,30.40265217877907
0.3046324109113033,1.3539523059526681,1101,40,22.868701422280193,30.40265217877907
0.31816901956346727,1.353938768981315,1101,40,22.868701422280193,30.40265217877907
0.3317054515077935,1.3539252321938582,1101,40,22.868701422280193,30.40265217877907
0.34524170992939623,1.3539116955865598,1101,40,22.868701422280193,30.40265217877907
0.3587777977684263,1.3538981591559691,1101,40,22.868701422280193,30.40265217877907
0.3723137177389185,1.353884622898901,1101,40,22.868701422280193,30.40265217877907
0.3858494723461898,1.3538710868124157,1101,40,22.868701422280193,30.40265217877907
0.39938506390289835,1.3538575508937989,1101,40,22.868701422280193,30.40265217877907
0.41292049454386653,1.353844015140545,1101,40,22.868701422280193,30.40265217877907
0.4264557662397645,1.353830479550342,1101,40,22.868701422280193,30.40265217877907
0.4399908808097399,1.3538169441210546,1101,40,22.868701422280193,30.40265217877907
0.4535258399330764,1.3538034088507123,1101,40,22.868701422280193,30.40265217877907
0.4670606451599549,1.3537898737374958,1101,40,22.868701422280193,30.40265217877907
0.4805952979213872,1.3537763387797261,1101,40,22.868701422280193,30.40265217877907
0.49412979953838504,1.3537628039758527,1101,40,22.868701422280193,30.40265217877907
0.507664151230423,1.3537492693244448,1101,40,22.868701422280193,30.40265217877907
0.5211983541232518,1.3537357348241812,1101,40,22.868701422280193,30.40265217877907
0.5347324092561093,1.3537222004738427,1101,40,22.868701422280193,30.40265217877907
0.5482663175883765,1.3537086662723032,1101,40,22.868701422280193,30.40265217877907
0.5618000800057228,1.3536951322185238,1101,40,22.868701422280193,30.40265217877907
0.5753336973257759,1.353681598311545,1101,40,22.868701422280193,30.40265217877907
0.5888671703033589,1.353668064550481,1101,40,22.868701422280193,30.40265217877907
0.602400499635321,1.3536545309345145,1101,40,22.868701422280193,30.40265217877907
0.6159336859649996,1.3536409974628902,1101,40,22.868701422280193,30.40265217877907
0.6294667298863361,1.3536274641349115,1101,40,22.868701422280193,30.40265217877907
0.6429996319476773,1.3536139309499353,1101,40,22.868701422280193,30.40265217877907
0.6565323926552838,1.3536003979073672,1101,40,22.868701422280193,30.40265217877907
0.6700650124765671,1.3535868650066594,1101,40,22.868701422280193,30.40265217877907
0.68359749184308,1.353573332247305,1101,40,22.868701422280193,30.40265217877907
0.6971298311532749,1.3535597996288369,1101,40,22.868701422280193,30.40265217877907
0.7106620307750502,1.3535462671508238,1101,40,22.868701422280193,30.40265217877907
0.7241940910481023,1.3535327348128667,1101,40,22.868701422280193,30.40265217877907
0.7377260122860946,1.3535192026145983,1101,40,22.868701422280193,30.40265217877907
0.7512577947786608,1.3535056705556785,1101,40,22.868701422280193,30.40265217877907
0.7647894387932542,1.3534921386357937,1101,40,22.868701422280193,30.40265217877907
0.778320944576853,1.3534786068546543,1101,40,22.868701422280193,30.40265217877907
0.7918523123575371,1.353465075211993,1101,40,22.868701422280193,30.40265217877907
0.8053835423459418,1.3534515437075625,1101,40,22.868701422280193,30.40265217877907
0.8189146347365996,1.353438012341135,1101,40,22.868701422280193,30.40265217877907
0.8324455897091795,1.3534244811124998,1101,40,22.868701422280193,30.40265217877907
0.8459764074296305,1.3534109500214622,1101,40,22.868701422280193,30.40265217877907
0.8595070880512372,1.3533974190678428,1101,40,22.868701422280193,30.40265217877907
0.8730376317155941,1.3533838882514755,1101,40,22.868701422280193,30.40265217877907
0.8865680385535059,1.353370357572207,1101,40,22.868701422280193,30.40265217877907
0.9000983086858161,1.3533568270298957,1101,40,22.868701422280193,30.40265217877907
0.9136284422241752,1.3533432966244108,1101,40,22.868701422280193,30.40265217877907
0.9271584392717467,1.3533297663556316,1101,40,22.868701422280193,30.40265217877907
0.9406882999238607,1.353316236223446,1101,40,22.868701422280193,30.40265217877907
0.9542180242686167,1.3533027062277516,1101,40,22.868701422280193,30.40265217877907
0.9677476123874396,1.3532891763684525,1101,40,22.868701422280193,30.40265217877907
0.9812770643555928,1.3532756466454607,1101,40,22.868701422280193,30.40265217877907
0.9948063802426541,1.353262117058695,1101,40,22.868701422280193,30.40265217877907
1.0083355601129507,1.3532485876080798,1101,40,22.868701422280193,30.40265217877907
1.021864604025965,1.3532350582935457,1101,40,22.868701422280193,30.40265217877907
1.0353935120367066,1.3532215291150282,1101,40,22.868701422280193,30.40265217877907
1.0489222841960564,1.3532080000724682,1101,40,22.868701422280193,30.40265217877907
1.062450920551085,1.3531944711658104,1101,40,22.868701422280193,30.40265217877907
1.0759794211453453,1.353180942395004,1101,40,22.868701422280193,30.40265217877907
1.0895077860191424,1.3531674137600018,1101,40,22.868701422280193,30.40265217877907
1.1030360152097856,1.3531538852607605,1101,40,22.868701422280193,30.40265217877907
1.116564108751816,1.3531403568972395,1101,40,22.868701422280193,30.40265217877907
1.1300920666772227,1.3531268286694018,1101,40,22.868701422280193,30.40265217877907
1.1436198890156366,1.3531133005772125,1101,40,22.868701422280193,30.40265217877907
1.1571475757945127,1.35309977262064,1101,40,22.868701422280193,30.40265217877907
1.170675127039298,1.3530862447996543,1101,40,22.868701422280193,30.40265217877907
1.184202542773585,1.3530727171142283,1101,40,22.868701422280193,30.40265217877907
1.1977298230192561,1.3530591895643362,1101,40,22.868701422280193,30.40265217877907
1.2112569677966132,1.3530456621499547,1101,40,22.868701422280193,30.40265217877907
1.2247839771245,1.3530321348710619,1101,40,22.868701422280193,30.40265217877907
1.238310851020415,1.3530186077276372,1101,40,22.868701422280193,30.40265217877907
1.2518375895006135,1.353005080719662,1101,40,22.868701422280193,30.40265217877907
1.2653641925802055,1.3529915538471189,1101,40,22.868701422280193,30.40265217877907
1.2788906602732406,1.3529780271099914,1101,40,22.868701422280193,30.40265217877907
1.2924169925927933,1.3529645005082644,1101,40,22.868701422280193,30.40265217877907
1.3059431895510347,1.352950974041924,1101,40,22.868701422280193,30.40265217877907
1.319469251159304,1.3529374477109573,1101,40,22.868701422280193,30.40265217877907
1.3329951774281716,1.3529239215153517,1101,40,22.868701422280193,30.40265217877907
1.3465209683675,1.352910395455096,1101,40,22.868701422280193,30.40265217877907
1.3600466239864948,1.3528968695301797,1101,40,22.868701422280193,30.40265217877907
1.373572144293759,1.352883343740593,1101,40,22.868701422280193,30.40265217877907
1.3870975292973367,1.3528698180863266,1101,40,22.868701422280193,30.40265217877907
1.4006227790047574,1.352856292567372,1101,40,22.868701422280193,30.40265217877907
1.4141478934230751,1.3528427671837209,1101,40,22.868701422280193,30.40265217877907
1.427672872558905,1.352829241935366,1101,40,22.868701422280193,30.40265217877907
1.4411977164184582,1.3528157168223003,1101,40,22.868701422280193,30.40265217877907
1.4547224250075705,1.352802191844517,1101,40,22.868701422280193,30.40265217877907
1.468246998331734,1.35278866700201,1101,40,22.868701422280193,30.40265217877907
1.481771436396122,1.3527751422947734,1101,40,22.868701422280193,30.40265217877907
1.4952957392056123,1.3527616177228017,1101,40,22.868701422280193,30.40265217877907
1.5088199067648138,1.3527480932860898,1101,40,22.868701422280193,30.40265217877907
1.5223439390780826,1.3527345689846326,1101,40,22.868701422280193,30.40265217877907
1.5358678361495448,1.352721044818426,1101,40,22.868701422280193,30.40265217877907
1.5493915979831128,1.352707520787465,1101,40,22.868701422280193,30.40265217877907
1.5629152245825013,1.352693996891746,1101,40,22.868701422280193,30.40265217877907
1.5764387159512443,1.352680473131265,1101,40,22.868701422280193,30.40265217877907
1.589962072092708,1.352666949506018,1101,40,22.868701422280193,30.40265217877907
1.603485293010102,1.3526534260160015,1101,40,22.868701422280193,30.40265217877907
1.6170083787064944,1.3526399026612124,1101,40,22.868701422280193,30.40265217877907
1.6305313291848205,1.3526263794416473,1101,40,22.868701422280193,30.40265217877907
1.644054144447894,1.3526128563573032,1101,40,22.868701422280193,30.40265217877907
1.6575768244984161,1.3525993334081772,1101,40,22.868701422280193,30.40265217877907
1.671099369338984,1.3525858105942665,1101,40,22.868701422280193,30.40265217877907
1.684621778972099,1.3525722879155684,1101,40,22.868701422280193,30.40265217877907
1.6981440534001744,1.35255876537208,1101,40,22.868701422280193,30.40265217877907
1.7116661926255416,1.3525452429637992,1101,40,22.868701422280193,30.40265217877907
1.7251881966504563,1.3525317206907232,1101,40,22.868701422280193,30.40265217877907
1.738710065477105,1.3525181985528503,1101,40,22.868701422280193,30.40265217877907
1.7522317991076097,1.3525046765501776,1101,40,22.868701422280193,30.40265217877907
1.7657533975440327,1.352491154682703,1101,40,22.868701422280193,30.40265217877907
1.7792748607883826,1.352477632950425,1101,40,22.868701422280193,30.40265217877907
1.7927961888426165,1.3524641113533404,1101,40,22.868701422280193,30.40265217877907
1.8063173817086455,1.3524505898914483,1101,40,22.868701422280193,30.40265217877907
1.8198384393883378,1.3524370685647462,1101,40,22.868701422280193,30.40265217877907
1.833359361883521,1.3524235473732324,1101,40,22.868701422280193,30.40265217877907
1.8468801491959868,1.3524100263169048,1101,40,22.868701422280193,30.40265217877907
1.860400801327492,1.3523965053957618,1101,40,22.868701422280193,30.40265217877907
1.8739213182797636,1.3523829846098014,1101,40,22.868701422280193,30.40265217877907
1.8874417000544987,1.352369463959022,1101,40,22.868701422280193,30.40265217877907
1.9009619466533685,1.3523559434434218,1101,40,22.868701422280193,30.40265217877907
1.9144820580780189,1.3523424230629992,1101,40,22.868701422280193,30.40265217877907
1.9280020343300734,1.3523289028177523,1101,40,22.868701422280193,30.40265217877907
1.9415218754111347,1.3523153827076797,1101,40,22.868701422280193,30.40265217877907
1.955041581322786,1.3523018627327796,1101,40,22.868701422280193,30.40265217877907
1.968561152066592,1.3522883428930506,1101,40,22.868701422280193,30.40265217877907
1.9820805876441026,1.352274823188491,1101,40,22.868701422280193,30.40265217877907
1.9955998880568508,1.3522613036190991,1101,40,22.868701422280193,30.40265217877907
2.0091190533063563,1.3522477841848737,1101,40,22.868701422280193,30.40265217877907
2.022638083394126,1.3522342648858128,1101,40,22.868701422280193,30.40265217877907
2.036156978321655,1.3522207457219153,1101,40,22.868701422280193,30.40265217877907
2.0496757380904254,1.3522072266931795,1101,40,22.868701422280193,30.40265217877907
2.0631943627019127,1.3521937077996038,1101,40,22.868701422280193,30.40265217877907
2.0767128521575793,1.3521801890411869,1101,40,22.868701422280193,30.40265217877907
2.0902312064588813,1.3521666704179274,1101,40,22.868701422280193,30.40265217877907
2.103749425607266,1.3521531519298235,1101,40,22.868701422280193,30.40265217877907
2.117267509604173,1.352139633576874,1101,40,22.868701422280193,30.40265217877907
2.1307854584510357,1.3521261153590776,1101,40,22.868701422280193,30.40265217877907
2.144303272149281,1.3521125972764325,1101,40,22.868701422280193,30.40265217877907
2.1578209507003296,1.3520990793289376,1101,40,22.868701422280193,30.40265217877907
2.1713384941055964,1.352085561516591,1101,40,22.868701422280193,30.40265217877907
2.184855902366493,1.3520720438393918,1101,40,22.868701422280193,30.40265217877907
2.1983731754844245,1.3520585262973384,1101,40,22.868701422280193,30.40265217877907
2.2118903134607937,1.3520450088904292,1101,40,22.868701422280193,30.40265217877907
2.225407316296998,1.352031491618663,1101,40,22.868701422280193,30.40265217877907
2.2389241839944307,1.3520179744820384,1101,40,22.868701422280193,30.40265217877907
2.2524409165544843,1.3520044574805539,1101,40,22.868701422280193,30.40265217877907
2.2659575139785444,1.351990940614208,1101,40,22.868701422280193,30.40265217877907
2.279473976267999,1.3519774238829998,1101,40,22.868701422280193,30.40265217877907
2.292990303424228,1.3519639072869274,1101,40,22.868701422280193,30.40265217877907
2.306506495448612,1.3519503908259896,1101,40,22.868701422280193,30.40265217877907
2.3200225523425297,1.3519368745001852,1101,40,22.868701422280193,30.40265217877907
2.333538474107355,1.3519233583095123,1101,40,22.868701422280193,30.40265217877907
2.3470542607444633,1.3519098422539702,1101,40,22.868701422280193,30.40265217877907
2.3605699122552255,1.3518963263335568,1101,40,22.868701422280193,30.40265217877907
2.374085428641012,1.3518828105482714,1101,40,22.868701422280193,30.40265217877907
2.387600809903192,1.3518692948981121,1101,40,22.868701422280193,30.40265217877907
2.401116056043132,1.3518557793830779,1101,40,22.868701422280193,30.40265217877907
2.4146311670621996,1.3518422640031673,1101,40,22.868701422280193,30.40265217877907
2.428146142961759,1.3518287487583789,1101,40,22.868701422280193,30.40265217877907
2.441660983743174,1.3518152336487115,1101,40,22.868701422280193,30.40265217877907
2.4551756894078074,1.3518017186741633,1101,40,22.868701422280193,30.40265217877907
2.4686902599570213,1.3517882038347335,1101,40,22.868701422280193,30.40265217877907
2.4822046953921766,1.3517746891304203,1101,40,22.868701422280193,30.40265217877907
2.4957189957146335,1.3517611745612226,1101,40,22.868701422280193,30.40265217877907
2.5092331609257523,1.351747660127139,1101,40,22.868701422280193,30.40265217877907
2.5227471910268906,1.351734145828168,1101,40,22.868701422280193,30.40265217877907
2.5362610860194073,1.3517206316643082,1101,40,22.868701422280193,30.40265217877907
2.5497748459046603,1.3517071176355586,1101,40,22.868701422280193,30.40265217877907
2.5632884706840056,1.3516936037419174,1101,40,22.868701422280193,30.40265217877907
2.5768019603588006,1.3516800899833836,1101,40,22.868701422280193,30.40265217877907
2.5903153149304012,1.3516665763599556,1101,40,22.868701422280193,30.40265217877907
2.6038285344001637,1.3516530628716323,1101,40,22.868701422280193,30.40265217877907
2.6173416187694416,1.351639549518412,1101,40,22.868701422280193,30.40265217877907
2.630854568039592,1.3516260363002937,1101,40,22.868701422280193,30.40265217877907
2.6443673822119678,1.3516125232172755,1101,40,22.868701422280193,30.40265217877907
2.657880061287924,1.351599010269357,1101,40,22.868701422280193,30.40265217877907
2.6713926052688155,1.3515854974565358,1101,40,22.868701422280193,30.40265217877907
2.684905014155994,1.351571984778811,1101,40,22.868701422280193,30.40265217877907
2.6984172879508144,1.3515584722361815,1101,40,22.868701422280193,30.40265217877907
2.7119294266546294,1.3515449598286455,1101,40,22.868701422280193,30.40265217877907
2.7254414302687917,1.351531447556202,1101,40,22.868701422280193,30.40265217877907
2.7389532987946557,1.3515179354188493,1101,40,22.868701422280193,30.40265217877907
2.7524650322335726,1.3515044234165865,1101,40,22.868701422280193,30.40265217877907
2.765976630586895,1.3514909115494118,1101,40,22.868701422280193,30.40265217877907
2.779488093855975,1.3514773998173242,1101,40,22.868701422280193,30.40265217877907
2.7929994220421652,1.351463888220322,1101,40,22.868701422280193,30.40265217877907
2.8065106151468173,1.351450376758404,1101,40,22.868701422280193,30.40265217877907
2.8200216731712846,1.3514368654315692,1101,40,22.868701422280193,30.40265217877907
2.8335325961169158,1.3514233542398155,1101,40,22.868701422280193,30.40265217877907
2.847043383985065,1.3514098431831423,1101,40,22.868701422280193,30.40265217877907
2.860554036777083,1.3513963322615477,1101,40,22.868701422280193,30.40265217877907
2.8740645544943213,1.3513828214750307,1101,40,22.868701422280193,30.40265217877907
2.8875749371381314,1.3513693108235898,1101,40,22.868701422280193,30.40265217877907
2.901085184709865,1.3513558003072237,1101,40,22.868701422280193,30.40265217877907
2.9145952972108726,1.3513422899259309,1101,40,22.868701422280193,30.40265217877907
2.9281052746425047,1.3513287796797102,1101,40,22.868701422280193,30.40265217877907
2.941615117006114,1.3513152695685602,1101,40,22.868701422280193,30.40265217877907
2.9551248243030503,1.3513017595924797,1101,40,22.868701422280193,30.40265217877907
2.9686343965346658,1.3512882497514669,1101,40,22.868701422280193,30.40265217877907
2.9821438337023087,1.351274740045521,1101,40,22.868701422280193,30.40265217877907
2.995653135807332,1.3512612304746403,1101,40,22.868701422280193,30.40265217877907
3.0091623028510863,1.3512477210388236,1101,40,22.868701422280193,30.40265217877907
3.0226713348349215,1.3512342117380696,1101,40,22.868701422280193,30.40265217877907
3.036180231760189,1.3512207025723768,1101,40,22.868701422280193,30.40265217877907
3.0496889936282394,1.351207193541744,1101,40,22.868701422280193,30.40265217877907
3.0631976204404228,1.3511936846461696,1101,40,22.868701422280193,30.40265217877907
3.0767061121980896,1.3511801758856525,1101,40,22.868701422280193,30.40265217877907
3.0902144689025914,1.3511666672601912,1101,40,22.868701422280193,30.40265217877907
3.1037226905552773,1.3511531587697843,1101,40,22.868701422280193,30.40265217877907
3.1172307771574994,1.3511396504144306,1101,40,22.868701422280193,30.40265217877907
3.130738728710606,1.351126142194129,1101,40,22.868701422280193,30.40265217877907
3.144246545215949,1.3511126341088775,1101,40,22.868701422280193,30.40265217877907
3.1577542266748786,1.3510991261586751,1101,40,22.868701422280193,30.40265217877907
3.171261773088744,1.3510856183435207,1101,40,22.868701422280193,30.40265217877907
3.1847691844588972,1.3510721106634125,1101,40,22.868701422280193,30.40265217877907
3.198276460786688,1.3510586031183496,1101,40,22.868701422280193,30.40265217877907
3.211783602073465,1.35104509570833,1101,40,22.868701422280193,30.40265217877907
