Vout,Iout,Irradiance,Temperature,MaxVoltage,MaxPower
0.010930644897645215,2.1861499999999996,1901,0,20.11327875034683,43.56696713144203
0.03279173257496604,2.1861499999999996,1901,0,20.11327875034683,43.56696713144203
0.05465237582185765,2.186138850740102,1901,0,20.11327875034683,43.56696713144203
0.07651249524097106,2.1861169896524246,1901,0,20.11327875034683,43.56696713144203
0.09837206488387515,2.1860951290102926,1901,0,20.11327875034683,43.56696713144203
0.1202311102401774,2.1860732688930598,1901,0,20.11327875034683,43.56696713144203
0.14208965483916924,2.1860514093256027,1901,0,20.11327875034683,43.56696713144203
0.16394772040017194,2.1860295502824325,1901,0,20.11327875034683,43.56696713144203
0.185805326971556,2.1860076917400195,1901,0,20.11327875034683,43.56696713144203
0.20766249305930698,2.1859858336766442,1901,0,20.11327875034683,43.56696713144203
0.2295192357456988,2.1859639760722587,1901,0,20.11327875034683,43.56696713144203
0.25137557079883655,2.1859421189083568,1901,0,20.11327875034683,43.56696713144203
0.2732315127737705,2.185920262167856,1901,0,20.11327875034683,43.56696713144203
0.2950870751058305,2.185898405834989,1901,0,20.11327875034683,43.56696713144203
0.3169422701967793,2.1858765498951995,1901,0,20.11327875034683,43.56696713144203
0.33879710949433633,2.185854694335053,1901,0,20.11327875034683,43.56696713144203
0.36065160356558384,2.1858328391421478,1901,0,20.11327875034683,43.56696713144203
0.38250576216472393,2.1858109843050357,1901,0,20.11327875034683,43.56696713144203
0.4043595942956231,2.18578912981315,1901,0,20.11327875034683,43.56696713144203
0.42621310826954456,2.1857672756567363,1901,0,20.11327875034683,43.56696713144203
0.4480663117584378,2.185745421826791,1901,0,20.11327875034683,43.56696713144203
0.46991921184412827,2.1857235683150025,1901,0,20.11327875034683,43.56696713144203
0.4917718150637229,2.185701715113699,1901,0,20.11327875034683,43.56696713144203
0.5136241274515214,2.1856798622157987,1901,0,20.11327875034683,43.56696713144203
0.5354761545777028,2.185658009614764,1901,0,20.11327875034683,43.56696713144203
0.5573279015840362,2.185636157304562,1901,0,20.11327875034683,43.56696713144203
0.5791793732168425,2.185614305279621,1901,0,20.11327875034683,43.56696713144203
0.6010305738574218,2.1855924535347997,1901,0,20.11327875034683,43.56696713144203
0.6228815075501373,2.185570602065352,1901,0,20.11327875034683,43.56696713144203
0.6447321780283413,2.185548750866897,1901,0,20.11327875034683,43.56696713144203
0.6665825887383039,2.185526899935389,1901,0,20.11327875034683,43.56696713144203
0.6884327428613017,2.185505049267096,1901,0,20.11327875034683,43.56696713144203
0.7102826433340069,2.1854831988585715,1901,0,20.11327875034683,43.56696713144203
0.7321322928673079,2.1854613487066334,1901,0,20.11327875034683,43.56696713144203
0.7539816939636803,2.185439498808346,1901,0,20.11327875034683,43.56696713144203
0.7758308489332242,2.1854176491609976,1901,0,20.11327875034683,43.56696713144203
0.7976797599084645,2.185395799762086,1901,0,20.11327875034683,43.56696713144203
0.8195284288580144,2.1853739506093013,1901,0,20.11327875034683,43.56696713144203
0.8413768575991868,2.185352101700511,1901,0,20.11327875034683,43.56696713144203
0.8632250478096358,2.1853302530337464,1901,0,20.11327875034683,43.56696713144203
0.8850730010381023,2.1853084046071904,1901,0,20.11327875034683,43.56696713144203
0.9069207187143323,2.1852865564191646,1901,0,20.11327875034683,43.56696713144203
0.9287682021582335,2.185264708468121,1901,0,20.11327875034683,43.56696713144203
0.950615452588325,2.1852428607526297,1901,0,20.11327875034683,43.56696713144203
0.97246247112954,2.1852210132713705,1901,0,20.11327875034683,43.56696713144203
0.9943092588204246,2.1851991660231254,1901,0,20.11327875034683,43.56696713144203
1.0161558166197864,2.185177319006769,1901,0,20.11327875034683,43.56696713144203
1.0380021454128283,2.1851554722212625,1901,0,20.11327875034683,43.56696713144203
1.0598482460168126,2.1851336256656477,1901,0,20.11327875034683,43.56696713144203
1.081694119186288,2.1851117793390396,1901,0,20.11327875034683,43.56696713144203
1.103539765617915,2.1850899332406204,1901,0,20.11327875034683,43.56696713144203
1.1253851859549202,2.1850680873696353,1901,0,20.11327875034683,43.56696713144203
1.1472303807912065,2.1850462417253884,1901,0,20.11327875034683,43.56696713144203
1.16907535067515,2.1850243963072358,1901,0,20.11327875034683,43.56696713144203
1.190920096113102,2.185002551114584,1901,0,20.11327875034683,43.56696713144203
1.21276461757262,2.184980706146885,1901,0,20.11327875034683,43.56696713144203
1.2346089154854585,2.1849588614036315,1901,0,20.11327875034683,43.56696713144203
1.2564529902503172,2.1849370168843563,1901,0,20.11327875034683,43.56696713144203
1.2782968422353882,2.184915172588628,1901,0,20.11327875034683,43.56696713144203
1.3001404717807026,2.1848933285160475,1901,0,20.11327875034683,43.56696713144203
1.3219838792002965,2.184871484666247,1901,0,20.11327875034683,43.56696713144203
1.3438270647842119,2.1848496410388862,1901,0,20.11327875034683,43.56696713144203
1.365670028800342,2.184827797633651,1901,0,20.11327875034683,43.56696713144203
1.3875127714961362,2.184805954450251,1901,0,20.11327875034683,43.56696713144203
1.4093552931001723,2.1847841114884194,1901,0,20.11327875034683,43.56696713144203
1.4311975938236097,2.184762268747908,1901,0,20.11327875034683,43.56696713144203
1.4530396738615277,2.184740426228488,1901,0,20.11327875034683,43.56696713144203
1.4748815333941654,2.184718583929949,1901,0,20.11327875034683,43.56696713144203
1.496723172588061,2.1846967418520955,1901,0,20.11327875034683,43.56696713144203
1.5185645915971062,2.184674899994747,1901,0,20.11327875034683,43.56696713144203
1.5404057905635213,2.1846530583577373,1901,0,20.11327875034683,43.56696713144203
1.5622467696187514,2.1846312169409123,1901,0,20.11327875034683,43.56696713144203
1.5840875288842957,2.18460937574413,1901,0,20.11327875034683,43.56696713144203
1.605928068472474,2.184587534767259,1901,0,20.11327875034683,43.56696713144203
1.6277683884871306,2.184565694010178,1901,0,20.11327875034683,43.56696713144203
1.6496084890242888,2.1845438534727735,1901,0,20.11327875034683,43.56696713144203
1.6714483701727516,2.184522013154943,1901,0,20.11327875034683,43.56696713144203
1.6932880320146566,2.18450017305659,1901,0,20.11327875034683,43.56696713144203
1.7151274746259904,2.1844783331776254,1901,0,20.11327875034683,43.56696713144203
1.73696669807706,2.184456493517968,1901,0,20.11327875034683,43.56696713144203
1.7588057024329316,2.18443465407754,1901,0,20.11327875034683,43.56696713144203
1.780644487753833,2.184412814856273,1901,0,20.11327875034683,43.56696713144203
1.8024830540955257,2.184390975854101,1901,0,20.11327875034683,43.56696713144203
1.824321401509649,2.184369137070964,1901,0,20.11327875034683,43.56696713144203
1.8461595300440357,2.1843472985068066,1901,0,20.11327875034683,43.56696713144203
1.8679974397430084,2.1843254601615762,1901,0,20.11327875034683,43.56696713144203
1.889835130647646,2.184303622035226,1901,0,20.11327875034683,43.56696713144203
1.9116726027960347,2.1842817841277107,1901,0,20.11327875034683,43.56696713144203
1.9335098562234978,2.18425994643899,1901,0,20.11327875034683,43.56696713144203
1.95534689096281,2.184238108969025,1901,0,20.11327875034683,43.56696713144203
1.9771837070443912,2.1842162717177813,1901,0,20.11327875034683,43.56696713144203
1.9990203044964887,2.184194434685226,1901,0,20.11327875034683,43.56696713144203
2.020856683345345,2.1841725978713282,1901,0,20.11327875034683,43.56696713144203
2.04269284361535,2.18415076127606,1901,0,20.11327875034683,43.56696713144203
2.064528785329187,2.1841289248993943,1901,0,20.11327875034683,43.56696713144203
2.0863645085079603,2.184107088741308,1901,0,20.11327875034683,43.56696713144203
2.108200013171318,2.184085252801778,1901,0,20.11327875034683,43.56696713144203
2.1300352993375666,2.184063417080783,1901,0,20.11327875034683,43.56696713144203
2.151870367023769,2.184041581578303,1901,0,20.11327875034683,43.56696713144203
2.1737052162458452,2.1840197462943203,1901,0,20.11327875034683,43.56696713144203
2.195539847018657,2.1839979112288175,1901,0,20.11327875034683,43.56696713144203
2.217374259356093,2.183976076381779,1901,0,20.11327875034683,43.56696713144203
2.239208453271137,2.18395424175319,1901,0,20.11327875034683,43.56696713144203
2.261042428775947,2.1839324073430357,1901,0,20.11327875034683,43.56696713144203
2.2828761858819075,2.183910573151304,1901,0,20.11327875034683,43.56696713144203
2.304709724599699,2.183888739177983,1901,0,20.11327875034683,43.56696713144203
2.3265430449393474,2.18386690542306,1901,0,20.11327875034683,43.56696713144203
2.3483761469102746,2.183845071886526,1901,0,20.11327875034683,43.56696713144203
2.3702090305213455,2.18382323856837,1901,0,20.11327875034683,43.56696713144203
2.3920416957809105,2.183801405468582,1901,0,20.11327875034683,43.56696713144203
2.4138741426968466,2.1837795725871545,1901,0,20.11327875034683,43.56696713144203
2.435706371276591,2.183757739924078,1901,0,20.11327875034683,43.56696713144203
2.4575383815271783,2.1837359074793454,1901,0,20.11327875034683,43.56696713144203
2.479370173455268,2.183714075252949,1901,0,20.11327875034683,43.56696713144203
2.5012017470671757,2.1836922432448818,1901,0,20.11327875034683,43.56696713144203
2.5230331023689003,2.183670411455137,1901,0,20.11327875034683,43.56696713144203
2.5448642393661443,2.183648579883708,1901,0,20.11327875034683,43.56696713144203
2.5666951580643422,2.1836267485305894,1901,0,20.11327875034683,43.56696713144203
2.588525858468676,2.1836049173957757,1901,0,20.11327875034683,43.56696713144203
2.610356340584098,2.1835830864792602,1901,0,20.11327875034683,43.56696713144203
2.632186604415347,2.183561255781039,1901,0,20.11327875034683,43.56696713144203
2.6540166499669655,2.183539425301107,1901,0,20.11327875034683,43.56696713144203
2.6758464772433137,2.1835175950394587,1901,0,20.11327875034683,43.56696713144203
2.697676086248584,2.18349576499609,1901,0,20.11327875034683,43.56696713144203
2.719505476986815,2.183473935170997,1901,0,20.11327875034683,43.56696713144203
2.741334649461903,2.1834521055641747,1901,0,20.11327875034683,43.56696713144203
2.7631636036776084,2.1834302761756192,1901,0,20.11327875034683,43.56696713144203
2.784992339637577,2.183408447005327,1901,0,20.11327875034683,43.56696713144203
2.806820857345336,2.1833866180532944,1901,0,20.11327875034683,43.56696713144203
2.8286491568043104,2.1833647893195174,1901,0,20.11327875034683,43.56696713144203
2.850477238017832,2.1833429608039925,1901,0,20.11327875034683,43.56696713144203
2.8723051009891405,2.1833211325067166,1901,0,20.11327875034683,43.56696713144203
2.8941327457213966,2.1832993044276856,1901,0,20.11327875034683,43.56696713144203
2.9159601722176856,2.1832774765668974,1901,0,20.11327875034683,43.56696713144203
2.9377873804810224,2.1832556489243475,1901,0,20.11327875034683,43.56696713144203
2.959614370514358,2.183233821500034,1901,0,20.11327875034683,43.56696713144203
2.981441142320585,2.183211994293954,1901,0,20.11327875034683,43.56696713144203
3.0032676959025393,2.183190167306103,1901,0,20.11327875034683,43.56696713144203
3.025094031263009,2.1831683405364797,1901,0,20.11327875034683,43.56696713144203
3.046920148404733,2.1831465139850805,1901,0,20.11327875034683,43.56696713144203
3.0687460473304093,2.1831246876519024,1901,0,20.11327875034683,43.56696713144203
3.0905717280426956,2.1831028615369434,1901,0,20.11327875034683,43.56696713144203
3.1123971905442125,2.1830810356402006,1901,0,20.11327875034683,43.56696713144203
3.134222434837546,2.183059209961671,1901,0,20.11327875034683,43.56696713144203
3.156047460925254,2.1830373845013518,1901,0,20.11327875034683,43.56696713144203
3.1778722688098617,2.183015559259241,1901,0,20.11327875034683,43.56696713144203
3.19969685849387,2.182993734235336,1901,0,20.11327875034683,43.56696713144203
3.2215212299797544,2.1829719094296336,1901,0,20.11327875034683,43.56696713144203
3.2433453832699692,2.1829500848421324,1901,0,20.11327875034683,43.56696713144203
3.265169318366946,2.182928260472829,1901,0,20.11327875034683,43.56696713144203
3.2869930352730967,2.182906436321721,1901,0,20.11327875034683,43.56696713144203
3.3088165339908167,2.182884612388807,1901,0,20.11327875034683,43.56696713144203
3.3306398145224856,2.182862788674083,1901,0,20.11327875034683,43.56696713144203
3.3524628768704665,2.1828409651775473,1901,0,20.11327875034683,43.56696713144203
3.374285721037108,2.1828191418991985,1901,0,20.11327875034683,43.56696713144203
3.3961083470247475,2.182797318839033,1901,0,20.11327875034683,43.56696713144203
3.4179307548357096,2.1827754959970482,1901,0,20.11327875034683,43.56696713144203
3.439752944472307,2.182753673373243,1901,0,20.11327875034683,43.56696713144203
3.461574915936843,2.182731850967614,1901,0,20.11327875034683,43.56696713144203
3.483396669231611,2.1827100287801597,1901,0,20.11327875034683,43.56696713144203
3.5052182043588966,2.1826882068108775,1901,0,20.11327875034683,43.56696713144203
3.5270395213209778,2.182666385059765,1901,0,20.11327875034683,43.56696713144203
3.5488606201201236,2.18264456352682,1901,0,20.11327875034683,43.56696713144203
3.5706815007585955,2.18262274221204,1901,0,20.11327875034683,43.56696713144203
3.592502163238653,2.182600921115423,1901,0,20.11327875034683,43.56696713144203
3.614322607562544,2.1825791002369668,1901,0,20.11327875034683,43.56696713144203
3.636142833732515,2.182557279576669,1901,0,20.11327875034683,43.56696713144203
3.6579628417508063,2.182535459134527,1901,0,20.11327875034683,43.56696713144203
3.679782631619654,2.1825136389105393,1901,0,20.11327875034683,43.56696713144203
3.7016022033412894,2.182491818904703,1901,0,20.11327875034683,43.56696713144203
3.7234215569179407,2.182469999117016,1901,0,20.11327875034683,43.56696713144203
3.7452406923518313,2.1824481795474764,1901,0,20.11327875034683,43.56696713144203
3.7670596096451825,2.182426360196082,1901,0,20.11327875034683,43.56696713144203
3.7888783088002107,2.1824045410628297,1901,0,20.11327875034683,43.56696713144203
3.81069678981913,2.1823827221477186,1901,0,20.11327875034683,43.56696713144203
3.832515052704155,2.1823609034507454,1901,0,20.11327875034683,43.56696713144203
3.8543330974574936,2.1823390849719084,1901,0,20.11327875034683,43.56696713144203
3.876150924081354,2.182317266711205,1901,0,20.11327875034683,43.56696713144203
3.897968532577942,2.1822954486686337,1901,0,20.11327875034683,43.56696713144203
3.9197859229494605,2.1822736308441915,1901,0,20.11327875034683,43.56696713144203
3.9416030951981114,2.182251813237877,1901,0,20.11327875034683,43.56696713144203
3.9634200493260954,2.182229995849687,1901,0,20.11327875034683,43.56696713144203
3.9852367853356094,2.18220817867962,1901,0,20.11327875034683,43.56696713144203
4.007053303228852,2.1821863617276738,1901,0,20.11327875034683,43.56696713144203
4.028869603008017,2.1821645449938463,1901,0,20.11327875034683,43.56696713144203
4.050685684675301,2.1821427284781345,1901,0,20.11327875034683,43.56696713144203
4.072501548232897,2.182120912180537,1901,0,20.11327875034683,43.56696713144203
4.094317193682999,2.1820990961010516,1901,0,20.11327875034683,43.56696713144203
4.116132621027795,2.1820772802396755,1901,0,20.11327875034683,43.56696713144203
4.1379478302694785,2.182055464596407,1901,0,20.11327875034683,43.56696713144203
4.159762821410241,2.182033649171244,1901,0,20.11327875034683,43.56696713144203
4.181577594452269,2.1820118339641836,1901,0,20.11327875034683,43.56696713144203
4.20339214939775,2.1819900189752244,1901,0,20.11327875034683,43.56696713144203
4.225206486248875,2.181968204204364,1901,0,20.11327875034683,43.56696713144203
4.24702060500783,2.1819463896516,1901,0,20.11327875034683,43.56696713144203
4.2688345056768,2.1819245753169305,1901,0,20.11327875034683,43.56696713144203
4.290648188257973,2.181902761200353,1901,0,20.11327875034683,43.56696713144203
4.312461652753535,2.1818809473018654,1901,0,20.11327875034683,43.56696713144203
4.3342748991656705,2.1818591336214657,1901,0,20.11327875034683,43.56696713144203
4.356087927496565,2.1818373201591514,1901,0,20.11327875034683,43.56696713144203
4.377900737748401,2.1818155069149205,1901,0,20.11327875034683,43.56696713144203
4.399713329923365,2.181793693888771,1901,0,20.11327875034683,43.56696713144203
4.421525704023641,2.1817718810807003,1901,0,20.11327875034683,43.56696713144203
4.443337860051412,2.181750068490707,1901,0,20.11327875034683,43.56696713144203
4.46514979800886,2.1817282561187876,1901,0,20.11327875034683,43.56696713144203
4.486961517898169,2.1817064439649414,1901,0,20.11327875034683,43.56696713144203
4.508773019721523,2.181684632029165,1901,0,20.11327875034683,43.56696713144203
4.530584303481103,2.181662820311457,1901,0,20.11327875034683,43.56696713144203
4.55239536917909,2.1816410088118148,1901,0,20.11327875034683,43.56696713144203
4.574206216817669,2.1816191975302366,1901,0,20.11327875034683,43.56696713144203
4.596016846399021,2.1815973864667195,1901,0,20.11327875034683,43.56696713144203
4.6178272579253274,2.1815755756212623,1901,0,20.11327875034683,43.56696713144203
4.63963745139877,2.181553764993862,1901,0,20.11327875034683,43.56696713144203
4.661447426821533,2.181531954584517,1901,0,20.11327875034683,43.56696713144203
4.683257184195792,2.1815101443932243,1901,0,20.11327875034683,43.56696713144203
4.705066723523733,2.1814883344199827,1901,0,20.11327875034683,43.56696713144203
4.726876044807536,2.1814665246647893,1901,0,20.11327875034683,43.56696713144203
4.748685148049381,2.1814447151276424,1901,0,20.11327875034683,43.56696713144203
4.770494033251449,2.1814229058085397,1901,0,20.11327875034683,43.56696713144203
4.792302700415921,2.1814010967074786,1901,0,20.11327875034683,43.56696713144203
4.8141111495449795,2.181379287824458,1901,0,20.11327875034683,43.56696713144203
4.835919380640802,2.181357479159474,1901,0,20.11327875034683,43.56696713144203
4.857727393705572,2.1813356707125258,1901,0,20.11327875034683,43.56696713144203
4.8795351887414675,2.181313862483611,1901,0,20.11327875034683,43.56696713144203
4.901342765750671,2.181292054472727,1901,0,20.11327875034683,43.56696713144203
4.923150124735361,2.1812702466798717,1901,0,20.11327875034683,43.56696713144203
4.9449572656977185,2.1812484391050435,1901,0,20.11327875034683,43.56696713144203
4.966764188639926,2.1812266317482396,1901,0,20.11327875034683,43.56696713144203
4.988570893564161,2.1812048246094577,1901,0,20.11327875034683,43.56696713144203
5.010377380472603,2.1811830176886966,1901,0,20.11327875034683,43.56696713144203
5.032183649367433,2.181161210985953,1901,0,20.11327875034683,43.56696713144203
5.053989700250832,2.1811394045012253,1901,0,20.11327875034683,43.56696713144203
5.075795533124978,2.1811175982345112,1901,0,20.11327875034683,43.56696713144203
5.097601147992052,2.1810957921858085,1901,0,20.11327875034683,43.56696713144203
5.119406544854235,2.181073986355115,1901,0,20.11327875034683,43.56696713144203
5.141211723713705,2.1810521807424283,1901,0,20.11327875034683,43.56696713144203
5.163016684572643,2.181030375347747,1901,0,20.11327875034683,43.56696713144203
5.184821427433226,2.181008570171068,1901,0,20.11327875034683,43.56696713144203
5.206625952297637,2.1809867652123893,1901,0,20.11327875034683,43.56696713144203
5.228430259168054,2.180964960471709,1901,0,20.11327875034683,43.56696713144203
5.250234348046657,2.1809431559490253,1901,0,20.11327875034683,43.56696713144203
5.2720382189356245,2.1809213516443355,1901,0,20.11327875034683,43.56696713144203
5.293841871837136,2.180899547557637,1901,0,20.11327875034683,43.56696713144203
5.315645306753375,2.180877743688929,1901,0,20.11327875034683,43.56696713144203
5.337448523686513,2.1808559400382075,1901,0,20.11327875034683,43.56696713144203
5.359251522638738,2.1808341366054718,1901,0,20.11327875034683,43.56696713144203
