Vout,Iout,Irradiance,Temperature,MaxVoltage,MaxPower
0.001175838693858713,0.23517,201,10,20.812549582814416,4.461413825967154
0.003527494339205802,0.23517,201,10,20.812549582814416,4.461413825967154
0.005879102175983471,0.23516880064430612,201,10,20.812549582814416,4.461413825967154
0.008230653663206626,0.2351664489886608,201,10,20.812549582814416,4.461413825967154
0.01058214600953316,0.23516409738094393,201,10,20.812549582814416,4.461413825967154
0.012933581956948293,0.23516174582969188,201,10,20.812549582814416,4.461413825967154
0.015284964036560815,0.2351593943375807,201,10,20.812549582814416,4.461413825967154
0.017636294584776176,0.23515704290186845,201,10,20.812549582814416,4.461413825967154
0.019987575758251185,0.235154691520024,201,10,20.812549582814416,4.461413825967154
0.022338809547724187,0.23515234018971093,201,10,20.812549582814416,4.461413825967154
0.024689997790781057,0.2351499889087726,201,10,20.812549582814416,4.461413825967154
0.027041142183639,0.23514763767521824,201,10,20.812549582814416,4.461413825967154
0.029392244292023702,0.2351452864872103,201,10,20.812549582814416,4.461413825967154
0.03174330556120951,0.23514293534305258,201,10,20.812549582814416,4.461413825967154
0.0340943273252872,0.2351405842411793,201,10,20.812549582814416,4.461413825967154
0.03644531081571855,0.23513823318014523,201,10,20.812549582814416,4.461413825967154
0.038796257169232844,0.23513588215861628,201,10,20.812549582814416,4.461413825967154
0.04114716743511568,0.23513353117536095,201,10,20.812549582814416,4.461413825967154
0.043498042581937076,0.23513118022924254,201,10,20.812549582814416,4.461413825967154
0.04584888350376179,0.23512882931921175,201,10,20.812549582814416,4.461413825967154
0.04819969102588196,0.23512647844430004,201,10,20.812549582814416,4.461413825967154
0.050550465910108484,0.2351241276036133,201,10,20.812549582814416,4.461413825967154
0.05290120885965545,0.23512177679632626,201,10,20.812549582814416,4.461413825967154
0.05525192052364857,0.23511942602167712,201,10,20.812549582814416,4.461413825967154
0.05760260150128693,0.23511707527896267,201,10,20.812549582814416,4.461413825967154
0.05995325234568434,0.23511472456753374,201,10,20.812549582814416,4.461413825967154
0.062303873567415284,0.23511237388679118,201,10,20.812549582814416,4.461413825967154
0.06465446563778786,0.23511002323618185,201,10,20.812549582814416,4.461413825967154
0.06700502899186507,0.2351076726151952,201,10,20.812549582814416,4.461413825967154
0.0693555640312536,0.23510532202335988,201,10,20.812549582814416,4.461413825967154
0.07170607112667794,0.23510297146024087,201,10,20.812549582814416,4.461413825967154
0.07405655062035651,0.23510062092543654,201,10,20.812549582814416,4.461413825967154
0.076407002828195,0.23509827041857617,201,10,20.812549582814416,4.461413825967154
0.07875742804181086,0.23509591993931755,201,10,20.812549582814416,4.461413825967154
0.0811078265304022,0.23509356948734475,201,10,20.812549582814416,4.461413825967154
0.08345819854247258,0.23509121906236619,201,10,20.812549582814416,4.461413825967154
0.08580854430742339,0.23508886866411263,201,10,20.812549582814416,4.461413825967154
0.0881588640370237,0.23508651829233562,201,10,20.812549582814416,4.461413825967154
0.09050915792676663,0.2350841679468057,201,10,20.812549582814416,4.461413825967154
0.09285942615712195,0.23508181762731115,201,10,20.812549582814416,4.461413825967154
0.09520966889469186,0.23507946733365642,201,10,20.812549582814416,4.461413825967154
0.09755988629327796,0.23507711706566112,201,10,20.812549582814416,4.461413825967154
0.09991007849486624,0.23507476682315856,201,10,20.812549582814416,4.461413825967154
0.1022602456305361,0.235072416605995,201,10,20.812549582814416,4.461413825967154
0.10461038782129953,0.23507006641402844,201,10,20.812549582814416,4.461413825967154
0.10696050517887579,0.2350677162471278,201,10,20.812549582814416,4.461413825967154
0.10931059780640631,0.23506536610517204,201,10,20.812549582814416,4.461413825967154
0.11166066579911482,0.2350630159880495,201,10,20.812549582814416,4.461413825967154
0.11401070924491635,0.23506066589565697,201,10,20.812549582814416,4.461413825967154
0.11636072822497973,0.23505831582789927,201,10,20.812549582814416,4.461413825967154
0.11871072281424658,0.2350559657846885,201,10,20.812549582814416,4.461413825967154
0.12106069308191048,0.23505361576594344,201,10,20.812549582814416,4.461413825967154
0.12341063909185923,0.23505126577158916,201,10,20.812549582814416,4.461413825967154
0.1257605609030831,0.2350489158015565,201,10,20.812549582814416,4.461413825967154
0.12811045857005152,0.23504656585578154,201,10,20.812549582814416,4.461413825967154
0.13046033214306116,0.23504421593420532,201,10,20.812549582814416,4.461413825967154
0.13281018166855674,0.23504186603677335,201,10,20.812549582814416,4.461413825967154
0.13516000718942758,0.23503951616343532,201,10,20.812549582814416,4.461413825967154
0.13750980874528113,0.23503716631414484,201,10,20.812549582814416,4.461413825967154
0.13985958637269535,0.23503481648885893,201,10,20.812549582814416,4.461413825967154
0.142209340105452,0.23503246668753808,201,10,20.812549582814416,4.461413825967154
0.14455906997475154,0.23503011691014564,201,10,20.812549582814416,4.461413825967154
0.14690877600941218,0.23502776715664786,201,10,20.812549582814416,4.461413825967154
0.14925845823605258,0.23502541742701355,201,10,20.812549582814416,4.461413825967154
0.1516081166792615,0.23502306772121387,201,10,20.812549582814416,4.461413825967154
0.15395775136175388,0.2350207180392222,201,10,20.812549582814416,4.461413825967154
0.15630736230451503,0.23501836838101395,201,10,20.812549582814416,4.461413825967154
0.1586569495269336,0.23501601874656644,201,10,20.812549582814416,4.461413825967154
0.16100651304692457,0.23501366913585864,201,10,20.812549582814416,4.461413825967154
0.1633560528810426,0.2350113195488712,201,10,20.812549582814416,4.461413825967154
0.16570556904458664,0.23500896998558615,201,10,20.812549582814416,4.461413825967154
0.1680550615516966,0.235006620445987,201,10,20.812549582814416,4.461413825967154
0.17040453041544248,0.2350042709300584,201,10,20.812549582814416,4.461413825967154
0.17275397564790682,0.23500192143778625,201,10,20.812549582814416,4.461413825967154
0.17510339726026042,0.23499957196915747,201,10,20.812549582814416,4.461413825967154
0.17745279526283275,0.23499722252415994,201,10,20.812549582814416,4.461413825967154
0.17980216966517656,0.23499487310278253,201,10,20.812549582814416,4.461413825967154
0.18215152047612768,0.23499252370501492,201,10,20.812549582814416,4.461413825967154
0.18450084770386013,0.2349901743308475,201,10,20.812549582814416,4.461413825967154
0.18685015135593705,0.2349878249802715,201,10,20.812549582814416,4.461413825967154
0.1891994314393578,0.2349854756532787,201,10,20.812549582814416,4.461413825967154
0.19154868796060132,0.23498312634986154,201,10,20.812549582814416,4.461413825967154
0.19389792092566585,0.23498077707001308,201,10,20.812549582814416,4.461413825967154
0.19624713034010643,0.23497842781372674,201,10,20.812549582814416,4.461413825967154
0.1985963162090687,0.23497607858099662,201,10,20.812549582814416,4.461413825967154
0.20094547853732037,0.2349737293718171,201,10,20.812549582814416,4.461413825967154
0.20329461732928047,0.23497138018618308,201,10,20.812549582814416,4.461413825967154
0.20564373258904603,0.23496903102408973,201,10,20.812549582814416,4.461413825967154
0.207992824320417,0.23496668188553269,201,10,20.812549582814416,4.461413825967154
0.21034189252691884,0.23496433277050785,201,10,20.812549582814416,4.461413825967154
0.21269093721182403,0.2349619836790114,201,10,20.812549582814416,4.461413825967154
0.21503995837817116,0.2349596346110398,201,10,20.812549582814416,4.461413825967154
0.21738895602878322,0.2349572855665898,201,10,20.812549582814416,4.461413825967154
0.2197379301662839,0.23495493654565835,201,10,20.812549582814416,4.461413825967154
0.22208688079311328,0.23495258754824266,201,10,20.812549582814416,4.461413825967154
0.2244358079115416,0.23495023857434005,201,10,20.812549582814416,4.461413825967154
0.22678471152368254,0.2349478896239481,201,10,20.812549582814416,4.461413825967154
0.22913359163150518,0.23494554069706458,201,10,20.812549582814416,4.461413825967154
0.23148244823684527,0.23494319179368733,201,10,20.812549582814416,4.461413825967154
0.23383128134141523,0.23494084291381442,201,10,20.812549582814416,4.461413825967154
0.2361800909468139,0.23493849405744396,201,10,20.812549582814416,4.461413825967154
0.2385288770545351,0.2349361452245743,201,10,20.812549582814416,4.461413825967154
0.24087763966597578,0.23493379641520376,201,10,20.812549582814416,4.461413825967154
0.24322637878244352,0.23493144762933094,201,10,20.812549582814416,4.461413825967154
0.24557509440516326,0.23492909886695437,201,10,20.812549582814416,4.461413825967154
0.24792378653528385,0.2349267501280728,201,10,20.812549582814416,4.461413825967154
0.2502724551738837,0.23492440141268495,201,10,20.812549582814416,4.461413825967154
0.25262110032197643,0.2349220527207897,201,10,20.812549582814416,4.461413825967154
0.25496972198051565,0.23491970405238596,201,10,20.812549582814416,4.461413825967154
0.2573183201503997,0.23491735540747274,201,10,20.812549582814416,4.461413825967154
0.2596668948324758,0.23491500678604907,201,10,20.812549582814416,4.461413825967154
0.26201544602754406,0.23491265818811405,201,10,20.812549582814416,4.461413825967154
0.26436397373636117,0.23491030961366682,201,10,20.812549582814416,4.461413825967154
0.26671247795964353,0.23490796106270662,201,10,20.812549582814416,4.461413825967154
0.2690609586980707,0.23490561253523268,201,10,20.812549582814416,4.461413825967154
0.2714094159522877,0.23490326403124423,201,10,20.812549582814416,4.461413825967154
0.2737578497229081,0.23490091555074066,201,10,20.812549582814416,4.461413825967154
0.2761062600105166,0.2348985670937213,201,10,20.812549582814416,4.461413825967154
0.27845464681567045,0.23489621866018554,201,10,20.812549582814416,4.461413825967154
0.2808030101389026,0.23489387025013275,201,10,20.812549582814416,4.461413825967154
0.2831513499807225,0.23489152186356246,201,10,20.812549582814416,4.461413825967154
0.2854996663416191,0.23488917350047406,201,10,20.812549582814416,4.461413825967154
0.2878479592220613,0.2348868251608671,201,10,20.812549582814416,4.461413825967154
0.2901962286225002,0.234884476844741,201,10,20.812549582814416,4.461413825967154
0.29254447454337024,0.23488212855209542,201,10,20.812549582814416,4.461413825967154
0.2948926969850902,0.2348797802829298,201,10,20.812549582814416,4.461413825967154
0.29724089594806524,0.23487743203724376,201,10,20.812549582814416,4.461413825967154
0.29958907143268687,0.23487508381503688,201,10,20.812549582814416,4.461413825967154
0.30193722343933493,0.23487273561630873,201,10,20.812549582814416,4.461413825967154
0.30428535196837775,0.23487038744105893,201,10,20.812549582814416,4.461413825967154
0.3066334570201737,0.2348680392892871,201,10,20.812549582814416,4.461413825967154
0.30898153859507144,0.23486569116099287,201,10,20.812549582814416,4.461413825967154
0.3113295966934109,0.2348633430561759,201,10,20.812549582814416,4.461413825967154
0.31367763131552384,0.2348609949748358,201,10,20.812549582814416,4.461413825967154
0.3160256424617348,0.23485864691697228,201,10,20.812549582814416,4.461413825967154
0.31837363013236103,0.23485629888258497,201,10,20.812549582814416,4.461413825967154
0.32072159432771385,0.23485395087167357,201,10,20.812549582814416,4.461413825967154
0.32306953504809816,0.23485160288423773,201,10,20.812549582814416,4.461413825967154
0.32541745229381397,0.2348492549202772,201,10,20.812549582814416,4.461413825967154
0.3277653460651559,0.2348469069797916,201,10,20.812549582814416,4.461413825967154
0.3301132163624143,0.23484455906278068,201,10,20.812549582814416,4.461413825967154
0.33246106318587487,0.23484221116924414,201,10,20.812549582814416,4.461413825967154
0.3348088865358196,0.23483986329918166,201,10,20.812549582814416,4.461413825967154
0.3371566864125268,0.234837515452593,201,10,20.812549582814416,4.461413825967154
0.3395044628162713,0.23483516762947784,201,10,20.812549582814416,4.461413825967154
0.341852215747325,0.23483281982983592,201,10,20.812549582814416,4.461413825967154
0.344199945205957,0.23483047205366694,201,10,20.812549582814416,4.461413825967154
0.3465476511924334,0.2348281243009707,201,10,20.812549582814416,4.461413825967154
0.3488953337070183,0.23482577657174683,201,10,20.812549582814416,4.461413825967154
0.35124299274997317,0.23482342886599514,201,10,20.812549582814416,4.461413825967154
0.35359062832155774,0.2348210811837153,201,10,20.812549582814416,4.461413825967154
0.35593824042202965,0.23481873352490712,201,10,20.812549582814416,4.461413825967154
0.35828582905164447,0.23481638588957032,201,10,20.812549582814416,4.461413825967154
0.36063339421065677,0.2348140382777046,201,10,20.812549582814416,4.461413825967154
0.3629809358993191,0.23481169068930977,201,10,20.812549582814416,4.461413825967154
0.36532845411788295,0.2348093431243855,201,10,20.812549582814416,4.461413825967154
0.3676759488665983,0.2348069955829316,201,10,20.812549582814416,4.461413825967154
0.3700234201457139,0.2348046480649478,201,10,20.812549582814416,4.461413825967154
0.37237086795547764,0.23480230057043383,201,10,20.812549582814416,4.461413825967154
0.37471829229613624,0.23479995309938947,201,10,20.812549582814416,4.461413825967154
0.37706569316793537,0.23479760565181446,201,10,20.812549582814416,4.461413825967154
0.37941307057112017,0.23479525822770855,201,10,20.812549582814416,4.461413825967154
0.38176042450593484,0.2347929108270715,201,10,20.812549582814416,4.461413825967154
0.3841077549726227,0.23479056344990304,201,10,20.812549582814416,4.461413825967154
0.3864550619714265,0.23478821609620298,201,10,20.812549582814416,4.461413825967154
0.3888023455025884,0.23478586876597102,201,10,20.812549582814416,4.461413825967154
0.3911496055663499,0.23478352145920695,201,10,20.812549582814416,4.461413825967154
0.393496842162952,0.23478117417591052,201,10,20.812549582814416,4.461413825967154
0.3958440552926353,0.23477882691608148,201,10,20.812549582814416,4.461413825967154
0.3981912449556397,0.23477647967971962,201,10,20.812549582814416,4.461413825967154
0.4005384111522049,0.23477413246682466,201,10,20.812549582814416,4.461413825967154
0.40288555388257014,0.2347717852773964,201,10,20.812549582814416,4.461413825967154
0.40523267314697425,0.23476943811143453,201,10,20.812549582814416,4.461413825967154
0.407579768945656,0.23476709096893889,201,10,20.812549582814416,4.461413825967154
0.4099268412788535,0.2347647438499092,201,10,20.812549582814416,4.461413825967154
0.4122738901468046,0.23476239675434524,201,10,20.812549582814416,4.461413825967154
0.4146209155497471,0.23476004968224676,201,10,20.812549582814416,4.461413825967154
0.41696791748791856,0.2347577026336135,201,10,20.812549582814416,4.461413825967154
0.419314895961556,0.23475535560844527,201,10,20.812549582814416,4.461413825967154
0.42166185097089665,0.2347530086067418,201,10,20.812549582814416,4.461413825967154
0.4240087825161772,0.23475066162850286,201,10,20.812549582814416,4.461413825967154
0.4263556905976344,0.23474831467372823,201,10,20.812549582814416,4.461413825967154
0.42870257521550476,0.23474596774241765,201,10,20.812549582814416,4.461413825967154
0.43104943637002463,0.2347436208345709,201,10,20.812549582814416,4.461413825967154
0.4333962740614303,0.2347412739501877,201,10,20.812549582814416,4.461413825967154
0.43574308828995767,0.23473892708926788,201,10,20.812549582814416,4.461413825967154
0.43808987905584285,0.23473658025181116,201,10,20.812549582814416,4.461413825967154
0.4404366463593217,0.23473423343781732,201,10,20.812549582814416,4.461413825967154
0.44278339020062996,0.23473188664728611,201,10,20.812549582814416,4.461413825967154
0.4451301105800033,0.23472953988021733,201,10,20.812549582814416,4.461413825967154
0.44747680749767726,0.2347271931366107,201,10,20.812549582814416,4.461413825967154
0.44982348095388736,0.234724846416466,201,10,20.812549582814416,4.461413825967154
0.4521701309488688,0.234722499719783,201,10,20.812549582814416,4.461413825967154
0.4545167574828573,0.23472015304656146,201,10,20.812549582814416,4.461413825967154
0.45686336055608806,0.23471780639680115,201,10,20.812549582814416,4.461413825967154
0.4592099401687963,0.23471545977050182,201,10,20.812549582814416,4.461413825967154
0.46155649632121704,0.23471311316766327,201,10,20.812549582814416,4.461413825967154
0.46390302901358543,0.2347107665882852,201,10,20.812549582814416,4.461413825967154
0.4662495382461367,0.23470842003236744,201,10,20.812549582814416,4.461413825967154
0.4685960240191057,0.23470607349990974,201,10,20.812549582814416,4.461413825967154
0.4709424863327276,0.23470372699091185,201,10,20.812549582814416,4.461413825967154
0.4732889251872374,0.23470138050537354,201,10,20.812549582814416,4.461413825967154
0.4756353405828698,0.23469903404329456,201,10,20.812549582814416,4.461413825967154
0.4779817325198598,0.23469668760467471,201,10,20.812549582814416,4.461413825967154
0.48032810099844236,0.2346943411895137,201,10,20.812549582814416,4.461413825967154
0.48267444601885223,0.23469199479781136,201,10,20.812549582814416,4.461413825967154
0.4850207675813242,0.23468964842956744,201,10,20.812549582814416,4.461413825967154
0.4873670656860929,0.23468730208478167,201,10,20.812549582814416,4.461413825967154
0.48971334033339337,0.23468495576345383,201,10,20.812549582814416,4.461413825967154
0.4920595915234603,0.2346826094655837,201,10,20.812549582814416,4.461413825967154
0.4944058192565282,0.23468026319117102,201,10,20.812549582814416,4.461413825967154
0.4967520235328321,0.2346779169402156,201,10,20.812549582814416,4.461413825967154
0.49909820435260643,0.23467557071271714,201,10,20.812549582814416,4.461413825967154
0.5014443617160859,0.23467322450867548,201,10,20.812549582814416,4.461413825967154
0.5037904956235052,0.2346708783280903,201,10,20.812549582814416,4.461413825967154
0.5061366060750991,0.23466853217096145,201,10,20.812549582814416,4.461413825967154
0.5084826930711019,0.23466618603728864,201,10,20.812549582814416,4.461413825967154
0.5108287566117486,0.23466383992707168,201,10,20.812549582814416,4.461413825967154
0.5131747966972736,0.2346614938403103,201,10,20.812549582814416,4.461413825967154
0.5155208133279117,0.23465914777700425,201,10,20.812549582814416,4.461413825967154
0.517866806503897,0.23465680173715334,201,10,20.812549582814416,4.461413825967154
0.5202127762254646,0.2346544557207573,201,10,20.812549582814416,4.461413825967154
0.5225587224928487,0.23465210972781592,201,10,20.812549582814416,4.461413825967154
0.524904645306284,0.23464976375832897,201,10,20.812549582814416,4.461413825967154
0.5272505446660052,0.23464741781229617,201,10,20.812549582814416,4.461413825967154
0.5295964205722465,0.23464507188971734,201,10,20.812549582814416,4.461413825967154
0.5319422730252429,0.23464272599059222,201,10,20.812549582814416,4.461413825967154
0.5342881020252285,0.23464038011492055,201,10,20.812549582814416,4.461413825967154
0.5366339075724382,0.23463803426270216,201,10,20.812549582814416,4.461413825967154
0.5389796896671061,0.23463568843393676,201,10,20.812549582814416,4.461413825967154
0.5413254483094669,0.23463334262862412,201,10,20.812549582814416,4.461413825967154
0.5436711834997552,0.23463099684676403,201,10,20.812549582814416,4.461413825967154
0.5460168952382055,0.23462865108835626,201,10,20.812549582814416,4.461413825967154
0.5483625835250522,0.23462630535340054,201,10,20.812549582814416,4.461413825967154
0.5507082483605298,0.23462395964189667,201,10,20.812549582814416,4.461413825967154
0.5530538897448728,0.2346216139538444,201,10,20.812549582814416,4.461413825967154
