Vout,Iout,Irradiance,Temperature,MaxVoltage,MaxPower
0.008066122441130374,1.61324,1301,45,22.89198948199738,36.355690812098416
0.024198218173152902,1.61324,1301,45,22.89198948199738,36.355690812098416
0.04032998594371551,1.613231772553559,1301,45,22.89198948199738,36.355690812098416
0.05646136716261197,1.6132156404578268,1301,45,22.89198948199738,36.355690812098416
0.07259234268154643,1.613199508690879,1301,45,22.89198948199738,36.355690812098416
0.08872293131023204,1.6131833773112734,1301,45,22.89198948199738,36.355690812098416
0.10485315041179306,1.6131672463373676,1301,45,22.89198948199738,36.355690812098416
0.1209830160137106,1.613151115750352,1301,45,22.89198948199738,36.355690812098416
0.1371125429104101,1.6131349855328636,1301,45,22.89198948199738,36.355690812098416
0.15324174475813482,1.6131188556688747,1301,45,22.89198948199738,36.355690812098416
0.16937063416251916,1.613102726143591,1301,45,22.89198948199738,36.355690812098416
0.18549922275942415,1.6130865969433563,1301,45,22.89198948199738,36.355690812098416
0.20162752128955358,1.613070468055565,1301,45,22.89198948199738,36.355690812098416
0.2177555396673285,1.6130543394685808,1301,45,22.89198948199738,36.355690812098416
0.2338832870444628,1.6130382111716637,1301,45,22.89198948199738,36.355690812098416
0.25001077186864734,1.6130220831548987,1301,45,22.89198948199738,36.355690812098416
0.2661380019377182,1.6130059554091345,1301,45,22.89198948199738,36.355690812098416
0.28226498444965775,1.612989827925923,1301,45,22.89198948199738,36.355690812098416
0.2983917260487484,1.6129737006974667,1301,45,22.89198948199738,36.355690812098416
0.31451823286817476,1.6129575737165676,1301,45,22.89198948199738,36.355690812098416
0.330644510569349,1.6129414469765813,1301,45,22.89198948199738,36.355690812098416
0.346770564378209,1.6129253204713745,1301,45,22.89198948199738,36.355690812098416
0.3628963991187249,1.612909194195286,1301,45,22.89198948199738,36.355690812098416
0.37902201924382695,1.6128930681430897,1301,45,22.89198948199738,36.355690812098416
0.39514742886395415,1.6128769423099618,1301,45,22.89198948199738,36.355690812098416
0.41127263177340556,1.6128608166914493,1301,45,22.89198948199738,36.355690812098416
0.42739763147466503,1.6128446912834418,1301,45,22.89198948199738,36.355690812098416
0.4435224312008539,1.6128285660821449,1301,45,22.89198948199738,36.355690812098416
0.45964703393645606,1.6128124410840563,1301,45,22.89198948199738,36.355690812098416
0.47577144243644814,1.6127963162859424,1301,45,22.89198948199738,36.355690812098416
0.4918956592439591,1.6127801916848195,1301,45,22.89198948199738,36.355690812098416
0.508019686706569,1.612764067277932,1301,45,22.89198948199738,36.355690812098416
0.5241435269913561,1.612747943062737,1301,45,22.89198948199738,36.355690812098416
0.5402671820987834,1.6127318190368867,1301,45,22.89198948199738,36.355690812098416
0.5563906538755197,1.6127156951982144,1301,45,22.89198948199738,36.355690812098416
0.5725139440262719,1.6126995715447192,1301,45,22.89198948199738,36.355690812098416
0.5886370541247082,1.6126834480745549,1301,45,22.89198948199738,36.355690812098416
0.6047599856235403,1.6126673247860166,1301,45,22.89198948199738,36.355690812098416
0.6208827398638298,1.6126512016775305,1301,45,22.89198948199738,36.355690812098416
0.6370053180835791,1.612635078747644,1301,45,22.89198948199738,36.355690812098416
0.6531277214256604,1.612618955995016,1301,45,22.89198948199738,36.355690812098416
0.6692499509451361,1.6126028334184086,1301,45,22.89198948199738,36.355690812098416
0.6853720076160136,1.6125867110166787,1301,45,22.89198948199738,36.355690812098416
0.7014938923374832,1.6125705887887716,1301,45,22.89198948199738,36.355690812098416
0.7176156059396739,1.6125544667337128,1301,45,22.89198948199738,36.355690812098416
0.7337371491889673,1.6125383448506037,1301,45,22.89198948199738,36.355690812098416
0.7498585227929022,1.6125222231386136,1301,45,22.89198948199738,36.355690812098416
0.7659797274047024,1.6125061015969766,1301,45,22.89198948199738,36.355690812098416
0.7821007636274556,1.6124899802249848,1301,45,22.89198948199738,36.355690812098416
0.7982216320179705,1.6124738590219851,1301,45,22.89198948199738,36.355690812098416
0.814342333090339,1.6124577379873746,1301,45,22.89198948199738,36.355690812098416
0.8304628673192208,1.6124416171205962,1301,45,22.89198948199738,36.355690812098416
0.8465832351428791,1.612425496421136,1301,45,22.89198948199738,36.355690812098416
0.8627034369659806,1.6124093758885192,1301,45,22.89198948199738,36.355690812098416
0.8788234731621799,1.6123932555223075,1301,45,22.89198948199738,36.355690812098416
0.8949433440765059,1.6123771353220964,1301,45,22.89198948199738,36.355690812098416
0.9110630500275646,1.6123610152875123,1301,45,22.89198948199738,36.355690812098416
0.927182591309572,1.61234489541821,1301,45,22.89198948199738,36.355690812098416
0.9433019681942306,1.612328775713871,1301,45,22.89198948199738,36.355690812098416
0.9594211809324614,1.612312656174201,1301,45,22.89198948199738,36.355690812098416
0.9755402297560031,1.6122965367989281,1301,45,22.89198948199738,36.355690812098416
0.9916591148788884,1.6122804175878018,1301,45,22.89198948199738,36.355690812098416
1.0077778364988055,1.6122642985405904,1301,45,22.89198948199738,36.355690812098416
1.0238963947983561,1.6122481796570793,1301,45,22.89198948199738,36.355690812098416
1.0400147899462167,1.6122320609370713,1301,45,22.89198948199738,36.355690812098416
1.0561330220982088,1.6122159423803837,1301,45,22.89198948199738,36.355690812098416
1.0722510913982894,1.6121998239868478,1301,45,22.89198948199738,36.355690812098416
1.088368997979463,1.6121837057563075,1301,45,22.89198948199738,36.355690812098416
1.1044867419646238,1.6121675876886192,1301,45,22.89198948199738,36.355690812098416
1.1206043234673349,1.6121514697836499,1301,45,22.89198948199738,36.355690812098416
1.1367217425925455,1.6121353520412767,1301,45,22.89198948199738,36.355690812098416
1.152838999437254,1.6121192344613857,1301,45,22.89198948199738,36.355690812098416
1.168956094091119,1.6121031170438722,1301,45,22.89198948199738,36.355690812098416
1.1850730266370255,1.6120869997886393,1301,45,22.89198948199738,36.355690812098416
1.2011897971516035,1.6120708826955972,1301,45,22.89198948199738,36.355690812098416
1.2173064057057124,1.6120547657646631,1301,45,22.89198948199738,36.355690812098416
1.2334228523648831,1.61203864899576,1301,45,22.89198948199738,36.355690812098416
1.2495391371897282,1.6120225323888178,1301,45,22.89198948199738,36.355690812098416
1.2656552602363205,1.6120064159437701,1301,45,22.89198948199738,36.355690812098416
1.2817712215565427,1.611990299660557,1301,45,22.89198948199738,36.355690812098416
1.297887021198409,1.6119741835391221,1301,45,22.89198948199738,36.355690812098416
1.3140026592063643,1.6119580675794134,1301,45,22.89198948199738,36.355690812098416
1.3301181356215563,1.6119419517813833,1301,45,22.89198948199738,36.355690812098416
1.346233450482092,1.6119258361449869,1301,45,22.89198948199738,36.355690812098416
1.3623486038232697,1.6119097206701833,1301,45,22.89198948199738,36.355690812098416
1.3784635956777949,1.6118936053569344,1301,45,22.89198948199738,36.355690812098416
1.3945784260759824,1.6118774902052047,1301,45,22.89198948199738,36.355690812098416
1.4106930950459369,1.6118613752149618,1301,45,22.89198948199738,36.355690812098416
1.4268076026137253,1.611845260386175,1301,45,22.89198948199738,36.355690812098416
1.4429219488035334,1.6118291457188165,1301,45,22.89198948199738,36.355690812098416
1.4590361336378084,1.6118130312128602,1301,45,22.89198948199738,36.355690812098416
1.475150157137395,1.611796916868282,1301,45,22.89198948199738,36.355690812098416
1.4912640193216595,1.611780802685059,1301,45,22.89198948199738,36.355690812098416
1.5073777202085994,1.611764688663171,1301,45,22.89198948199738,36.355690812098416
1.5234912598149528,1.6117485748025981,1301,45,22.89198948199738,36.355690812098416
1.5396046381562942,1.6117324611033226,1301,45,22.89198948199738,36.355690812098416
1.5557178552471231,1.6117163475653276,1301,45,22.89198948199738,36.355690812098416
1.5718309111009474,1.6117002341885975,1301,45,22.89198948199738,36.355690812098416
1.5879438057303596,1.611684120973118,1301,45,22.89198948199738,36.355690812098416
1.6040565391471067,1.6116680079188757,1301,45,22.89198948199738,36.355690812098416
1.6201691113621568,1.6116518950258576,1301,45,22.89198948199738,36.355690812098416
1.6362815223857574,1.6116357822940521,1301,45,22.89198948199738,36.355690812098416
1.6523937722274915,1.6116196697234484,1301,45,22.89198948199738,36.355690812098416
1.6685058608963288,1.611603557314036,1301,45,22.89198948199738,36.355690812098416
1.6846177884006721,1.6115874450658056,1301,45,22.89198948199738,36.355690812098416
1.700729554748402,1.611571332978748,1301,45,22.89198948199738,36.355690812098416
1.7168411599469178,1.6115552210528548,1301,45,22.89198948199738,36.355690812098416
1.732952604003171,1.6115391092881184,1301,45,22.89198948199738,36.355690812098416
1.749063886923704,1.611522997684531,1301,45,22.89198948199738,36.355690812098416
1.76517500871468,1.6115068862420858,1301,45,22.89198948199738,36.355690812098416
1.7812859693819099,1.6114907749607765,1301,45,22.89198948199738,36.355690812098416
1.7973967689308827,1.6114746638405968,1301,45,22.89198948199738,36.355690812098416
1.813507407366789,1.6114585528815406,1301,45,22.89198948199738,36.355690812098416
1.8296178846945441,1.6114424420836027,1301,45,22.89198948199738,36.355690812098416
1.845728200918808,1.6114263314467778,1301,45,22.89198948199738,36.355690812098416
1.8618383560440068,1.6114102209710612,1301,45,22.89198948199738,36.355690812098416
1.8779483500743495,1.611394110656448,1301,45,22.89198948199738,36.355690812098416
1.8940581830138463,1.611378000502934,1301,45,22.89198948199738,36.355690812098416
1.9101678548663208,1.6113618905105145,1301,45,22.89198948199738,36.355690812098416
1.926277365635428,1.6113457806791862,1301,45,22.89198948199738,36.355690812098416
1.9423867153246643,1.6113296710089446,1301,45,22.89198948199738,36.355690812098416
1.958495903937382,1.6113135614997864,1301,45,22.89198948199738,36.355690812098416
1.9746049314767984,1.6112974521517083,1301,45,22.89198948199738,36.355690812098416
1.9907137979460081,1.6112813429647064,1301,45,22.89198948199738,36.355690812098416
2.0068225033479905,1.611265233938778,1301,45,22.89198948199738,36.355690812098416
2.0229310476856206,1.6112491250739196,1301,45,22.89198948199738,36.355690812098416
2.039039430961675,1.6112330163701287,1301,45,22.89198948199738,36.355690812098416
2.0551476531788415,1.611216907827402,1301,45,22.89198948199738,36.355690812098416
2.0712557143397246,1.6112007994457367,1301,45,22.89198948199738,36.355690812098416
2.087363614446852,1.6111846912251304,1301,45,22.89198948199738,36.355690812098416
2.1034713535026803,1.6111685831655804,1301,45,22.89198948199738,36.355690812098416
2.119578931509603,1.611152475267084,1301,45,22.89198948199738,36.355690812098416
2.1356863484699518,1.611136367529639,1301,45,22.89198948199738,36.355690812098416
2.1517936043860018,1.6111202599532428,1301,45,22.89198948199738,36.355690812098416
2.167900699259979,1.6111041525378933,1301,45,22.89198948199738,36.355690812098416
2.1840076330940614,1.611088045283588,1301,45,22.89198948199738,36.355690812098416
2.2001144058903828,1.6110719381903247,1301,45,22.89198948199738,36.355690812098416
2.2162210176510353,1.6110558312581014,1301,45,22.89198948199738,36.355690812098416
2.232327468378078,1.611039724486916,1301,45,22.89198948199738,36.355690812098416
2.2484337580735314,1.6110236178767658,1301,45,22.89198948199738,36.355690812098416
2.2645398867393864,1.6110075114276494,1301,45,22.89198948199738,36.355690812098416
2.2806458543776036,1.6109914051395646,1301,45,22.89198948199738,36.355690812098416
2.2967516609901173,1.6109752990125095,1301,45,22.89198948199738,36.355690812098416
2.3128573065788363,1.610959193046482,1301,45,22.89198948199738,36.355690812098416
2.328962791145646,1.61094308724148,1301,45,22.89198948199738,36.355690812098416
2.3450681146924133,1.6109269815975018,1301,45,22.89198948199738,36.355690812098416
2.3611732772209817,1.6109108761145456,1301,45,22.89198948199738,36.355690812098416
2.377278278733178,1.6108947707926093,1301,45,22.89198948199738,36.355690812098416
2.3933831192308133,1.6108786656316914,1301,45,22.89198948199738,36.355690812098416
2.409487798715682,1.6108625606317897,1301,45,22.89198948199738,36.355690812098416
2.425592317189565,1.6108464557929025,1301,45,22.89198948199738,36.355690812098416
2.4416966746542292,1.6108303511150284,1301,45,22.89198948199738,36.355690812098416
2.4578008711114303,1.610814246598165,1301,45,22.89198948199738,36.355690812098416
2.4739049065629124,1.6107981422423108,1301,45,22.89198948199738,36.355690812098416
2.4900087810104083,1.610782038047464,1301,45,22.89198948199738,36.355690812098416
2.5061124944556434,1.610765934013623,1301,45,22.89198948199738,36.355690812098416
2.522216046900332,1.6107498301407859,1301,45,22.89198948199738,36.355690812098416
2.5383194383461816,1.610733726428951,1301,45,22.89198948199738,36.355690812098416
2.5544226687948917,1.6107176228781166,1301,45,22.89198948199738,36.355690812098416
2.570525738248156,1.6107015194882812,1301,45,22.89198948199738,36.355690812098416
2.5866286467076587,1.6106854162594428,1301,45,22.89198948199738,36.355690812098416
2.6027313941750827,1.6106693131916,1301,45,22.89198948199738,36.355690812098416
2.618833980652101,1.6106532102847506,1301,45,22.89198948199738,36.355690812098416
2.6349364061403837,1.6106371075388937,1301,45,22.89198948199738,36.355690812098416
2.651038670641597,1.6106210049540268,1301,45,22.89198948199738,36.355690812098416
2.6671407741574003,1.6106049025301488,1301,45,22.89198948199738,36.355690812098416
2.683242716689452,1.610588800267258,1301,45,22.89198948199738,36.355690812098416
2.6993444982394053,1.6105726981653523,1301,45,22.89198948199738,36.355690812098416
2.7154461188089085,1.6105565962244306,1301,45,22.89198948199738,36.355690812098416
2.73154757839961,1.6105404944444908,1301,45,22.89198948199738,36.355690812098416
2.747648877013153,1.6105243928255315,1301,45,22.89198948199738,36.355690812098416
2.763750014651178,1.610508291367551,1301,45,22.89198948199738,36.355690812098416
2.7798509913153255,1.6104921900705476,1301,45,22.89198948199738,36.355690812098416
2.79595180700723,1.6104760889345198,1301,45,22.89198948199738,36.355690812098416
2.812052461728527,1.6104599879594657,1301,45,22.89198948199738,36.355690812098416
2.828152955480849,1.610443887145384,1301,45,22.89198948199738,36.355690812098416
2.844253288265826,1.6104277864922727,1301,45,22.89198948199738,36.355690812098416
2.860353460085087,1.6104116860001305,1301,45,22.89198948199738,36.355690812098416
2.87645347094026,1.6103955856689556,1301,45,22.89198948199738,36.355690812098416
2.8925533208329695,1.6103794854987463,1301,45,22.89198948199738,36.355690812098416
2.908653009764842,1.6103633854895012,1301,45,22.89198948199738,36.355690812098416
2.9247525377375005,1.6103472856412184,1301,45,22.89198948199738,36.355690812098416
2.9408519047525687,1.6103311859538967,1301,45,22.89198948199738,36.355690812098416
2.956951110811665,1.610315086427534,1301,45,22.89198948199738,36.355690812098416
2.9730501559164115,1.610298987062129,1301,45,22.89198948199738,36.355690812098416
2.9891490400684275,1.6102828878576796,1301,45,22.89198948199738,36.355690812098416
3.005247763269332,1.6102667888141848,1301,45,22.89198948199738,36.355690812098416
3.0213463255207427,1.6102506899316429,1301,45,22.89198948199738,36.355690812098416
3.0374447268242775,1.6102345912100517,1301,45,22.89198948199738,36.355690812098416
3.05354296718155,1.6102184926494103,1301,45,22.89198948199738,36.355690812098416
3.0696410465941812,1.6102023942497166,1301,45,22.89198948199738,36.355690812098416
3.0857389650637828,1.6101862960109692,1301,45,22.89198948199738,36.355690812098416
3.101836722591971,1.6101701979331664,1301,45,22.89198948199738,36.355690812098416
3.1179343191803603,1.6101541000163067,1301,45,22.89198948199738,36.355690812098416
3.1340317548305654,1.6101380022603882,1301,45,22.89198948199738,36.355690812098416
3.150129029544199,1.6101219046654096,1301,45,22.89198948199738,36.355690812098416
3.166226143322875,1.6101058072313692,1301,45,22.89198948199738,36.355690812098416
3.1823230961682056,1.6100897099582654,1301,45,22.89198948199738,36.355690812098416
3.198419888081804,1.6100736128460964,1301,45,22.89198948199738,36.355690812098416
3.2145165190652825,1.610057515894861,1301,45,22.89198948199738,36.355690812098416
3.230612989120253,1.610041419104557,1301,45,22.89198948199738,36.355690812098416
3.246709298248328,1.610025322475183,1301,45,22.89198948199738,36.355690812098416
3.262805446451117,1.6100092260067378,1301,45,22.89198948199738,36.355690812098416
3.2789014337302342,1.6099931296992194,1301,45,22.89198948199738,36.355690812098416
3.2949972600872885,1.6099770335526262,1301,45,22.89198948199738,36.355690812098416
3.3110929255238903,1.6099609375669568,1301,45,22.89198948199738,36.355690812098416
3.3271884300416534,1.6099448417422093,1301,45,22.89198948199738,36.355690812098416
3.3432837736421854,1.6099287460783824,1301,45,22.89198948199738,36.355690812098416
3.359378956327099,1.6099126505754742,1301,45,22.89198948199738,36.355690812098416
3.375473978098003,1.6098965552334832,1301,45,22.89198948199738,36.355690812098416
3.3915688389565073,1.609880460052408,1301,45,22.89198948199738,36.355690812098416
3.4076635389042234,1.6098643650322464,1301,45,22.89198948199738,36.355690812098416
3.4237580779427597,1.6098482701729975,1301,45,22.89198948199738,36.355690812098416
3.439852456073728,1.6098321754746592,1301,45,22.89198948199738,36.355690812098416
3.4559466732987363,1.6098160809372302,1301,45,22.89198948199738,36.355690812098416
3.472040729619394,1.6097999865607087,1301,45,22.89198948199738,36.355690812098416
3.488134625037312,1.6097838923450931,1301,45,22.89198948199738,36.355690812098416
3.5042283595540993,1.609767798290382,1301,45,22.89198948199738,36.355690812098416
3.520321933171365,1.6097517043965734,1301,45,22.89198948199738,36.355690812098416
3.5364153458907186,1.609735610663666,1301,45,22.89198948199738,36.355690812098416
3.552508597713769,1.6097195170916583,1301,45,22.89198948199738,36.355690812098416
3.5686016886421243,1.6097034236805483,1301,45,22.89198948199738,36.355690812098416
3.5846946186773967,1.6096873304303345,1301,45,22.89198948199738,36.355690812098416
3.600787387821193,1.6096712373410156,1301,45,22.89198948199738,36.355690812098416
3.616879996075122,1.6096551444125895,1301,45,22.89198948199738,36.355690812098416
3.6329724434407926,1.6096390516450552,1301,45,22.89198948199738,36.355690812098416
3.649064729919816,1.6096229590384104,1301,45,22.89198948199738,36.355690812098416
3.665156855513798,1.609606866592654,1301,45,22.89198948199738,36.355690812098416
3.6812488202243494,1.6095907743077842,1301,45,22.89198948199738,36.355690812098416
3.6973406240530786,1.6095746821837995,1301,45,22.89198948199738,36.355690812098416
3.7134322670015933,1.6095585902206981,1301,45,22.89198948199738,36.355690812098416
3.7295237490715025,1.6095424984184787,1301,45,22.89198948199738,36.355690812098416
3.745615070264416,1.6095264067771393,1301,45,22.89198948199738,36.355690812098416
3.7617062305819413,1.6095103152966788,1301,45,22.89198948199738,36.355690812098416
3.777797230025688,1.6094942239770949,1301,45,22.89198948199738,36.355690812098416
3.793888068597264,1.6094781328183865,1301,45,22.89198948199738,36.355690812098416
3.8099787462982766,1.6094620418205519,1301,45,22.89198948199738,36.355690812098416
3.826069263130337,1.6094459509835894,1301,45,22.89198948199738,36.355690812098416
3.8421596190950527,1.6094298603074975,1301,45,22.89198948199738,36.355690812098416
