Vout,Iout,Irradiance,Temperature,MaxVoltage,MaxPower
0.007915573888712609,1.58313,1401,-10,19.356672806904122,30.27005086731213
0.023746575299684828,1.58313,1401,-10,19.356672806904122,30.27005086731213
0.039577254870369144,1.5831219261131113,1401,-10,19.356672806904122,30.27005086731213
0.05540755510410472,1.5831060951117002,1401,-10,19.356672806904122,30.27005086731213
0.07123745720998528,1.583090264432937,1401,-10,19.356672806904122,30.27005086731213
0.08706697964665375,1.5830744341342864,1401,-10,19.356672806904122,30.27005086731213
0.10289613945316384,1.5830586042337635,1401,-10,19.356672806904122,30.27005086731213
0.1187249523578548,1.5830427747129099,1401,-10,19.356672806904122,30.27005086731213
0.13455343287902458,1.5830269455546864,1401,-10,19.356672806904122,30.27005086731213
0.1503815944180321,1.5830111167433647,1401,-10,19.356672806904122,30.27005086731213
0.16620944934523627,1.5829952882644263,1401,-10,19.356672806904122,30.27005086731213
0.1820370090793231,1.5829794601044702,1401,-10,19.356672806904122,30.27005086731213
0.19786428416052848,1.5829636322511258,1401,-10,19.356672806904122,30.27005086731213
0.21369128431822776,1.5829478046929746,1401,-10,19.356672806904122,30.27005086731213
0.22951801853332454,1.582931977419476,1401,-10,19.356672806904122,30.27005086731213
0.24534449509583928,1.5829161504209013,1401,-10,19.356672806904122,30.27005086731213
0.261170721658067,1.5829003236882688,1401,-10,19.356672806904122,30.27005086731213
0.2769967052836447,1.582884497213289,1401,-10,19.356672806904122,30.27005086731213
0.29282245249284367,1.5828686709883095,1401,-10,19.356672806904122,30.27005086731213
0.3086479693043774,1.5828528450062667,1401,-10,19.356672806904122,30.27005086731213
0.3244732612739913,1.58283701926064,1401,-10,19.356672806904122,30.27005086731213
0.340298333530085,1.582821193745411,1401,-10,19.356672806904122,30.27005086731213
0.35612319080659244,1.582805368455024,1401,-10,19.356672806904122,30.27005086731213
0.3719478374733333,1.5827895433843504,1401,-10,19.356672806904122,30.27005086731213
0.38777227756402766,1.5827737185286566,1401,-10,19.356672806904122,30.27005086731213
0.40359651480215714,1.5827578938835722,1401,-10,19.356672806904122,30.27005086731213
0.41942055262483385,1.582742069445064,1401,-10,19.356672806904122,30.27005086731213
0.43524439420483524,1.5827262452094084,1401,-10,19.356672806904122,30.27005086731213
0.4510680424709418,1.5827104211731682,1401,-10,19.356672806904122,30.27005086731213
0.46689150012671066,1.5826945973331705,1401,-10,19.356672806904122,30.27005086731213
0.4827147696678049,1.582678773686487,1401,-10,19.356672806904122,30.27005086731213
0.49853785339798884,1.5826629502304135,1401,-10,19.356672806904122,30.27005086731213
0.5143607534438932,1.5826471269624547,1401,-10,19.356672806904122,30.27005086731213
0.5301834717686442,1.5826313038803068,1401,-10,19.356672806904122,30.27005086731213
0.5460060101844437,1.5826154809818433,1401,-10,19.356672806904122,30.27005086731213
0.5618283703641818,1.582599658265101,1401,-10,19.356672806904122,30.27005086731213
0.5776505538521548,1.5825838357282673,1401,-10,19.356672806904122,30.27005086731213
0.5934725620739606,1.58256801336967,1401,-10,19.356672806904122,30.27005086731213
0.6092943963456309,1.5825521911877642,1401,-10,19.356672806904122,30.27005086731213
0.6251160578820616,1.5825363691811247,1401,-10,19.356672806904122,30.27005086731213
0.6409375478047943,1.5825205473484352,1401,-10,19.356672806904122,30.27005086731213
0.656758867149199,1.582504725688481,1401,-10,19.356672806904122,30.27005086731213
0.6725800168711041,1.5824889042001404,1401,-10,19.356672806904122,30.27005086731213
0.6884009978529173,1.582473082882378,1401,-10,19.356672806904122,30.27005086731213
0.7042218109092735,1.5824572617342385,1401,-10,19.356672806904122,30.27005086731213
0.7200424567922507,1.5824414407548386,1401,-10,19.356672806904122,30.27005086731213
0.7358629361961816,1.5824256199433644,1401,-10,19.356672806904122,30.27005086731213
0.751683249762098,1.5824097992990636,1401,-10,19.356672806904122,30.27005086731213
0.7675033980818315,1.5823939788212418,1401,-10,19.356672806904122,30.27005086731213
0.7833233817017989,1.582378158509258,1401,-10,19.356672806904122,30.27005086731213
0.7991432011264961,1.5823623383625203,1401,-10,19.356672806904122,30.27005086731213
0.8149628568217242,1.5823465183804823,1401,-10,19.356672806904122,30.27005086731213
0.8307823492175663,1.5823306985626395,1401,-10,19.356672806904122,30.27005086731213
0.8466016787111361,1.5823148789085264,1401,-10,19.356672806904122,30.27005086731213
0.8624208456691145,1.5822990594177124,1401,-10,19.356672806904122,30.27005086731213
0.8782398504300903,1.5822832400898008,1401,-10,19.356672806904122,30.27005086731213
0.8940586933067234,1.582267420924425,1401,-10,19.356672806904122,30.27005086731213
0.9098773745877383,1.5822516019212458,1401,-10,19.356672806904122,30.27005086731213
0.9256958945397663,1.5822357830799512,1401,-10,19.356672806904122,30.27005086731213
0.941514253409045,1.582219964400252,1401,-10,19.356672806904122,30.27005086731213
0.957332451422988,1.5822041458818819,1401,-10,19.356672806904122,30.27005086731213
0.9731504887916331,1.5821883275245945,1401,-10,19.356672806904122,30.27005086731213
0.9889683657089792,1.5821725093281624,1401,-10,19.356672806904122,30.27005086731213
1.0047860823542194,1.5821566912923755,1401,-10,19.356672806904122,30.27005086731213
1.0206036388928823,1.58214087341704,1401,-10,19.356672806904122,30.27005086731213
1.0364210354778811,1.5821250557019766,1401,-10,19.356672806904122,30.27005086731213
1.052238272250486,1.5821092381470196,1401,-10,19.356672806904122,30.27005086731213
1.0680553493412182,1.5820934207520165,1401,-10,19.356672806904122,30.27005086731213
1.083872266870679,1.5820776035168256,1401,-10,19.356672806904122,30.27005086731213
1.0996890249503124,1.5820617864413167,1401,-10,19.356672806904122,30.27005086731213
1.1155056236831076,1.5820459695253688,1401,-10,19.356672806904122,30.27005086731213
1.131322063164253,1.582030152768871,1401,-10,19.356672806904122,30.27005086731213
1.1471383434817346,1.5820143361717198,1401,-10,19.356672806904122,30.27005086731213
1.1629544647168888,1.5819985197338204,1401,-10,19.356672806904122,30.27005086731213
1.178770426944917,1.5819827034550846,1401,-10,19.356672806904122,30.27005086731213
1.1945862302353552,1.5819668873354311,1401,-10,19.356672806904122,30.27005086731213
1.2104018746525111,1.5819510713747846,1401,-10,19.356672806904122,30.27005086731213
1.2262173602558666,1.581935255573076,1401,-10,19.356672806904122,30.27005086731213
1.2420326871004472,1.5819194399302403,1401,-10,19.356672806904122,30.27005086731213
1.257847855237168,1.5819036244462186,1401,-10,19.356672806904122,30.27005086731213
1.2736628647131465,1.5818878091209554,1401,-10,19.356672806904122,30.27005086731213
1.2894777155719983,1.5818719939544004,1401,-10,19.356672806904122,30.27005086731213
1.3052924078541033,1.5818561789465058,1401,-10,19.356672806904122,30.27005086731213
1.3211069415968564,1.5818403640972285,1401,-10,19.356672806904122,30.27005086731213
1.336921316834898,1.581824549406528,1401,-10,19.356672806904122,30.27005086731213
1.3527355336003233,1.5818087348743666,1401,-10,19.356672806904122,30.27005086731213
1.3685495919228805,1.5817929205007102,1401,-10,19.356672806904122,30.27005086731213
1.3843634918301506,1.5817771062855261,1401,-10,19.356672806904122,30.27005086731213
1.4001772333477132,1.581761292228785,1401,-10,19.356672806904122,30.27005086731213
1.415990816499303,1.5817454783304592,1401,-10,19.356672806904122,30.27005086731213
1.4318042413069483,1.581729664590523,1401,-10,19.356672806904122,30.27005086731213
1.4476175077911047,1.5817138510089528,1401,-10,19.356672806904122,30.27005086731213
1.4634306159707766,1.5816980375857266,1401,-10,19.356672806904122,30.27005086731213
1.4792435658636265,1.5816822243208237,1401,-10,19.356672806904122,30.27005086731213
1.4950563574860798,1.5816664112142254,1401,-10,19.356672806904122,30.27005086731213
1.51086899085342,1.581650598265914,1401,-10,19.356672806904122,30.27005086731213
1.526681465979876,1.5816347854758728,1401,-10,19.356672806904122,30.27005086731213
1.5424937828787035,1.5816189728440866,1401,-10,19.356672806904122,30.27005086731213
1.5583059415622604,1.5816031603705416,1401,-10,19.356672806904122,30.27005086731213
1.5741179420420741,1.5815873480552238,1401,-10,19.356672806904122,30.27005086731213
1.5899297843289084,1.5815715358981217,1401,-10,19.356672806904122,30.27005086731213
1.605741468432819,1.581555723899223,1401,-10,19.356672806904122,30.27005086731213
1.62155299436321,1.5815399120585174,1401,-10,19.356672806904122,30.27005086731213
1.6373643621288843,1.5815241003759948,1401,-10,19.356672806904122,30.27005086731213
1.6531755717380874,1.5815082888516454,1401,-10,19.356672806904122,30.27005086731213
1.6689866231985535,1.581492477485461,1401,-10,19.356672806904122,30.27005086731213
1.6847975165175424,1.5814766662774329,1401,-10,19.356672806904122,30.27005086731213
1.7006082517018777,1.5814608552275535,1401,-10,19.356672806904122,30.27005086731213
1.7164188287579785,1.5814450443358157,1401,-10,19.356672806904122,30.27005086731213
1.732229247691892,1.5814292336022124,1401,-10,19.356672806904122,30.27005086731213
1.7480395085093225,1.5814134230267376,1401,-10,19.356672806904122,30.27005086731213
1.7638496112156563,1.5813976126093847,1401,-10,19.356672806904122,30.27005086731213
1.7796595558159864,1.5813818023501482,1401,-10,19.356672806904122,30.27005086731213
1.7954693423151364,1.581365992249023,1401,-10,19.356672806904122,30.27005086731213
1.8112789707176797,1.5813501823060037,1401,-10,19.356672806904122,30.27005086731213
1.8270884410279595,1.5813343725210856,1401,-10,19.356672806904122,30.27005086731213
1.8428977532501067,1.581318562894264,1401,-10,19.356672806904122,30.27005086731213
1.8587069073880562,1.5813027534255346,1401,-10,19.356672806904122,30.27005086731213
1.8745159034455603,1.5812869441148936,1401,-10,19.356672806904122,30.27005086731213
1.8903247414262054,1.5812711349623365,1401,-10,19.356672806904122,30.27005086731213
1.906133421333424,1.58125532596786,1401,-10,19.356672806904122,30.27005086731213
1.9219419431705045,1.5812395171314602,1401,-10,19.356672806904122,30.27005086731213
1.937750306940605,1.581223708453134,1401,-10,19.356672806904122,30.27005086731213
1.9535585126467618,1.5812078999328778,1401,-10,19.356672806904122,30.27005086731213
1.9693665602918986,1.5811920915706885,1401,-10,19.356672806904122,30.27005086731213
1.9851744498788364,1.5811762833665632,1401,-10,19.356672806904122,30.27005086731213
2.000982181410301,1.5811604753204989,1401,-10,19.356672806904122,30.27005086731213
2.01678975488893,1.5811446674324927,1401,-10,19.356672806904122,30.27005086731213
2.032597170317279,1.5811288597025421,1401,-10,19.356672806904122,30.27005086731213
2.0484044276978275,1.5811130521306442,1401,-10,19.356672806904122,30.27005086731213
2.064211527032988,1.5810972447167966,1401,-10,19.356672806904122,30.27005086731213
2.080018468325108,1.581081437460997,1401,-10,19.356672806904122,30.27005086731213
2.0958252515764757,1.5810656303632424,1401,-10,19.356672806904122,30.27005086731213
2.111631876789325,1.581049823423531,1401,-10,19.356672806904122,30.27005086731213
2.127438343965839,1.5810340166418604,1401,-10,19.356672806904122,30.27005086731213
2.1432446531081553,1.5810182100182282,1401,-10,19.356672806904122,30.27005086731213
2.1590508042183685,1.5810024035526324,1401,-10,19.356672806904122,30.27005086731213
2.1748567972985327,1.5809865972450707,1401,-10,19.356672806904122,30.27005086731213
2.1906626323506653,1.5809707910955413,1401,-10,19.356672806904122,30.27005086731213
2.2064683093767514,1.5809549851040416,1401,-10,19.356672806904122,30.27005086731213
2.2222738283787438,1.5809391792705703,1401,-10,19.356672806904122,30.27005086731213
2.2380791893585674,1.5809233735951247,1401,-10,19.356672806904122,30.27005086731213
2.25388439231812,1.5809075680777032,1401,-10,19.356672806904122,30.27005086731213
2.2696894372592755,1.580891762718304,1401,-10,19.356672806904122,30.27005086731213
2.285494324183883,1.580875957516925,1401,-10,19.356672806904122,30.27005086731213
2.3012990530937745,1.5808601524735644,1401,-10,19.356672806904122,30.27005086731213
2.31710362399076,1.5808443475882203,1401,-10,19.356672806904122,30.27005086731213
2.3329080368766317,1.5808285428608908,1401,-10,19.356672806904122,30.27005086731213
2.3487122917531664,1.5808127382915744,1401,-10,19.356672806904122,30.27005086731213
2.364516388622126,1.580796933880269,1401,-10,19.356672806904122,30.27005086731213
2.380320327485257,1.580781129626973,1401,-10,19.356672806904122,30.27005086731213
2.3961241083442943,1.5807653255316845,1401,-10,19.356672806904122,30.27005086731213
2.4119277312009615,1.5807495215944016,1401,-10,19.356672806904122,30.27005086731213
2.427731196056968,1.580733717815123,1401,-10,19.356672806904122,30.27005086731213
2.443534502914016,1.5807179141938468,1401,-10,19.356672806904122,30.27005086731213
2.4593376517737977,1.5807021107305712,1401,-10,19.356672806904122,30.27005086731213
2.4751406426379967,1.5806863074252946,1401,-10,19.356672806904122,30.27005086731213
2.4909434755082875,1.5806705042780151,1401,-10,19.356672806904122,30.27005086731213
2.506746150386338,1.580654701288731,1401,-10,19.356672806904122,30.27005086731213
2.52254866727381,1.5806388984574413,1401,-10,19.356672806904122,30.27005086731213
2.5383510261723585,1.5806230957841434,1401,-10,19.356672806904122,30.27005086731213
2.554153227083631,1.5806072932688362,1401,-10,19.356672806904122,30.27005086731213
2.5699552700092725,1.580591490911518,1401,-10,19.356672806904122,30.27005086731213
2.5857571549509215,1.580575688712187,1401,-10,19.356672806904122,30.27005086731213
2.601558881910211,1.5805598866708415,1401,-10,19.356672806904122,30.27005086731213
2.617360450888773,1.58054408478748,1401,-10,19.356672806904122,30.27005086731213
2.6331618618882313,1.580528283062101,1401,-10,19.356672806904122,30.27005086731213
2.64896311491021,1.5805124814947027,1401,-10,19.356672806904122,30.27005086731213
2.664764209956327,1.5804966800852833,1401,-10,19.356672806904122,30.27005086731213
2.6805651470281986,1.5804808788338416,1401,-10,19.356672806904122,30.27005086731213
2.6963659261274384,1.5804650777403757,1401,-10,19.356672806904122,30.27005086731213
2.712166547255657,1.580449276804884,1401,-10,19.356672806904122,30.27005086731213
2.727967010414462,1.5804334760273646,1401,-10,19.356672806904122,30.27005086731213
2.74376731560546,1.5804176754078165,1401,-10,19.356672806904122,30.27005086731213
2.7595674628302533,1.5804018749462379,1401,-10,19.356672806904122,30.27005086731213
2.775367452090446,1.5803860746426268,1401,-10,19.356672806904122,30.27005086731213
2.7911672833876366,1.580370274496982,1401,-10,19.356672806904122,30.27005086731213
2.806966956723425,1.580354474509302,1401,-10,19.356672806904122,30.27005086731213
2.8227664720994072,1.5803386746795849,1401,-10,19.356672806904122,30.27005086731213
2.838565829517179,1.580322875007829,1401,-10,19.356672806904122,30.27005086731213
2.8543650289783353,1.5803070754940332,1401,-10,19.356672806904122,30.27005086731213
2.8701640704844684,1.5802912761381953,1401,-10,19.356672806904122,30.27005086731213
2.885962954037172,1.580275476940314,1401,-10,19.356672806904122,30.27005086731213
2.901761679638035,1.580259677900388,1401,-10,19.356672806904122,30.27005086731213
2.91756024728865,1.580243879018415,1401,-10,19.356672806904122,30.27005086731213
2.9333586569906043,1.5802280802943942,1401,-10,19.356672806904122,30.27005086731213
2.949156908745488,1.5802122817283233,1401,-10,19.356672806904122,30.27005086731213
2.9649550025548876,1.5801964833202014,1401,-10,19.356672806904122,30.27005086731213
2.9807529384203906,1.5801806850700262,1401,-10,19.356672806904122,30.27005086731213
2.996550716343583,1.5801648869777967,1401,-10,19.356672806904122,30.27005086731213
3.012348336326052,1.580149089043511,1401,-10,19.356672806904122,30.27005086731213
3.0281457983693816,1.5801332912671677,1401,-10,19.356672806904122,30.27005086731213
3.0439431024751573,1.580117493648765,1401,-10,19.356672806904122,30.27005086731213
3.0597402486449634,1.5801016961883014,1401,-10,19.356672806904122,30.27005086731213
3.0755372368803835,1.5800858988857753,1401,-10,19.356672806904122,30.27005086731213
3.091334067183001,1.5800701017411853,1401,-10,19.356672806904122,30.27005086731213
3.1071307395543992,1.5800543047545297,1401,-10,19.356672806904122,30.27005086731213
3.1229272539961612,1.5800385079258068,1401,-10,19.356672806904122,30.27005086731213
3.13872361050987,1.5800227112550151,1401,-10,19.356672806904122,30.27005086731213
3.154519809097107,1.580006914742153,1401,-10,19.356672806904122,30.27005086731213
3.1703158497594544,1.5799911183872188,1401,-10,19.356672806904122,30.27005086731213
3.1861117324984938,1.5799753221902113,1401,-10,19.356672806904122,30.27005086731213
3.201907457315807,1.5799595261511286,1401,-10,19.356672806904122,30.27005086731213
3.2177030242129754,1.5799437302699693,1401,-10,19.356672806904122,30.27005086731213
3.2334984331915786,1.5799279345467314,1401,-10,19.356672806904122,30.27005086731213
3.2492936842531996,1.579912138981414,1401,-10,19.356672806904122,30.27005086731213
3.265088777399418,1.579896343574015,1401,-10,19.356672806904122,30.27005086731213
3.280883712631814,1.5798805483245328,1401,-10,19.356672806904122,30.27005086731213
3.2966784899519697,1.5798647532329662,1401,-10,19.356672806904122,30.27005086731213
3.3124731093614628,1.5798489582993134,1401,-10,19.356672806904122,30.27005086731213
3.328267570861875,1.5798331635235727,1401,-10,19.356672806904122,30.27005086731213
3.344061874454785,1.5798173689057426,1401,-10,19.356672806904122,30.27005086731213
3.3598560201417746,1.5798015744458216,1401,-10,19.356672806904122,30.27005086731213
3.3756500079244223,1.5797857801438082,1401,-10,19.356672806904122,30.27005086731213
3.3914438378043084,1.5797699859997008,1401,-10,19.356672806904122,30.27005086731213
3.4072375097830125,1.5797541920134974,1401,-10,19.356672806904122,30.27005086731213
3.4230310238621127,1.5797383981851971,1401,-10,19.356672806904122,30.27005086731213
3.43882438004319,1.5797226045147976,1401,-10,19.356672806904122,30.27005086731213
3.4546175783278223,1.579706811002298,1401,-10,19.356672806904122,30.27005086731213
3.4704106187175907,1.5796910176476964,1401,-10,19.356672806904122,30.27005086731213
3.4862035012140726,1.579675224450991,1401,-10,19.356672806904122,30.27005086731213
3.5019962258188477,1.5796594314121806,1401,-10,19.356672806904122,30.27005086731213
3.517788792533496,1.5796436385312633,1401,-10,19.356672806904122,30.27005086731213
3.5335812013595964,1.579627845808238,1401,-10,19.356672806904122,30.27005086731213
3.5493734522987266,1.5796120532431026,1401,-10,19.356672806904122,30.27005086731213
3.565165545352466,1.5795962608358558,1401,-10,19.356672806904122,30.27005086731213
3.5809574805223945,1.5795804685864958,1401,-10,19.356672806904122,30.27005086731213
3.5967492578100893,1.5795646764950213,1401,-10,19.356672806904122,30.27005086731213
3.6125408772171306,1.5795488845614307,1401,-10,19.356672806904122,30.27005086731213
3.628332338745096,1.5795330927857223,1401,-10,19.356672806904122,30.27005086731213
3.644123642395565,1.5795173011678942,1401,-10,19.356672806904122,30.27005086731213
3.659914788170117,1.5795015097079455,1401,-10,19.356672806904122,30.27005086731213
3.6757057760703282,1.5794857184058742,1401,-10,19.356672806904122,30.27005086731213
3.691496606097779,1.5794699272616788,1401,-10,19.356672806904122,30.27005086731213
3.7072872782540474,1.5794541362753578,1401,-10,19.356672806904122,30.27005086731213
3.723077792540712,1.5794383454469094,1401,-10,19.356672806904122,30.27005086731213
