Vout,Iout,Irradiance,Temperature,MaxVoltage,MaxPower
0.004030711243161123,0.8061499999999999,701,0,20.084121031835025,15.787756352739402
0.012092059197817567,0.8061499999999999,701,0,20.084121031835025,15.787756352739402
0.020153243267292068,0.8061458886737568,701,0,20.084121031835025,15.787756352739402
0.028214234173551133,0.8061378273258021,701,0,20.084121031835025,15.787756352739402
0.0362750223480255,0.8061297661421437,701,0,20.084121031835025,15.787756352739402
0.04433561719009171,0.8061217051520436,701,0,20.084121031835025,15.787756352739402
0.05239602737625337,0.8061136443646753,701,0,20.084121031835025,15.787756352739402
0.06045626091558155,0.8061055837706393,701,0,20.084121031835025,15.787756352739402
0.06851632520097882,0.8060975233612593,701,0,20.084121031835025,15.787756352739402
0.0765762270565882,0.8060894631285259,701,0,20.084121031835025,15.787756352739402
0.08463597278155438,0.8060814030650466,701,0,20.084121031835025,15.787756352739402
0.09269556819041791,0.806073343163997,701,0,20.084121031835025,15.787756352739402
0.10075501865040143,0.806065283419078,701,0,20.084121031835025,15.787756352739402
0.10881432911582704,0.8060572238244752,701,0,20.084121031835025,15.787756352739402
0.11687350415988552,0.8060491643748212,701,0,20.084121031835025,15.787756352739402
0.124932548003961,0.8060411050651617,701,0,20.084121031835025,15.787756352739402
0.1329914645446998,0.8060330458909236,701,0,20.084121031835025,15.787756352739402
0.14105025737899607,0.8060249868478855,701,0,20.084121031835025,15.787756352739402
0.14910892982705518,0.8060169279321506,701,0,20.084121031835025,15.787756352739402
0.15716748495368274,0.8060088691401223,701,0,20.084121031835025,15.787756352739402
0.16522592558793528,0.80600081046848,701,0,20.084121031835025,15.787756352739402
0.17328425434125935,0.8059927519141593,701,0,20.084121031835025,15.787756352739402
0.18134247362423453,0.805984693474331,701,0,20.084121031835025,15.787756352739402
0.1894005856620287,0.8059766351463835,701,0,20.084121031835025,15.787756352739402
0.1974585925086638,0.8059685769279064,701,0,20.084121031835025,15.787756352739402
0.20551649606018393,0.8059605188166744,701,0,20.084121031835025,15.787756352739402
0.21357429806681053,0.8059524608106335,701,0,20.084121031835025,15.787756352739402
0.22163200014416243,0.8059444029078878,701,0,20.084121031835025,15.787756352739402
0.229689603783612,0.805936345106687,701,0,20.084121031835025,15.787756352739402
0.23774711036184507,0.8059282874054154,701,0,20.084121031835025,15.787756352739402
0.24580452114968504,0.8059202298025818,701,0,20.084121031835025,15.787756352739402
0.25386183732023815,0.8059121722968093,701,0,20.084121031835025,15.787756352739402
0.2619190599564119,0.8059041148868272,701,0,20.084121031835025,15.787756352739402
0.2699761900578553,0.8058960575714624,701,0,20.084121031835025,15.787756352739402
0.27803322854736456,0.805888000349632,701,0,20.084121031835025,15.787756352739402
0.28609017627679656,0.8058799432203363,701,0,20.084121031835025,15.787756352739402
0.29414703403252696,0.8058718861826525,701,0,20.084121031835025,15.787756352739402
0.30220380254048823,0.8058638292357289,701,0,20.084121031835025,15.787756352739402
0.31026048247082055,0.8058557723787788,701,0,20.084121031835025,15.787756352739402
0.3183170744421645,0.8058477156110765,701,0,20.084121031835025,15.787756352739402
0.32637357902562325,0.8058396589319519,701,0,20.084121031835025,15.787756352739402
0.33442999674842033,0.8058316023407862,701,0,20.084121031835025,15.787756352739402
0.342486328097276,0.8058235458370084,701,0,20.084121031835025,15.787756352739402
0.35054257352152335,0.8058154894200913,701,0,20.084121031835025,15.787756352739402
0.358598733435985,0.805807433089548,701,0,20.084121031835025,15.787756352739402
0.3666548082236284,0.8057993768449294,701,0,20.084121031835025,15.787756352739402
0.3747107982380169,0.8057913206858206,701,0,20.084121031835025,15.787756352739402
0.38276670380557204,0.8057832646118386,701,0,20.084121031835025,15.787756352739402
0.3908225252276619,0.8057752086226299,701,0,20.084121031835025,15.787756352739402
0.3988782627825289,0.8057671527178679,701,0,20.084121031835025,15.787756352739402
0.40693391672706897,0.8057590968972514,701,0,20.084121031835025,15.787756352739402
0.4149894872984738,0.8057510411605021,701,0,20.084121031835025,15.787756352739402
0.42304497471574726,0.8057429855073631,701,0,20.084121031835025,15.787756352739402
0.43110037918110466,0.8057349299375973,701,0,20.084121031835025,15.787756352739402
0.4391557008812646,0.8057268744509857,701,0,20.084121031835025,15.787756352739402
0.447210939988641,0.8057188190473258,701,0,20.084121031835025,15.787756352739402
0.4552660966624441,0.8057107637264312,701,0,20.084121031835025,15.787756352739402
0.46332117104969606,0.8057027084881294,701,0,20.084121031835025,15.787756352739402
0.47137616328616894,0.8056946533322611,701,0,20.084121031835025,15.787756352739402
0.47943107349725017,0.8056865982586794,701,0,20.084121031835025,15.787756352739402
0.4874859017987417,0.8056785432672484,701,0,20.084121031835025,15.787756352739402
0.4955406482975973,0.8056704883578428,701,0,20.084121031835025,15.787756352739402
0.5035953130926037,0.8056624335303468,701,0,20.084121031835025,15.787756352739402
0.5116498962750085,0.8056543787846535,701,0,20.084121031835025,15.787756352739402
0.5197043979291007,0.805646324120664,701,0,20.084121031835025,15.787756352739402
0.5277588181327459,0.805638269538287,701,0,20.084121031835025,15.787756352739402
0.5358131569578805,0.8056302150374384,701,0,20.084121031835025,15.787756352739402
0.5438674144709676,0.8056221606180403,701,0,20.084121031835025,15.787756352739402
0.5519215907334193,0.8056141062800205,701,0,20.084121031835025,15.787756352739402
0.5599756858019836,0.8056060520233129,701,0,20.084121031835025,15.787756352739402
0.5680296997291046,0.8055979978478559,701,0,20.084121031835025,15.787756352739402
0.576083632563253,0.8055899437535927,701,0,20.084121031835025,15.787756352739402
0.5841374843492325,0.8055818897404711,701,0,20.084121031835025,15.787756352739402
0.5921912551284607,0.8055738358084423,701,0,20.084121031835025,15.787756352739402
0.6002449449392311,0.8055657819574618,701,0,20.084121031835025,15.787756352739402
0.6082985538169522,0.8055577281874878,701,0,20.084121031835025,15.787756352739402
0.6163520817943705,0.8055496744984825,701,0,20.084121031835025,15.787756352739402
0.6244055289017748,0.8055416208904101,701,0,20.084121031835025,15.787756352739402
0.632458895167185,0.8055335673632381,701,0,20.084121031835025,15.787756352739402
0.6405121806165273,0.805525513916936,701,0,20.084121031835025,15.787756352739402
0.6485653852737951,0.805517460551476,701,0,20.084121031835025,15.787756352739402
0.6566185091611975,0.805509407266832,701,0,20.084121031835025,15.787756352739402
0.6646715522992965,0.8055013540629801,701,0,20.084121031835025,15.787756352739402
0.6727245147071348,0.805493300939898,701,0,20.084121031835025,15.787756352739402
0.6807773964023507,0.8054852478975653,701,0,20.084121031835025,15.787756352739402
0.6888301974012881,0.8054771949359627,701,0,20.084121031835025,15.787756352739402
0.6968829177190947,0.8054691420550728,701,0,20.084121031835025,15.787756352739402
0.7049355573698155,0.8054610892548791,701,0,20.084121031835025,15.787756352739402
0.7129881163664763,0.8054530365353666,701,0,20.084121031835025,15.787756352739402
0.7210405947211621,0.8054449838965212,701,0,20.084121031835025,15.787756352739402
0.7290929924450907,0.8054369313383298,701,0,20.084121031835025,15.787756352739402
0.7371453095486787,0.8054288788607804,701,0,20.084121031835025,15.787756352739402
0.7451975460416025,0.8054208264638617,701,0,20.084121031835025,15.787756352739402
0.7532497019328565,0.8054127741475634,701,0,20.084121031835025,15.787756352739402
0.7613017772308047,0.8054047219118756,701,0,20.084121031835025,15.787756352739402
0.7693537719432298,0.8053966697567897,701,0,20.084121031835025,15.787756352739402
0.777405686077377,0.805388617682297,701,0,20.084121031835025,15.787756352739402
0.7854575196399968,0.8053805656883897,701,0,20.084121031835025,15.787756352739402
0.7935092726373812,0.8053725137750608,701,0,20.084121031835025,15.787756352739402
0.8015609450754009,0.8053644619423034,701,0,20.084121031835025,15.787756352739402
0.8096125369595363,0.8053564101901112,701,0,20.084121031835025,15.787756352739402
0.8176640482949084,0.8053483585184783,701,0,20.084121031835025,15.787756352739402
0.8257154790863056,0.8053403069273993,701,0,20.084121031835025,15.787756352739402
0.8337668293382103,0.8053322554168691,701,0,20.084121031835025,15.787756352739402
0.8418180990548219,0.8053242039868829,701,0,20.084121031835025,15.787756352739402
0.849869288240078,0.8053161526374362,701,0,20.084121031835025,15.787756352739402
0.857920396897676,0.8053081013685247,701,0,20.084121031835025,15.787756352739402
0.86597142503109,0.8053000501801446,701,0,20.084121031835025,15.787756352739402
0.8740223726435892,0.8052919990722921,701,0,20.084121031835025,15.787756352739402
0.8820732397382526,0.8052839480449638,701,0,20.084121031835025,15.787756352739402
0.8901240263179848,0.8052758970981564,701,0,20.084121031835025,15.787756352739402
0.8981747323855287,0.8052678462318669,701,0,20.084121031835025,15.787756352739402
0.9062253579434779,0.8052597954460923,701,0,20.084121031835025,15.787756352739402
0.9142759029942884,0.8052517447408297,701,0,20.084121031835025,15.787756352739402
0.9223263675402894,0.8052436941160769,701,0,20.084121031835025,15.787756352739402
0.9303767515836923,0.8052356435718312,701,0,20.084121031835025,15.787756352739402
0.9384270551266003,0.8052275931080902,701,0,20.084121031835025,15.787756352739402
0.946477278171017,0.8052195427248519,701,0,20.084121031835025,15.787756352739402
0.9545274207188541,0.805211492422114,701,0,20.084121031835025,15.787756352739402
0.9625774827719371,0.8052034421998746,701,0,20.084121031835025,15.787756352739402
0.9706274643320137,0.8051953920581318,701,0,20.084121031835025,15.787756352739402
0.9786773654007589,0.8051873419968838,701,0,20.084121031835025,15.787756352739402
0.9867271859797803,0.8051792920161287,701,0,20.084121031835025,15.787756352739402
0.9947769260706246,0.805171242115865,701,0,20.084121031835025,15.787756352739402
1.0028265856747804,0.8051631922960909,701,0,20.084121031835025,15.787756352739402
1.0108761647936841,0.8051551425568051,701,0,20.084121031835025,15.787756352739402
1.0189256634287236,0.8051470928980059,701,0,20.084121031835025,15.787756352739402
1.0269750815812422,0.805139043319692,701,0,20.084121031835025,15.787756352739402
1.0350244192525409,0.8051309938218619,701,0,20.084121031835025,15.787756352739402
1.0430736764438826,0.8051229444045144,701,0,20.084121031835025,15.787756352739402
1.0511228531564958,0.805114895067648,701,0,20.084121031835025,15.787756352739402
1.0591719493915763,0.8051068458112616,701,0,20.084121031835025,15.787756352739402
1.0672209651502882,0.8050987966353539,701,0,20.084121031835025,15.787756352739402
1.07526990043377,0.8050907475399237,701,0,20.084121031835025,15.787756352739402
1.0833187552431331,0.8050826985249699,701,0,20.084121031835025,15.787756352739402
1.0913675295794663,0.8050746495904914,701,0,20.084121031835025,15.787756352739402
1.099416223443835,0.805066600736487,701,0,20.084121031835025,15.787756352739402
1.1074648368372857,0.8050585519629555,701,0,20.084121031835025,15.787756352739402
1.1155133697608466,0.805050503269896,701,0,20.084121031835025,15.787756352739402
1.1235618222155277,0.8050424546573074,701,0,20.084121031835025,15.787756352739402
1.1316101942023236,0.8050344061251887,701,0,20.084121031835025,15.787756352739402
1.1396584857222147,0.8050263576735389,701,0,20.084121031835025,15.787756352739402
1.1477066967761669,0.805018309302357,701,0,20.084121031835025,15.787756352739402
1.1557548273651341,0.805010261011642,701,0,20.084121031835025,15.787756352739402
1.1638028774900593,0.8050022128013928,701,0,20.084121031835025,15.787756352739402
1.171850847151874,0.8049941646716087,701,0,20.084121031835025,15.787756352739402
1.1798987363515003,0.8049861166222886,701,0,20.084121031835025,15.787756352739402
1.1879465450898514,0.8049780686534316,701,0,20.084121031835025,15.787756352739402
1.1959942733678317,0.8049700207650368,701,0,20.084121031835025,15.787756352739402
1.2040419211863378,0.8049619729571033,701,0,20.084121031835025,15.787756352739402
1.2120894885462596,0.80495392522963,701,0,20.084121031835025,15.787756352739402
1.220136975448481,0.8049458775826163,701,0,20.084121031835025,15.787756352739402
1.2281843818938782,0.8049378300160611,701,0,20.084121031835025,15.787756352739402
1.2362317078833231,0.8049297825299637,701,0,20.084121031835025,15.787756352739402
1.244278953417682,0.8049217351243231,701,0,20.084121031835025,15.787756352739402
1.2523261184978163,0.8049136877991383,701,0,20.084121031835025,15.787756352739402
1.2603732031245831,0.8049056405544087,701,0,20.084121031835025,15.787756352739402
1.268420207298836,0.8048975933901333,701,0,20.084121031835025,15.787756352739402
1.276467131021424,0.8048895463063113,701,0,20.084121031835025,15.787756352739402
1.284513974293193,0.8048814993029417,701,0,20.084121031835025,15.787756352739402
1.2925607371149856,0.8048734523800238,701,0,20.084121031835025,15.787756352739402
1.3006074194876414,0.8048654055375568,701,0,20.084121031835025,15.787756352739402
1.3086540214119977,0.8048573587755397,701,0,20.084121031835025,15.787756352739402
1.3167005428888883,0.8048493120939717,701,0,20.084121031835025,15.787756352739402
1.324746983919146,0.8048412654928521,701,0,20.084121031835025,15.787756352739402
1.3327933445036007,0.8048332189721799,701,0,20.084121031835025,15.787756352739402
1.3408396246430794,0.8048251725319542,701,0,20.084121031835025,15.787756352739402
1.3488858243384096,0.8048171261721744,701,0,20.084121031835025,15.787756352739402
1.356931943590415,0.8048090798928396,701,0,20.084121031835025,15.787756352739402
1.3649779823999186,0.8048010336939488,701,0,20.084121031835025,15.787756352739402
1.3730239407677423,0.8047929875755016,701,0,20.084121031835025,15.787756352739402
1.3810698186947057,0.8047849415374966,701,0,20.084121031835025,15.787756352739402
1.3891156161816274,0.8047768955799334,701,0,20.084121031835025,15.787756352739402
1.397161333229326,0.804768849702811,701,0,20.084121031835025,15.787756352739402
1.405206969838618,0.8047608039061287,701,0,20.084121031835025,15.787756352739402
1.4132525260103181,0.8047527581898857,701,0,20.084121031835025,15.787756352739402
1.4212980017452421,0.8047447125540809,701,0,20.084121031835025,15.787756352739402
1.429343397044204,0.8047366669987138,701,0,20.084121031835025,15.787756352739402
1.4373887119080164,0.8047286215237834,701,0,20.084121031835025,15.787756352739402
1.4454339463374928,0.804720576129289,701,0,20.084121031835025,15.787756352739402
1.453479100333444,0.8047125308152298,701,0,20.084121031835025,15.787756352739402
1.4615241738966824,0.8047044855816048,701,0,20.084121031835025,15.787756352739402
1.469569167028018,0.8046964404284134,701,0,20.084121031835025,15.787756352739402
1.4776140797282613,0.8046883953556547,701,0,20.084121031835025,15.787756352739402
1.485658911998222,0.8046803503633279,701,0,20.084121031835025,15.787756352739402
1.4937036638387093,0.8046723054514321,701,0,20.084121031835025,15.787756352739402
1.501748335250532,0.8046642606199667,701,0,20.084121031835025,15.787756352739402
1.5097929262344987,0.8046562158689307,701,0,20.084121031835025,15.787756352739402
1.5178374367914174,0.8046481711983233,701,0,20.084121031835025,15.787756352739402
1.5258818669220964,0.8046401266081439,701,0,20.084121031835025,15.787756352739402
1.533926216627343,0.8046320820983914,701,0,20.084121031835025,15.787756352739402
1.5419704859079644,0.8046240376690652,701,0,20.084121031835025,15.787756352739402
1.5500146747647678,0.8046159933201644,701,0,20.084121031835025,15.787756352739402
1.5580587831985597,0.8046079490516882,701,0,20.084121031835025,15.787756352739402
1.5661028112101467,0.8045999048636359,701,0,20.084121031835025,15.787756352739402
1.574146758800335,0.8045918607560064,701,0,20.084121031835025,15.787756352739402
1.5821906259699314,0.8045838167287993,701,0,20.084121031835025,15.787756352739402
1.5902344127197414,0.8045757727820135,701,0,20.084121031835025,15.787756352739402
1.5982781190505708,0.8045677289156483,701,0,20.084121031835025,15.787756352739402
1.6063217449632259,0.8045596851297029,701,0,20.084121031835025,15.787756352739402
1.6143652904585115,0.8045516414241765,701,0,20.084121031835025,15.787756352739402
1.622408755537233,0.8045435977990681,701,0,20.084121031835025,15.787756352739402
1.6304521402001966,0.8045355542543773,701,0,20.084121031835025,15.787756352739402
1.6384954444482067,0.8045275107901029,701,0,20.084121031835025,15.787756352739402
1.6465386682820684,0.8045194674062442,701,0,20.084121031835025,15.787756352739402
1.6545818117025874,0.8045114241028006,701,0,20.084121031835025,15.787756352739402
1.6626248747105679,0.8045033808797711,701,0,20.084121031835025,15.787756352739402
1.6706678573068148,0.8044953377371549,701,0,20.084121031835025,15.787756352739402
1.6787107594921329,0.8044872946749513,701,0,20.084121031835025,15.787756352739402
1.6867535812673269,0.8044792516931594,701,0,20.084121031835025,15.787756352739402
1.694796322633202,0.8044712087917784,701,0,20.084121031835025,15.787756352739402
1.7028389835905615,0.8044631659708075,701,0,20.084121031835025,15.787756352739402
1.7108815641402115,0.8044551232302458,701,0,20.084121031835025,15.787756352739402
1.7189240642829549,0.8044470805700927,701,0,20.084121031835025,15.787756352739402
1.726966484019597,0.8044390379903474,701,0,20.084121031835025,15.787756352739402
1.7350088233509418,0.8044309954910089,701,0,20.084121031835025,15.787756352739402
1.7430510822777936,0.8044229530720766,701,0,20.084121031835025,15.787756352739402
1.751093260800957,0.8044149107335494,701,0,20.084121031835025,15.787756352739402
1.7591353589212357,0.8044068684754269,701,0,20.084121031835025,15.787756352739402
1.767177376639434,0.8043988262977079,701,0,20.084121031835025,15.787756352739402
1.7752193139563566,0.8043907842003918,701,0,20.084121031835025,15.787756352739402
1.7832611708728068,0.8043827421834778,701,0,20.084121031835025,15.787756352739402
1.7913029473895892,0.8043747002469651,701,0,20.084121031835025,15.787756352739402
1.7993446435075078,0.8043666583908529,701,0,20.084121031835025,15.787756352739402
1.8073862592273666,0.8043586166151403,701,0,20.084121031835025,15.787756352739402
1.8154277945499695,0.8043505749198265,701,0,20.084121031835025,15.787756352739402
1.8234692494761207,0.8043425333049109,701,0,20.084121031835025,15.787756352739402
1.8315106240066237,0.8043344917703925,701,0,20.084121031835025,15.787756352739402
1.839551918142283,0.8043264503162705,701,0,20.084121031835025,15.787756352739402
1.8475931318839023,0.8043184089425441,701,0,20.084121031835025,15.787756352739402
1.8556342652322853,0.8043103676492126,701,0,20.084121031835025,15.787756352739402
1.8636753181882362,0.8043023264362751,701,0,20.084121031835025,15.787756352739402
1.8717162907525584,0.8042942853037309,701,0,20.084121031835025,15.787756352739402
1.879757182926056,0.804286244251579,701,0,20.084121031835025,15.787756352739402
1.8877979947095327,0.8042782032798188,701,0,20.084121031835025,15.787756352739402
1.895838726103793,0.8042701623884494,701,0,20.084121031835025,15.787756352739402
1.9038793771096396,0.80426212157747,701,0,20.084121031835025,15.787756352739402
1.9119199477278772,0.8042540808468799,701,0,20.084121031835025,15.787756352739402
1.919960437959309,0.8042460401966781,701,0,20.084121031835025,15.787756352739402
1.9280008478047383,0.8042379996268639,701,0,20.084121031835025,15.787756352739402
