Vout,Iout,Irradiance,Temperature,MaxVoltage,MaxPower
0.006005942250555284,1.2012,1001,25,21.924501861631295,25.85554225545714
0.01801771569610924,1.2012,1001,25,21.924501861631295,25.85554225545714
0.03002924494532188,1.2011938739377495,1001,25,21.924501861631295,25.85554225545714
0.042040486372597705,1.201181862164304,1001,25,21.924501861631295,25.85554225545714
0.05405142572033523,1.2011698506356674,1001,25,21.924501861631295,25.85554225545714
0.06606207699403109,1.2011578393954412,1001,25,21.924501861631295,25.85554225545714
0.07807245312206854,1.2011458284572947,1001,25,21.924501861631295,25.85554225545714
0.09008256603832608,1.2011338178072222,1001,25,21.924501861631295,25.85554225545714
0.10209242675856327,1.2011218074322951,1001,25,21.924501861631295,25.85554225545714
0.11410204545106217,1.20110979732058,1001,25,21.924501861631295,25.85554225545714
0.12611143150183354,1.2010977874610607,1001,25,21.924501861631295,25.85554225545714
0.13812059357480613,1.2010857778435693,1001,25,21.924501861631295,25.85554225545714
0.1501295396673847,1.2010737684587194,1001,25,21.924501861631295,25.85554225545714
0.16213827716173349,1.2010617592978474,1001,25,21.924501861631295,25.85554225545714
0.1741468128721137,1.2010497503529558,1001,25,21.924501861631295,25.85554225545714
0.186155153088579,1.2010377416166624,1001,25,21.924501861631295,25.85554225545714
0.19816330361730872,1.201025733082153,1001,25,21.924501861631295,25.85554225545714
0.21017126981783793,1.2010137247431374,1001,25,21.924501861631295,25.85554225545714
0.22217905663742316,1.2010017165938094,1001,25,21.924501861631295,25.85554225545714
0.23418666864276333,1.2009897086288097,1001,25,21.924501861631295,25.85554225545714
0.24619411004928096,1.200977700843191,1001,25,21.924501861631295,25.85554225545714
0.25820138474814947,1.2009656932323864,1001,25,21.924501861631295,25.85554225545714
0.2702084963312417,1.2009536857921808,1001,25,21.924501861631295,25.85554225545714
0.2822154481141585,1.2009416785186826,1001,25,21.924501861631295,25.85554225545714
0.29422224315748546,1.2009296714083002,1001,25,21.924501861631295,25.85554225545714
0.3062288842864143,1.200917664457718,1001,25,21.924501861631295,25.85554225545714
0.31823537410885416,1.2009056576638755,1001,25,21.924501861631295,25.85554225545714
0.3302417150321503,1.2008936510239472,1001,25,21.924501861631295,25.85554225545714
0.3422479092785149,1.2008816445353254,1001,25,21.924501861631295,25.85554225545714
0.35425395889927225,1.2008696381956028,1001,25,21.924501861631295,25.85554225545714
0.3662598657880068,1.200857632002557,1001,25,21.924501861631295,25.85554225545714
0.3782656316926999,1.200845625954137,1001,25,21.924501861631295,25.85554225545714
0.3902712582269329,1.2008336200484488,1001,25,21.924501861631295,25.85554225545714
0.402276746880228,1.2008216142837447,1001,25,21.924501861631295,25.85554225545714
0.4142820990275933,1.200809608658411,1001,25,21.924501861631295,25.85554225545714
0.42628731593833413,1.2007976031709584,1001,25,21.924501861631295,25.85554225545714
0.43829239878418574,1.2007855978200115,1001,25,21.924501861631295,25.85554225545714
0.4502973486468205,1.2007735926043015,1001,25,21.924501861631295,25.85554225545714
0.4623021665247778,1.200761587522656,1001,25,21.924501861631295,25.85554225545714
0.4743068533398598,1.200749582573994,1001,25,21.924501861631295,25.85554225545714
0.48631140994303607,1.2007375777573166,1001,25,21.924501861631295,25.85554225545714
0.4983158371198938,1.200725573071702,1001,25,21.924501861631295,25.85554225545714
0.5103201355956682,1.2007135685162993,1001,25,21.924501861631295,25.85554225545714
0.5223243060398854,1.200701564090323,1001,25,21.924501861631295,25.85554225545714
0.5343283490706506,1.2006895597930476,1001,25,21.924501861631295,25.85554225545714
0.5463322652586023,1.2006775556238038,1001,25,21.924501861631295,25.85554225545714
0.5583360551305661,1.2006655515819735,1001,25,21.924501861631295,25.85554225545714
0.5703397191729244,1.200653547666986,1001,25,21.924501861631295,25.85554225545714
0.58234325783473,1.2006415438783142,1001,25,21.924501861631295,25.85554225545714
0.594346671530576,1.2006295402154723,1001,25,21.924501861631295,25.85554225545714
0.6063499606432492,1.200617536678011,1001,25,21.924501861631295,25.85554225545714
0.618353125526176,1.2006055332655154,1001,25,21.924501861631295,25.85554225545714
0.6303561665056822,1.2005935299776032,1001,25,21.924501861631295,25.85554225545714
0.6423590838830776,1.2005815268139206,1001,25,21.924501861631295,25.85554225545714
0.6543618779365814,1.2005695237741414,1001,25,21.924501861631295,25.85554225545714
0.6663645489230983,1.2005575208579642,1001,25,21.924501861631295,25.85554225545714
0.6783670970798583,1.200545518065111,1001,25,21.924501861631295,25.85554225545714
0.6903695226259317,1.200533515395325,1001,25,21.924501861631295,25.85554225545714
0.7023718257636249,1.2005215128483684,1001,25,21.924501861631295,25.85554225545714
0.7143740066797704,1.2005095104240227,1001,25,21.924501861631295,25.85554225545714
0.7263760655469187,1.2004975081220852,1001,25,21.924501861631295,25.85554225545714
0.7383780025244356,1.2004855059423691,1001,25,21.924501861631295,25.85554225545714
0.7503798177595182,1.2004735038847023,1001,25,21.924501861631295,25.85554225545714
0.7623815113881292,1.200461501948925,1001,25,21.924501861631295,25.85554225545714
0.774383083535863,1.20044950013489,1001,25,21.924501861631295,25.85554225545714
0.7863845343187429,1.2004374984424617,1001,25,21.924501861631295,25.85554225545714
0.7983858638439574,1.2004254968715142,1001,25,21.924501861631295,25.85554225545714
0.8103870722105397,1.2004134954219314,1001,25,21.924501861631295,25.85554225545714
0.8223881595099963,1.2004014940936063,1001,25,21.924501861631295,25.85554225545714
0.8343891258268845,1.20038949288644,1001,25,21.924501861631295,25.85554225545714
0.8463899712393484,1.2003774918003407,1001,25,21.924501861631295,25.85554225545714
0.8583906958196118,1.200365490835224,1001,25,21.924501861631295,25.85554225545714
0.8703912996344333,1.2003534899910115,1001,25,21.924501861631295,25.85554225545714
0.882391782745528,1.2003414892676314,1001,25,21.924501861631295,25.85554225545714
0.8943921452099542,1.2003294886650167,1001,25,21.924501861631295,25.85554225545714
0.906392387080473,1.2003174881831056,1001,25,21.924501861631295,25.85554225545714
0.9183925084058776,1.2003054878218413,1001,25,21.924501861631295,25.85554225545714
0.9303925092312996,1.2002934875811708,1001,25,21.924501861631295,25.85554225545714
0.9423923895984903,1.2002814874610455,1001,25,21.924501861631295,25.85554225545714
0.9543921495460805,1.20026948746142,1001,25,21.924501861631295,25.85554225545714
0.9663917891098219,1.2002574875822527,1001,25,21.924501861631295,25.85554225545714
0.9783913083228066,1.2002454878235052,1001,25,21.924501861631295,25.85554225545714
0.9903907072156736,1.2002334881851415,1001,25,21.924501861631295,25.85554225545714
1.0023899858167962,1.2002214886671285,1001,25,21.924501861631295,25.85554225545714
1.0143891441524577,1.2002094892694355,1001,25,21.924501861631295,25.85554225545714
1.0263881822470102,1.2001974899920345,1001,25,21.924501861631295,25.85554225545714
1.0383871001230256,1.2001854908348986,1001,25,21.924501861631295,25.85554225545714
1.05038589780143,1.200173491798004,1001,25,21.924501861631295,25.85554225545714
1.0623845753016332,1.200161492881328,1001,25,21.924501861631295,25.85554225545714
1.0743831326416429,1.2001494940848494,1001,25,21.924501861631295,25.85554225545714
1.0863815698381734,1.200137495408549,1001,25,21.924501861631295,25.85554225545714
1.098379886906746,1.200125496852409,1001,25,21.924501861631295,25.85554225545714
1.1103780838617792,1.2001134984164123,1001,25,21.924501861631295,25.85554225545714
1.1223761607166751,1.2001015001005435,1001,25,21.924501861631295,25.85554225545714
1.1343741174838962,1.2000895019047884,1001,25,21.924501861631295,25.85554225545714
1.1463719541750392,1.2000775038291334,1001,25,21.924501861631295,25.85554225545714
1.1583696708009004,1.2000655058735659,1001,25,21.924501861631295,25.85554225545714
1.1703672673715366,1.2000535080380745,1001,25,21.924501861631295,25.85554225545714
1.1823647438963254,1.2000415103226485,1001,25,21.924501861631295,25.85554225545714
1.1943621003840128,1.2000295127272778,1001,25,21.924501861631295,25.85554225545714
1.2063593368427654,1.2000175152519528,1001,25,21.924501861631295,25.85554225545714
1.2183564532802136,1.2000055178966647,1001,25,21.924501861631295,25.85554225545714
1.2303534497034927,1.1999935206614059,1001,25,21.924501861631295,25.85554225545714
1.2423503261192814,1.199981523546168,1001,25,21.924501861631295,25.85554225545714
1.2543470825338365,1.1999695265509445,1001,25,21.924501861631295,25.85554225545714
1.2663437189530264,1.1999575296757283,1001,25,21.924501861631295,25.85554225545714
1.278340235382359,1.1999455329205135,1001,25,21.924501861631295,25.85554225545714
1.290336631827012,1.199933536285294,1001,25,21.924501861631295,25.85554225545714
1.3023329082918556,1.1999215397700644,1001,25,21.924501861631295,25.85554225545714
1.3143290647814792,1.1999095433748195,1001,25,21.924501861631295,25.85554225545714
1.3263251013002095,1.1998975470995543,1001,25,21.924501861631295,25.85554225545714
1.3383210178521336,1.1998855509442643,1001,25,21.924501861631295,25.85554225545714
1.3503168144411168,1.1998735549089452,1001,25,21.924501861631295,25.85554225545714
1.362312491070818,1.1998615589935928,1001,25,21.924501861631295,25.85554225545714
1.3743080477447078,1.1998495631982034,1001,25,21.924501861631295,25.85554225545714
1.3863034844660818,1.1998375675227733,1001,25,21.924501861631295,25.85554225545714
1.3982988012380737,1.199825571967299,1001,25,21.924501861631295,25.85554225545714
1.410293998063669,1.1998135765317772,1001,25,21.924501861631295,25.85554225545714
1.4222890749457153,1.1998015812162048,1001,25,21.924501861631295,25.85554225545714
1.4342840318869339,1.1997895860205787,1001,25,21.924501861631295,25.85554225545714
1.4462788688899286,1.1997775909448962,1001,25,21.924501861631295,25.85554225545714
1.4582735859571947,1.1997655959891544,1001,25,21.924501861631295,25.85554225545714
1.4702681830911286,1.199753601153351,1001,25,21.924501861631295,25.85554225545714
1.4822626602940336,1.1997416064374833,1001,25,21.924501861631295,25.85554225545714
1.4942570175681291,1.1997296118415488,1001,25,21.924501861631295,25.85554225545714
1.506251254915555,1.1997176173655453,1001,25,21.924501861631295,25.85554225545714
1.5182453723383789,1.1997056230094707,1001,25,21.924501861631295,25.85554225545714
1.5302393698386023,1.1996936287733229,1001,25,21.924501861631295,25.85554225545714
1.5422332474181641,1.1996816346570993,1001,25,21.924501861631295,25.85554225545714
1.554227005078947,1.1996696406607985,1001,25,21.924501861631295,25.85554225545714
1.566220642822781,1.1996576467844184,1001,25,21.924501861631295,25.85554225545714
1.578214160651446,1.1996456530279571,1001,25,21.924501861631295,25.85554225545714
1.5902075585666784,1.1996336593914125,1001,25,21.924501861631295,25.85554225545714
1.6022008365701745,1.1996216658747834,1001,25,21.924501861631295,25.85554225545714
1.6141939946635901,1.1996096724780674,1001,25,21.924501861631295,25.85554225545714
1.626187032848547,1.1995976792012633,1001,25,21.924501861631295,25.85554225545714
1.638179951126634,1.1995856860443692,1001,25,21.924501861631295,25.85554225545714
1.6501727494994096,1.1995736930073835,1001,25,21.924501861631295,25.85554225545714
1.6621654279684057,1.1995617000903047,1001,25,21.924501861631295,25.85554225545714
1.674157986535128,1.1995497072931314,1001,25,21.924501861631295,25.85554225545714
1.686150425201058,1.1995377146158617,1001,25,21.924501861631295,25.85554225545714
1.6981427439676555,1.1995257220584943,1001,25,21.924501861631295,25.85554225545714
1.7101349428363612,1.1995137296210274,1001,25,21.924501861631295,25.85554225545714
1.722127021808597,1.1995017373034602,1001,25,21.924501861631295,25.85554225545714
1.7341189808857662,1.1994897451057907,1001,25,21.924501861631295,25.85554225545714
1.746110820069258,1.1994777530280176,1001,25,21.924501861631295,25.85554225545714
1.758102539360446,1.1994657610701398,1001,25,21.924501861631295,25.85554225545714
1.7700941387606905,1.1994537692321554,1001,25,21.924501861631295,25.85554225545714
1.7820856182713396,1.1994417775140636,1001,25,21.924501861631295,25.85554225545714
1.7940769778937296,1.1994297859158625,1001,25,21.924501861631295,25.85554225545714
1.8060682176291858,1.199417794437551,1001,25,21.924501861631295,25.85554225545714
1.8180593374790253,1.1994058030791277,1001,25,21.924501861631295,25.85554225545714
1.830050337444554,1.1993938118405914,1001,25,21.924501861631295,25.85554225545714
1.8420412175270708,1.1993818207219407,1001,25,21.924501861631295,25.85554225545714
1.8540319777278669,1.1993698297231743,1001,25,21.924501861631295,25.85554225545714
1.866022618048226,1.199357838844291,1001,25,21.924501861631295,25.85554225545714
1.878013138489425,1.1993458480852892,1001,25,21.924501861631295,25.85554225545714
1.8900035390527352,1.1993338574461678,1001,25,21.924501861631295,25.85554225545714
1.901993819739422,1.1993218669269259,1001,25,21.924501861631295,25.85554225545714
1.9139839805507461,1.1993098765275616,1001,25,21.924501861631295,25.85554225545714
1.9259740214879628,1.1992978862480739,1001,25,21.924501861631295,25.85554225545714
1.9379639425523232,1.1992858960884616,1001,25,21.924501861631295,25.85554225545714
1.9499537437450747,1.1992739060487234,1001,25,21.924501861631295,25.85554225545714
1.9619434250674603,1.199261916128858,1001,25,21.924501861631295,25.85554225545714
1.9739329865207205,1.1992499263288643,1001,25,21.924501861631295,25.85554225545714
1.9859224281060917,1.199237936648741,1001,25,21.924501861631295,25.85554225545714
1.9979117498248067,1.1992259470884867,1001,25,21.924501861631295,25.85554225545714
2.0099009516780977,1.1992139576481002,1001,25,21.924501861631295,25.85554225545714
2.021890033667193,1.1992019683275805,1001,25,21.924501861631295,25.85554225545714
2.033878995793318,1.1991899791269263,1001,25,21.924501861631295,25.85554225545714
2.0458678380576973,1.1991779900461361,1001,25,21.924501861631295,25.85554225545714
2.0578565604615533,1.1991660010852088,1001,25,21.924501861631295,25.85554225545714
2.0698451630061054,1.1991540122441433,1001,25,21.924501861631295,25.85554225545714
2.081833645692572,1.1991420235229384,1001,25,21.924501861631295,25.85554225545714
2.093822008522171,1.1991300349215928,1001,25,21.924501861631295,25.85554225545714
2.1058102514961163,1.1991180464401052,1001,25,21.924501861631295,25.85554225545714
2.117798374615624,1.1991060580784745,1001,25,21.924501861631295,25.85554225545714
2.129786377881906,1.1990940698366992,1001,25,21.924501861631295,25.85554225545714
2.1417742612961734,1.1990820817147787,1001,25,21.924501861631295,25.85554225545714
2.153762024859638,1.1990700937127112,1001,25,21.924501861631295,25.85554225545714
2.165749668573509,1.1990581058304957,1001,25,21.924501861631295,25.85554225545714
2.1777371924389954,1.199046118068131,1001,25,21.924501861631295,25.85554225545714
2.189724596457305,1.199034130425616,1001,25,21.924501861631295,25.85554225545714
2.2017118806296456,1.1990221429029493,1001,25,21.924501861631295,25.85554225545714
2.2136990449572234,1.1990101555001298,1001,25,21.924501861631295,25.85554225545714
2.2256860894412442,1.1989981682171562,1001,25,21.924501861631295,25.85554225545714
2.237673014082913,1.1989861810540272,1001,25,21.924501861631295,25.85554225545714
2.249659818883435,1.198974194010742,1001,25,21.924501861631295,25.85554225545714
2.2616465038440148,1.198962207087299,1001,25,21.924501861631295,25.85554225545714
2.273633068965855,1.1989502202836972,1001,25,21.924501861631295,25.85554225545714
2.28561951425016,1.1989382335999352,1001,25,21.924501861631295,25.85554225545714
2.297605839698132,1.1989262470360122,1001,25,21.924501861631295,25.85554225545714
2.309592045310972,1.1989142605919265,1001,25,21.924501861631295,25.85554225545714
2.321578131089886,1.1989022742676771,1001,25,21.924501861631295,25.85554225545714
2.3335640970360725,1.198890288063263,1001,25,21.924501861631295,25.85554225545714
2.345549943150734,1.1988783019786828,1001,25,21.924501861631295,25.85554225545714
2.3575356694350718,1.1988663160139352,1001,25,21.924501861631295,25.85554225545714
2.3695212758902877,1.198854330169019,1001,25,21.924501861631295,25.85554225545714
2.381506762517581,1.1988423444439333,1001,25,21.924501861631295,25.85554225545714
2.3934921293181524,1.1988303588386768,1001,25,21.924501861631295,25.85554225545714
2.405477376293203,1.198818373353248,1001,25,21.924501861631295,25.85554225545714
2.4174625034439328,1.198806387987646,1001,25,21.924501861631295,25.85554225545714
2.429447510771541,1.1987944027418695,1001,25,21.924501861631295,25.85554225545714
2.4414323982772284,1.1987824176159174,1001,25,21.924501861631295,25.85554225545714
2.4534171659621937,1.1987704326097883,1001,25,21.924501861631295,25.85554225545714
2.4654018138276363,1.198758447723481,1001,25,21.924501861631295,25.85554225545714
2.477386341874757,1.1987464629569946,1001,25,21.924501861631295,25.85554225545714
2.4893707501047535,1.1987344783103275,1001,25,21.924501861631295,25.85554225545714
2.5013550385188252,1.198722493783479,1001,25,21.924501861631295,25.85554225545714
2.5133392071181717,1.1987105093764474,1001,25,21.924501861631295,25.85554225545714
2.525323255903992,1.198698525089232,1001,25,21.924501861631295,25.85554225545714
2.5373071848774846,1.198686540921831,1001,25,21.924501861631295,25.85554225545714
2.5492909940398474,1.1986745568742436,1001,25,21.924501861631295,25.85554225545714
2.5612746833922806,1.1986625729464684,1001,25,21.924501861631295,25.85554225545714
2.573258252935981,1.1986505891385044,1001,25,21.924501861631295,25.85554225545714
2.585241702672148,1.1986386054503504,1001,25,21.924501861631295,25.85554225545714
2.5972250326019815,1.1986266218820052,1001,25,21.924501861631295,25.85554225545714
2.609208242726677,1.1986146384334673,1001,25,21.924501861631295,25.85554225545714
2.621191333047435,1.198602655104736,1001,25,21.924501861631295,25.85554225545714
2.633174303565453,1.1985906718958095,1001,25,21.924501861631295,25.85554225545714
2.6451571542819288,1.1985786888066872,1001,25,21.924501861631295,25.85554225545714
2.657139885198061,1.1985667058373675,1001,25,21.924501861631295,25.85554225545714
2.6691224963150484,1.1985547229878493,1001,25,21.924501861631295,25.85554225545714
2.681104987634088,1.1985427402581315,1001,25,21.924501861631295,25.85554225545714
2.693087359156378,1.1985307576482127,1001,25,21.924501861631295,25.85554225545714
2.7050696108831174,1.198518775158092,1001,25,21.924501861631295,25.85554225545714
2.717051742815503,1.198506792787768,1001,25,21.924501861631295,25.85554225545714
2.729033754954734,1.1984948105372395,1001,25,21.924501861631295,25.85554225545714
2.7410156473020058,1.1984828284065052,1001,25,21.924501861631295,25.85554225545714
2.7529974198585188,1.1984708463955642,1001,25,21.924501861631295,25.85554225545714
2.764979072625471,1.1984588645044152,1001,25,21.924501861631295,25.85554225545714
2.776960605604058,1.198446882733057,1001,25,21.924501861631295,25.85554225545714
2.788942018795479,1.198434901081488,1001,25,21.924501861631295,25.85554225545714
2.800923312200932,1.1984229195497078,1001,25,21.924501861631295,25.85554225545714
2.8129044858216132,1.1984109381377144,1001,25,21.924501861631295,25.85554225545714
2.8248855396587222,1.1983989568455071,1001,25,21.924501861631295,25.85554225545714
2.836866473713456,1.1983869756730847,1001,25,21.924501861631295,25.85554225545714
2.8488472879870113,1.1983749946204456,1001,25,21.924501861631295,25.85554225545714
