Vout,Iout,Irradiance,Temperature,MaxVoltage,MaxPower
0.006165540715954655,1.23312,1101,-15,18.992048170871392,23.05923531480479
0.018496508141180673,1.23312,1101,-15,18.992048170871392,23.05923531480479
0.03082722488093183,1.233113711147284,1101,-15,18.992048170871392,23.05923531480479
0.04315764615033106,1.2331013801798587,1101,-15,18.992048170871392,23.05923531480479
0.05548775731290357,1.2330890494637479,1101,-15,18.992048170871392,23.05923531480479
0.06781757274632004,1.2330767190437117,1101,-15,18.992048170871392,23.05923531480479
0.08014710572251511,1.2330643889337822,1101,-15,18.992048170871392,23.05923531480479
0.09247636849249141,1.2330520591195817,1101,-15,18.992048170871392,23.05923531480479
0.10480537236473492,1.2330397295878386,1101,-15,18.992048170871392,23.05923531480479
0.11713412777773378,1.2330274003263015,1101,-15,18.992048170871392,23.05923531480479
0.1294626443669173,1.2330150713236623,1101,-15,18.992048170871392,23.05923531480479
0.1417909310264444,1.2330027425694823,1101,-15,18.992048170871392,23.05923531480479
0.15411899596623835,1.232990414054126,1101,-15,18.992048170871392,23.05923531480479
0.16644684676463273,1.2329780857686994,1101,-15,18.992048170871392,23.05923531480479
0.1787744904169671,1.2329657577049924,1101,-15,18.992048170871392,23.05923531480479
0.1911019333804434,1.2329534298554268,1101,-15,18.992048170871392,23.05923531480479
0.20342918161553097,1.2329411022130072,1101,-15,18.992048170871392,23.05923531480479
0.21575624062418614,1.2329287747712765,1101,-15,18.992048170871392,23.05923531480479
0.22808311548513094,1.2329164475242742,1101,-15,18.992048170871392,23.05923531480479
0.2404098108864173,1.2329041204664983,1101,-15,18.992048170871392,23.05923531480479
0.2527363311554857,1.23289179359287,1101,-15,18.992048170871392,23.05923531480479
0.26506268028691155,1.2328794668987015,1101,-15,18.992048170871392,23.05923531480479
0.277388861968016,1.2328671403796652,1101,-15,18.992048170871392,23.05923531480479
0.2897148796025068,1.2328548140317663,1101,-15,18.992048170871392,23.05923531480479
0.3020407363322998,1.232842487851318,1101,-15,18.992048170871392,23.05923531480479
0.31436643505766154,1.232830161834916,1101,-15,18.992048170871392,23.05923531480479
0.32669197845580267,1.2328178359794189,1101,-15,18.992048170871392,23.05923531480479
0.33901736899803947,1.2328055102819262,1101,-15,18.992048170871392,23.05923531480479
0.3513426089656361,1.2327931847397606,1101,-15,18.992048170871392,23.05923531480479
0.3636677004644276,1.232780859350451,1101,-15,18.992048170871392,23.05923531480479
0.37599264543831734,1.2327685341117158,1101,-15,18.992048170871392,23.05923531480479
0.3883174456817366,1.2327562090214497,1101,-15,18.992048170871392,23.05923531480479
0.40064210285114504,1.2327438840777083,1101,-15,18.992048170871392,23.05923531480479
0.4129666184756465,1.2327315592786974,1101,-15,18.992048170871392,23.05923531480479
0.4252909939667879,1.2327192346227605,1101,-15,18.992048170871392,23.05923531480479
0.43761523062760443,1.2327069101083685,1101,-15,18.992048170871392,23.05923531480479
0.4499393296609682,1.2326945857341098,1101,-15,18.992048170871392,23.05923531480479
0.4622632921772955,1.2326822614986814,1101,-15,18.992048170871392,23.05923531480479
0.4745871192016601,1.2326699374008805,1101,-15,18.992048170871392,23.05923531480479
0.48691081168035966,1.2326576134395966,1101,-15,18.992048170871392,23.05923531480479
0.499234370486977,1.2326452896138045,1101,-15,18.992048170871392,23.05923531480479
0.511557796427975,1.2326329659225583,1101,-15,18.992048170871392,23.05923531480479
0.5238810902478608,1.2326206423649841,1101,-15,18.992048170871392,23.05923531480479
0.5362042526339524,1.2326083189402754,1101,-15,18.992048170871392,23.05923531480479
0.5485272842207799,1.232595995647688,1101,-15,18.992048170871392,23.05923531480479
0.5608501855941457,1.2325836724865342,1101,-15,18.992048170871392,23.05923531480479
0.5731729572948747,1.2325713494561796,1101,-15,18.992048170871392,23.05923531480479
0.585495599822275,1.2325590265560387,1101,-15,18.992048170871392,23.05923531480479
0.5978181136373313,1.2325467037855702,1101,-15,18.992048170871392,23.05923531480479
0.6101404991656543,1.232534381144275,1101,-15,18.992048170871392,23.05923531480479
0.6224627568002027,1.2325220586316923,1101,-15,18.992048170871392,23.05923531480479
0.6347848869037948,1.2325097362473962,1101,-15,18.992048170871392,23.05923531480479
0.6471068898114276,1.2324974139909939,1101,-15,18.992048170871392,23.05923531480479
0.6594287658324182,1.2324850918621226,1101,-15,18.992048170871392,23.05923531480479
0.6717505152523788,1.2324727698604472,1101,-15,18.992048170871392,23.05923531480479
0.6840721383350408,1.2324604479856585,1101,-15,18.992048170871392,23.05923531480479
0.6963936353239389,1.2324481262374707,1101,-15,18.992048170871392,23.05923531480479
0.7087150064439638,1.23243580461562,1101,-15,18.992048170871392,23.05923531480479
0.7210362519027983,1.2324234831198635,1101,-15,18.992048170871392,23.05923531480479
0.7333573718922404,1.2324111617499756,1101,-15,18.992048170871392,23.05923531480479
0.7456783665894248,1.2323988405057489,1101,-15,18.992048170871392,23.05923531480479
0.7579992361579527,1.2323865193869916,1101,-15,18.992048170871392,23.05923531480479
0.7703199807489324,1.2323741983935266,1101,-15,18.992048170871392,23.05923531480479
0.78264060050194,1.23236187752519,1101,-15,18.992048170871392,23.05923531480479
0.7949610955459073,1.2323495567818312,1101,-15,18.992048170871392,23.05923531480479
0.8072814659999404,1.2323372361633103,1101,-15,18.992048170871392,23.05923531480479
0.8196017119740765,1.2323249156694984,1101,-15,18.992048170871392,23.05923531480479
0.8319218335699806,1.2323125953002765,1101,-15,18.992048170871392,23.05923531480479
0.8442418308815904,1.2323002750555343,1101,-15,18.992048170871392,23.05923531480479
0.8565617039957105,1.2322879549351704,1101,-15,18.992048170871392,23.05923531480479
0.8688814529925616,1.2322756349390909,1101,-15,18.992048170871392,23.05923531480479
0.8812010779462863,1.2322633150672089,1101,-15,18.992048170871392,23.05923531480479
0.8935205789254178,1.232250995319444,1101,-15,18.992048170871392,23.05923531480479
0.9058399559933109,1.2322386756957222,1101,-15,18.992048170871392,23.05923531480479
0.9181592092085402,1.232226356195975,1101,-15,18.992048170871392,23.05923531480479
0.9304783386252686,1.232214036820139,1101,-15,18.992048170871392,23.05923531480479
0.9427973442935859,1.2322017175681559,1101,-15,18.992048170871392,23.05923531480479
0.9551162262598232,1.232189398439971,1101,-15,18.992048170871392,23.05923531480479
0.9674349845668412,1.2321770794355347,1101,-15,18.992048170871392,23.05923531480479
0.9797536192542977,1.2321647605548003,1101,-15,18.992048170871392,23.05923531480479
0.9920721303588937,1.2321524417977252,1101,-15,18.992048170871392,23.05923531480479
1.0043905179146013,1.2321401231642697,1101,-15,18.992048170871392,23.05923531480479
1.0167087819528733,1.2321278046543969,1101,-15,18.992048170871392,23.05923531480479
1.0290269225028368,1.232115486268073,1101,-15,18.992048170871392,23.05923531480479
1.0413449395914736,1.2321031680052668,1101,-15,18.992048170871392,23.05923531480479
1.0536628332437836,1.2320908498659486,1101,-15,18.992048170871392,23.05923531480479
1.0659806034829375,1.2320785318500918,1101,-15,18.992048170871392,23.05923531480479
1.0782982503304186,1.2320662139576712,1101,-15,18.992048170871392,23.05923531480479
1.0906157738061515,1.2320538961886638,1101,-15,18.992048170871392,23.05923531480479
1.102933173928623,1.232041578543048,1101,-15,18.992048170871392,23.05923531480479
1.1152504507149914,1.2320292610208041,1101,-15,18.992048170871392,23.05923531480479
1.1275676041811904,1.2320169436219135,1101,-15,18.992048170871392,23.05923531480479
1.1398846343420217,1.2320046263463589,1101,-15,18.992048170871392,23.05923531480479
1.1522015412112436,1.2319923091941245,1101,-15,18.992048170871392,23.05923531480479
1.1645183248016497,1.2319799921651953,1101,-15,18.992048170871392,23.05923531480479
1.1768349851251447,1.2319676752595579,1101,-15,18.992048170871392,23.05923531480479
1.1891515221928117,1.2319553584771992,1101,-15,18.992048170871392,23.05923531480479
1.2014679360149756,1.2319430418181074,1101,-15,18.992048170871392,23.05923531480479
1.2137842266012617,1.2319307252822713,1101,-15,18.992048170871392,23.05923531480479
1.22610039396065,1.2319184088696808,1101,-15,18.992048170871392,23.05923531480479
1.2384164381015235,1.2319060925803262,1101,-15,18.992048170871392,23.05923531480479
1.2507323590317154,1.2318937764141984,1101,-15,18.992048170871392,23.05923531480479
1.26304815675855,1.2318814603712893,1101,-15,18.992048170871392,23.05923531480479
1.2753638312888842,1.2318691444515906,1101,-15,18.992048170871392,23.05923531480479
1.2876793826291408,1.2318568286550955,1101,-15,18.992048170871392,23.05923531480479
1.299994810785344,1.2318445129817968,1101,-15,18.992048170871392,23.05923531480479
1.3123101157631483,1.231832197431688,1101,-15,18.992048170871392,23.05923531480479
1.324625297567869,1.2318198820047634,1101,-15,18.992048170871392,23.05923531480479
1.3369403562045057,1.231807566701017,1101,-15,18.992048170871392,23.05923531480479
1.3492552916777691,1.231795251520444,1101,-15,18.992048170871392,23.05923531480479
1.3615701039921022,1.2317829364630388,1101,-15,18.992048170871392,23.05923531480479
1.3738847931517002,1.2317706215287971,1101,-15,18.992048170871392,23.05923531480479
1.3861993591605302,1.2317583067177142,1101,-15,18.992048170871392,23.05923531480479
1.3985138020223495,1.2317459920297862,1101,-15,18.992048170871392,23.05923531480479
1.4108281217407206,1.2317336774650087,1101,-15,18.992048170871392,23.05923531480479
1.4231423183190255,1.2317213630233785,1101,-15,18.992048170871392,23.05923531480479
1.4354563917604828,1.2317090487048916,1101,-15,18.992048170871392,23.05923531480479
1.4477703420681565,1.2316967345095446,1101,-15,18.992048170871392,23.05923531480479
1.4600841692449704,1.2316844204373347,1101,-15,18.992048170871392,23.05923531480479
1.4723978732937177,1.2316721064882583,1101,-15,18.992048170871392,23.05923531480479
1.4847114542170714,1.231659792662313,1101,-15,18.992048170871392,23.05923531480479
1.4970249120175934,1.2316474789594956,1101,-15,18.992048170871392,23.05923531480479
1.5093382466977436,1.2316351653798037,1101,-15,18.992048170871392,23.05923531480479
1.5216514582598868,1.2316228519232344,1101,-15,18.992048170871392,23.05923531480479
1.5339645467063008,1.2316105385897858,1101,-15,18.992048170871392,23.05923531480479
1.5462775120391827,1.2315982253794548,1101,-15,18.992048170871392,23.05923531480479
1.5585903542606552,1.23158591229224,1101,-15,18.992048170871392,23.05923531480479
1.5709030733727727,1.2315735993281383,1101,-15,18.992048170871392,23.05923531480479
1.5832156693775263,1.2315612864871481,1101,-15,18.992048170871392,23.05923531480479
1.5955281422768475,1.2315489737692673,1101,-15,18.992048170871392,23.05923531480479
1.6078404920726146,1.2315366611744938,1101,-15,18.992048170871392,23.05923531480479
1.620152718766657,1.2315243487028258,1101,-15,18.992048170871392,23.05923531480479
1.6324648223607563,1.2315120363542613,1101,-15,18.992048170871392,23.05923531480479
1.6447768028566527,1.2314997241287984,1101,-15,18.992048170871392,23.05923531480479
1.6570886602560468,1.2314874120264356,1101,-15,18.992048170871392,23.05923531480479
1.6694003945606042,1.2314751000471709,1101,-15,18.992048170871392,23.05923531480479
1.6817120057719548,1.2314627881910027,1101,-15,18.992048170871392,23.05923531480479
1.6940234938916998,1.2314504764579295,1101,-15,18.992048170871392,23.05923531480479
1.7063348589214102,1.2314381648479493,1101,-15,18.992048170871392,23.05923531480479
1.7186461008626328,1.2314258533610607,1101,-15,18.992048170871392,23.05923531480479
1.7309572197168879,1.231413541997262,1101,-15,18.992048170871392,23.05923531480479
1.743268215485675,1.231401230756552,1101,-15,18.992048170871392,23.05923531480479
1.7555790881704725,1.231388919638929,1101,-15,18.992048170871392,23.05923531480479
1.7678898377727397,1.2313766086443911,1101,-15,18.992048170871392,23.05923531480479
1.7802004642939178,1.2313642977729375,1101,-15,18.992048170871392,23.05923531480479
1.7925109677354325,1.2313519870245664,1101,-15,18.992048170871392,23.05923531480479
1.8048213480986943,1.2313396763992763,1101,-15,18.992048170871392,23.05923531480479
1.8171316053850994,1.2313273658970658,1101,-15,18.992048170871392,23.05923531480479
1.8294417395960314,1.2313150555179337,1101,-15,18.992048170871392,23.05923531480479
1.841751750732863,1.2313027452618783,1101,-15,18.992048170871392,23.05923531480479
1.8540616387969533,1.2312904351288985,1101,-15,18.992048170871392,23.05923531480479
1.8663714037896557,1.2312781251189926,1101,-15,18.992048170871392,23.05923531480479
1.8786810457123104,1.2312658152321596,1101,-15,18.992048170871392,23.05923531480479
1.890990564566251,1.2312535054683977,1101,-15,18.992048170871392,23.05923531480479
1.9032999603528025,1.231241195827706,1101,-15,18.992048170871392,23.05923531480479
1.9156092330732828,1.231228886310083,1101,-15,18.992048170871392,23.05923531480479
1.9279183827290032,1.2312165769155277,1101,-15,18.992048170871392,23.05923531480479
1.9402274093212684,1.231204267644038,1101,-15,18.992048170871392,23.05923531480479
1.9525363128513777,1.2311919584956132,1101,-15,18.992048170871392,23.05923531480479
1.9648450933206252,1.231179649470252,1101,-15,18.992048170871392,23.05923531480479
1.9771537507302992,1.2311673405679529,1101,-15,18.992048170871392,23.05923531480479
1.9894622850816848,1.2311550317887143,1101,-15,18.992048170871392,23.05923531480479
2.0017706963760618,1.2311427231325356,1101,-15,18.992048170871392,23.05923531480479
2.0140789846147067,1.231130414599415,1101,-15,18.992048170871392,23.05923531480479
2.026387149798892,1.2311181061893517,1101,-15,18.992048170871392,23.05923531480479
2.038695191929888,1.2311057979023439,1101,-15,18.992048170871392,23.05923531480479
2.051003111008961,1.2310934897383905,1101,-15,18.992048170871392,23.05923531480479
2.063310907037374,1.2310811816974903,1101,-15,18.992048170871392,23.05923531480479
2.0756185800163895,1.231068873779642,1101,-15,18.992048170871392,23.05923531480479
2.087926129947265,1.2310565659848445,1101,-15,18.992048170871392,23.05923531480479
2.1002335568312565,1.2310442583130963,1101,-15,18.992048170871392,23.05923531480479
2.11254086066962,1.231031950764396,1101,-15,18.992048170871392,23.05923531480479
2.124848041463608,1.2310196433387428,1101,-15,18.992048170871392,23.05923531480479
2.1371550992144703,1.2310073360361353,1101,-15,18.992048170871392,23.05923531480479
2.1494620339234576,1.230995028856572,1101,-15,18.992048170871392,23.05923531480479
2.161768845591816,1.230982721800052,1101,-15,18.992048170871392,23.05923531480479
2.1740755342207927,1.2309704148665737,1101,-15,18.992048170871392,23.05923531480479
2.186382099811633,1.230958108056136,1101,-15,18.992048170871392,23.05923531480479
2.19868854236558,1.2309458013687378,1101,-15,18.992048170871392,23.05923531480479
2.2109948618838784,1.2309334948043775,1101,-15,18.992048170871392,23.05923531480479
2.223301058367768,1.2309211883630542,1101,-15,18.992048170871392,23.05923531480479
2.2356071318184916,1.2309088820447667,1101,-15,18.992048170871392,23.05923531480479
2.2479130822372877,1.2308965758495134,1101,-15,18.992048170871392,23.05923531480479
2.260218909625397,1.2308842697772933,1101,-15,18.992048170871392,23.05923531480479
2.272524613984057,1.2308719638281052,1101,-15,18.992048170871392,23.05923531480479
2.284830195314506,1.2308596580019475,1101,-15,18.992048170871392,23.05923531480479
2.297135653617982,1.2308473522988195,1101,-15,18.992048170871392,23.05923531480479
2.30944098889572,1.2308350467187197,1101,-15,18.992048170871392,23.05923531480479
2.321746201148958,1.2308227412616468,1101,-15,18.992048170871392,23.05923531480479
2.3340512903789317,1.2308104359275995,1101,-15,18.992048170871392,23.05923531480479
2.3463562565868745,1.230798130716577,1101,-15,18.992048170871392,23.05923531480479
2.3586610997740225,1.2307858256285775,1101,-15,18.992048170871392,23.05923531480479
2.3709658199416106,1.2307735206636001,1101,-15,18.992048170871392,23.05923531480479
2.3832704170908725,1.2307612158216434,1101,-15,18.992048170871392,23.05923531480479
2.395574891223041,1.2307489111027063,1101,-15,18.992048170871392,23.05923531480479
2.407879242339351,1.2307366065067875,1101,-15,18.992048170871392,23.05923531480479
2.4201834704410357,1.2307243020338858,1101,-15,18.992048170871392,23.05923531480479
2.4324875755293265,1.230711997684,1101,-15,18.992048170871392,23.05923531480479
2.444791557605457,1.2306996934571288,1101,-15,18.992048170871392,23.05923531480479
2.457095416670659,1.2306873893532708,1101,-15,18.992048170871392,23.05923531480479
2.4693991527261656,1.230675085372425,1101,-15,18.992048170871392,23.05923531480479
2.4817027657732083,1.2306627815145903,1101,-15,18.992048170871392,23.05923531480479
2.494006255813019,1.2306504777797653,1101,-15,18.992048170871392,23.05923531480479
2.506309622846829,1.2306381741679486,1101,-15,18.992048170871392,23.05923531480479
2.5186128668758707,1.230625870679139,1101,-15,18.992048170871392,23.05923531480479
2.5309159879013747,1.2306135673133358,1101,-15,18.992048170871392,23.05923531480479
2.5432189859245726,1.230601264070537,1101,-15,18.992048170871392,23.05923531480479
2.5555218609466945,1.2305889609507419,1101,-15,18.992048170871392,23.05923531480479
2.5678246129689732,1.230576657953949,1101,-15,18.992048170871392,23.05923531480479
2.5801272419926375,1.2305643550801573,1101,-15,18.992048170871392,23.05923531480479
2.5924297480189202,1.2305520523293652,1101,-15,18.992048170871392,23.05923531480479
2.6047321310490505,1.2305397497015718,1101,-15,18.992048170871392,23.05923531480479
2.61703439108426,1.2305274471967758,1101,-15,18.992048170871392,23.05923531480479
2.6293365281257786,1.230515144814976,1101,-15,18.992048170871392,23.05923531480479
2.641638542174836,1.230502842556171,1101,-15,18.992048170871392,23.05923531480479
2.6539404332326635,1.2304905404203597,1101,-15,18.992048170871392,23.05923531480479
2.666242201300492,1.230478238407541,1101,-15,18.992048170871392,23.05923531480479
2.678543846379551,1.2304659365177133,1101,-15,18.992048170871392,23.05923531480479
2.6908453684710696,1.2304536347508757,1101,-15,18.992048170871392,23.05923531480479
2.70314676757628,1.2304413331070267,1101,-15,18.992048170871392,23.05923531480479
2.7154480436964104,1.2304290315861655,1101,-15,18.992048170871392,23.05923531480479
2.727749196832692,1.2304167301882905,1101,-15,18.992048170871392,23.05923531480479
2.7400502269863547,1.2304044289134004,1101,-15,18.992048170871392,23.05923531480479
2.7523511341586273,1.2303921277614942,1101,-15,18.992048170871392,23.05923531480479
2.7646519183507405,1.2303798267325707,1101,-15,18.992048170871392,23.05923531480479
2.776952579563925,1.2303675258266287,1101,-15,18.992048170871392,23.05923531480479
2.7892531177994084,1.2303552250436667,1101,-15,18.992048170871392,23.05923531480479
2.8015535330584225,1.2303429243836834,1101,-15,18.992048170871392,23.05923531480479
2.8138538253421963,1.230330623846678,1101,-15,18.992048170871392,23.05923531480479
2.8261539946519587,1.2303183234326491,1101,-15,18.992048170871392,23.05923531480479
2.8384540409889407,1.2303060231415954,1101,-15,18.992048170871392,23.05923531480479
2.850753964354371,1.2302937229735158,1101,-15,18.992048170871392,23.05923531480479
2.863053764749481,1.2302814229284087,1101,-15,18.992048170871392,23.05923531480479
2.875353442175498,1.2302691230062732,1101,-15,18.992048170871392,23.05923531480479
2.8876529966336513,1.2302568232071083,1101,-15,18.992048170871392,23.05923531480479
