Vout,Iout,Irradiance,Temperature,MaxVoltage,MaxPower
0.005270799319237315,1.0541699999999998,901,10,20.822752958026975,21.51756254119093
0.015812300495643916,1.0541699999999998,901,10,20.822752958026975,21.51756254119093
0.026353587365975657,1.0541646237836806,901,10,20.822752958026975,21.51756254119093
0.03689462164452323,1.0541540822825042,901,10,20.822752958026975,21.51756254119093
0.04743539081885262,1.0541435409961715,901,10,20.822752958026975,21.51756254119093
0.05797590718015131,1.0541329999629472,901,10,20.822752958026975,21.51756254119093
0.06851618207433482,1.0541224591948268,901,10,20.822752958026975,21.51756254119093
0.07905622597454395,1.0541119186795196,901,10,20.822752958026975,21.51756254119093
0.08959604854818069,1.0541013784056796,901,10,20.822752958026975,21.51756254119093
0.10013565871890288,1.0540908383628333,901,10,20.822752958026975,21.51756254119093
0.11067506472384936,1.0540802985413138,901,10,20.822752958026975,21.51756254119093
0.12121427416646133,1.054069758932197,901,10,20.822752958026975,21.51756254119093
0.1317532940652405,1.054059219527246,901,10,20.822752958026975,21.51756254119093
0.14229213089875506,1.0540486803188576,901,10,20.822752958026975,21.51756254119093
0.15283079064718286,1.0540381413000126,901,10,20.822752958026975,21.51756254119093
0.16336927883065872,1.054027602464233,901,10,20.822752958026975,21.51756254119093
0.17390760054467055,1.0540170638055386,901,10,20.822752958026975,21.51756254119093
0.18444576049273237,1.054006525318409,901,10,20.822752958026975,21.51756254119093
0.19498376301654363,1.0539959869977489,901,10,20.822752958026975,21.51756254119093
0.2055216121238276,1.0539854488388545,901,10,20.822752958026975,21.51756254119093
0.21605931151402794,1.0539749108373846,901,10,20.822752958026975,21.51756254119093
0.22659686460202846,1.053964372989331,901,10,20.822752958026975,21.51756254119093
0.2371342745400474,1.0539538352909947,901,10,20.822752958026975,21.51756254119093
0.2476715442378474,1.0539432977389604,901,10,20.822752958026975,21.51756254119093
0.2582086763813905,1.0539327603300763,901,10,20.822752958026975,21.51756254119093
0.26874567345005757,1.0539222230614322,901,10,20.822752958026975,21.51756254119093
0.27928253773254297,1.0539116859303423,901,10,20.822752958026975,21.51756254119093
0.28981927134152646,1.0539011489343275,901,10,20.822752958026975,21.51756254119093
0.30035587622721593,1.0538906120710987,901,10,20.822752958026975,21.51756254119093
0.3108923541898481,1.0538800753385433,901,10,20.822752958026975,21.51756254119093
0.3214287068912278,1.0538695387347115,901,10,20.822752958026975,21.51756254119093
0.33196493586537895,1.0538590022578025,901,10,20.822752958026975,21.51756254119093
0.3425010425283763,1.0538484659061547,901,10,20.822752958026975,21.51756254119093
0.3530370281874207,1.0538379296782343,901,10,20.822752958026975,21.51756254119093
0.3635728940492156,1.0538273935726248,901,10,20.822752958026975,21.51756254119093
0.37410864122770016,1.0538168575880194,901,10,20.822752958026975,21.51756254119093
0.3846442707511862,1.0538063217232112,901,10,20.822752958026975,21.51756254119093
0.3951797835689467,1.0537957859770863,901,10,20.822752958026975,21.51756254119093
0.4057151805572968,1.0537852503486165,901,10,20.822752958026975,21.51756254119093
0.41625046252520803,1.0537747148368524,901,10,20.822752958026975,21.51756254119093
0.42678563021948906,1.0537641794409176,901,10,20.822752958026975,21.51756254119093
0.43732068432956916,1.053753644160003,901,10,20.822752958026975,21.51756254119093
0.4478556254919126,1.0537431089933624,901,10,20.822752958026975,21.51756254119093
0.4583904542940943,1.0537325739403058,901,10,20.822752958026975,21.51756254119093
0.46892517127856137,1.0537220390001971,901,10,20.822752958026975,21.51756254119093
0.4794597769461047,1.0537115041724483,901,10,20.822752958026975,21.51756254119093
0.48999427175906507,1.0537009694565174,901,10,20.822752958026975,21.51756254119093
0.5005286561442907,1.0536904348519034,901,10,20.822752958026975,21.51756254119093
0.5110629304958686,1.0536799003581439,901,10,20.822752958026975,21.51756254119093
0.5215970951776453,1.053669365974812,901,10,20.822752958026975,21.51756254119093
0.5321311505255529,1.0536588317015139,901,10,20.822752958026975,21.51756254119093
0.5426650968497578,1.0536482975378856,901,10,20.822752958026975,21.51756254119093
0.5531989344366426,1.0536377634835912,901,10,20.822752958026975,21.51756254119093
0.563732663550636,1.0536272295383202,901,10,20.822752958026975,21.51756254119093
0.5742662844359024,1.0536166957017867,901,10,20.822752958026975,21.51756254119093
0.584799797317901,1.0536061619737263,901,10,20.822752958026975,21.51756254119093
0.595333202404824,1.0535956283538943,901,10,20.822752958026975,21.51756254119093
0.6058664998889266,1.0535850948420658,901,10,20.822752958026975,21.51756254119093
0.6163996899477526,1.053574561438032,901,10,20.822752958026975,21.51756254119093
0.626932772745266,1.0535640281416014,901,10,20.822752958026975,21.51756254119093
0.6374657484328966,1.053553494952596,901,10,20.822752958026975,21.51756254119093
0.6479986171505033,1.0535429618708518,901,10,20.822752958026975,21.51756254119093
0.6585313790272656,1.0535324288962173,901,10,20.822752958026975,21.51756254119093
0.6690640341825043,1.053521896028553,901,10,20.822752958026975,21.51756254119093
0.6795965827264406,1.0535113632677298,901,10,20.822752958026975,21.51756254119093
0.6901290247608965,1.0535008306136278,901,10,20.822752958026975,21.51756254119093
0.7006613603799402,1.0534902980661371,901,10,20.822752958026975,21.51756254119093
0.7111935896704832,1.0534797656251558,901,10,20.822752958026975,21.51756254119093
0.721725712712831,1.0534692332905902,901,10,20.822752958026975,21.51756254119093
0.732257729581191,1.0534587010623528,901,10,20.822752958026975,21.51756254119093
0.7427896403441422,1.0534481689403636,901,10,20.822752958026975,21.51756254119093
0.753321445065068,1.0534376369245486,901,10,20.822752958026975,21.51756254119093
0.7638531438025561,1.0534271050148387,901,10,20.822752958026975,21.51756254119093
0.7743847366107667,1.053416573211171,901,10,20.822752958026975,21.51756254119093
0.7849162235397746,1.0534060415134867,901,10,20.822752958026975,21.51756254119093
0.7954476046358825,1.0533955099217318,901,10,20.822752958026975,21.51756254119093
0.8059788799419111,1.053384978435856,901,10,20.822752958026975,21.51756254119093
0.816510049497468,1.0533744470558128,901,10,20.822752958026975,21.51756254119093
0.8270411133391942,1.05336391578156,901,10,20.822752958026975,21.51756254119093
0.837572071500992,1.0533533846130576,901,10,20.822752958026975,21.51756254119093
0.8481029240142364,1.0533428535502691,901,10,20.822752958026975,21.51756254119093
0.8586336709079695,1.0533323225931603,901,10,20.822752958026975,21.51756254119093
0.8691643122090796,1.0533217917417002,901,10,20.822752958026975,21.51756254119093
0.8796948479424677,1.0533112609958597,901,10,20.822752958026975,21.51756254119093
0.890225278131199,1.0533007303556117,901,10,20.822752958026975,21.51756254119093
0.9007556027966456,1.0532901998209312,901,10,20.822752958026975,21.51756254119093
0.9112858219586161,1.0532796693917956,901,10,20.822752958026975,21.51756254119093
0.9218159356354757,1.0532691390681832,901,10,20.822752958026975,21.51756254119093
0.9323459438442577,1.0532586088500744,901,10,20.822752958026975,21.51756254119093
0.942875846600766,1.0532480787374505,901,10,20.822752958026975,21.51756254119093
0.9534056439196693,1.0532375487302947,901,10,20.822752958026975,21.51756254119093
0.9639353358145886,1.0532270188285913,901,10,20.822752958026975,21.51756254119093
0.9744649222981776,1.0532164890323252,901,10,20.822752958026975,21.51756254119093
0.9849944033821983,1.0532059593414833,901,10,20.822752958026975,21.51756254119093
0.9955237790775876,1.0531954297560528,901,10,20.822752958026975,21.51756254119093
1.0060530493945223,1.0531849002760216,901,10,20.822752958026975,21.51756254119093
1.0165822143424776,1.0531743709013792,901,10,20.822752958026975,21.51756254119093
1.02711127393028,1.0531638416321152,901,10,20.822752958026975,21.51756254119093
1.0376402281661574,1.0531533124682202,901,10,20.822752958026975,21.51756254119093
1.048169077057787,1.0531427834096854,901,10,20.822752958026975,21.51756254119093
1.0586978206123352,1.0531322544565025,901,10,20.822752958026975,21.51756254119093
1.0692264588364984,1.0531217256086638,901,10,20.822752958026975,21.51756254119093
1.0797549917365385,1.053111196866162,901,10,20.822752958026975,21.51756254119093
1.0902834193183166,1.0531006682289907,901,10,20.822752958026975,21.51756254119093
1.100811741587324,1.0530901396971437,901,10,20.822752958026975,21.51756254119093
1.1113399585487105,1.0530796112706147,901,10,20.822752958026975,21.51756254119093
1.1218680702073098,1.0530690829493985,901,10,20.822752958026975,21.51756254119093
1.132396076567666,1.05305855473349,901,10,20.822752958026975,21.51756254119093
1.1429239776340534,1.0530480266228843,901,10,20.822752958026975,21.51756254119093
1.1534517734104985,1.0530374986175768,901,10,20.822752958026975,21.51756254119093
1.1639794639008,1.053026970717563,901,10,20.822752958026975,21.51756254119093
1.174507049108544,1.0530164429228395,901,10,20.822752958026975,21.51756254119093
1.1850345290371225,1.053005915233402,901,10,20.822752958026975,21.51756254119093
1.1955619036897467,1.052995387649247,901,10,20.822752958026975,21.51756254119093
1.206089173069462,1.052984860170371,901,10,20.822752958026975,21.51756254119093
1.2166163371791614,1.0529743327967713,901,10,20.822752958026975,21.51756254119093
1.227143396021594,1.0529638055284443,901,10,20.822752958026975,21.51756254119093
1.2376703495993813,1.0529532783653874,901,10,20.822752958026975,21.51756254119093
1.2481971979150213,1.0529427513075977,901,10,20.822752958026975,21.51756254119093
1.2587239409709023,1.0529322243550727,901,10,20.822752958026975,21.51756254119093
1.2692505787693094,1.0529216975078097,901,10,20.822752958026975,21.51756254119093
1.279777111312433,1.0529111707658065,901,10,20.822752958026975,21.51756254119093
1.2903035386023753,1.0529006441290607,901,10,20.822752958026975,21.51756254119093
1.3008298606411588,1.0528901175975702,901,10,20.822752958026975,21.51756254119093
1.3113560774307302,1.0528795911713331,901,10,20.822752958026975,21.51756254119093
1.3218821889729677,1.052869064850347,901,10,20.822752958026975,21.51756254119093
1.332408195269686,1.0528585386346099,901,10,20.822752958026975,21.51756254119093
1.3429340963226417,1.0528480125241204,901,10,20.822752958026975,21.51756254119093
1.3534598921335368,1.0528374865188763,901,10,20.822752958026975,21.51756254119093
1.3639855827040224,1.052826960618876,901,10,20.822752958026975,21.51756254119093
1.3745111680357045,1.0528164348241176,901,10,20.822752958026975,21.51756254119093
1.3850366481301462,1.0528059091345998,901,10,20.822752958026975,21.51756254119093
1.3955620229888717,1.0527953835503205,901,10,20.822752958026975,21.51756254119093
1.4060872926133685,1.0527848580712789,901,10,20.822752958026975,21.51756254119093
1.41661245700509,1.0527743326974726,901,10,20.822752958026975,21.51756254119093
1.4271375161654598,1.0527638074289007,901,10,20.822752958026975,21.51756254119093
1.4376624700958713,1.0527532822655614,901,10,20.822752958026975,21.51756254119093
1.4481873187976937,1.0527427572074537,901,10,20.822752958026975,21.51756254119093
1.4587120622722707,1.0527322322545758,901,10,20.822752958026975,21.51756254119093
1.4692367005209233,1.0527217074069264,901,10,20.822752958026975,21.51756254119093
1.4797612335449515,1.0527111826645044,901,10,20.822752958026975,21.51756254119093
1.4902856613456383,1.0527006580273082,901,10,20.822752958026975,21.51756254119093
1.500809983924246,1.0526901334953367,901,10,20.822752958026975,21.51756254119093
1.5113342012820228,1.0526796090685884,901,10,20.822752958026975,21.51756254119093
1.521858313420201,1.0526690847470623,901,10,20.822752958026975,21.51756254119093
1.5323823203399995,1.0526585605307568,901,10,20.822752958026975,21.51756254119093
1.5429062220426233,1.052648036419671,901,10,20.822752958026975,21.51756254119093
1.5534300185292664,1.0526375124138039,901,10,20.822752958026975,21.51756254119093
1.5639537098011118,1.0526269885131536,901,10,20.822752958026975,21.51756254119093
1.5744772958593325,1.0526164647177194,901,10,20.822752958026975,21.51756254119093
1.5850007767050922,1.0526059410275,901,10,20.822752958026975,21.51756254119093
1.5955241523395447,1.052595417442494,901,10,20.822752958026975,21.51756254119093
1.6060474227638388,1.0525848939627007,901,10,20.822752958026975,21.51756254119093
1.6165705879791128,1.0525743705881185,901,10,20.822752958026975,21.51756254119093
1.6270936479864997,1.0525638473187466,901,10,20.822752958026975,21.51756254119093
1.6376166027871266,1.0525533241545837,901,10,20.822752958026975,21.51756254119093
1.648139452382114,1.0525428010956286,901,10,20.822752958026975,21.51756254119093
1.6586621967725779,1.0525322781418802,901,10,20.822752958026975,21.51756254119093
1.6691848359596282,1.0525217552933377,901,10,20.822752958026975,21.51756254119093
1.6797073699443712,1.0525112325499995,901,10,20.822752958026975,21.51756254119093
1.6902297987279093,1.0525007099118646,901,10,20.822752958026975,21.51756254119093
1.7007521223113398,1.0524901873789323,901,10,20.822752958026975,21.51756254119093
1.7112743406957578,1.052479664951201,901,10,20.822752958026975,21.51756254119093
1.7217964538822539,1.0524691426286699,901,10,20.822752958026975,21.51756254119093
1.7323184618719165,1.0524586204113375,901,10,20.822752958026975,21.51756254119093
1.7428403646658313,1.0524480982992033,901,10,20.822752958026975,21.51756254119093
1.7533621622650806,1.052437576292266,901,10,20.822752958026975,21.51756254119093
1.7638838546707443,1.052427054390524,901,10,20.822752958026975,21.51756254119093
1.7744054418839015,1.0524165325939772,901,10,20.822752958026975,21.51756254119093
1.784926923905628,1.0524060109026236,901,10,20.822752958026975,21.51756254119093
1.795448300736997,1.0523954893164627,901,10,20.822752958026975,21.51756254119093
1.805969572379082,1.052384967835493,901,10,20.822752958026975,21.51756254119093
1.8164907388329534,1.052374446459714,901,10,20.822752958026975,21.51756254119093
1.8270118000996804,1.052363925189124,901,10,20.822752958026975,21.51756254119093
1.837532756180332,1.0523534040237221,901,10,20.822752958026975,21.51756254119093
1.8480536070759734,1.0523428829635075,901,10,20.822752958026975,21.51756254119093
1.8585743527876712,1.052332362008479,901,10,20.822752958026975,21.51756254119093
1.8690949933164889,1.0523218411586355,901,10,20.822752958026975,21.51756254119093
1.8796155286634908,1.052311320413976,901,10,20.822752958026975,21.51756254119093
1.8901359588297388,1.0523007997744993,901,10,20.822752958026975,21.51756254119093
1.9006562838162953,1.0522902792402042,901,10,20.822752958026975,21.51756254119093
1.9111765036242203,1.0522797588110901,901,10,20.822752958026975,21.51756254119093
1.921696618254575,1.0522692384871557,901,10,20.822752958026975,21.51756254119093
1.9322166277084178,1.0522587182683998,901,10,20.822752958026975,21.51756254119093
1.9427365319868082,1.0522481981548215,901,10,20.822752958026975,21.51756254119093
1.9532563310908044,1.0522376781464196,901,10,20.822752958026975,21.51756254119093
1.9637760250214638,1.0522271582431932,901,10,20.822752958026975,21.51756254119093
1.9742956137798442,1.0522166384451412,901,10,20.822752958026975,21.51756254119093
1.984815097367002,1.0522061187522624,901,10,20.822752958026975,21.51756254119093
1.9953344757839937,1.0521955991645562,901,10,20.822752958026975,21.51756254119093
2.0058537490318753,1.052185079682021,901,10,20.822752958026975,21.51756254119093
2.016372917111702,1.052174560304656,901,10,20.822752958026975,21.51756254119093
2.02689198002453,1.05216404103246,901,10,20.822752958026975,21.51756254119093
2.0374109377714134,1.052153521865432,901,10,20.822752958026975,21.51756254119093
2.047929790353408,1.0521430028035712,901,10,20.822752958026975,21.51756254119093
2.058448537771568,1.0521324838468762,901,10,20.822752958026975,21.51756254119093
2.0689671800269465,1.0521219649953462,901,10,20.822752958026975,21.51756254119093
2.079485717120598,1.0521114462489798,901,10,20.822752958026975,21.51756254119093
2.090004149053577,1.0521009276077764,901,10,20.822752958026975,21.51756254119093
2.100522475826936,1.0520904090717347,901,10,20.822752958026975,21.51756254119093
2.111040697441729,1.0520798906408535,901,10,20.822752958026975,21.51756254119093
2.121558813899009,1.052069372315132,901,10,20.822752958026975,21.51756254119093
2.1320768251998286,1.052058854094569,901,10,20.822752958026975,21.51756254119093
2.142594731345242,1.0520483359791637,901,10,20.822752958026975,21.51756254119093
2.153112532336301,1.0520378179689145,901,10,20.822752958026975,21.51756254119093
2.163630228174058,1.052027300063821,901,10,20.822752958026975,21.51756254119093
2.174147818859566,1.0520167822638817,901,10,20.822752958026975,21.51756254119093
2.1846653043938784,1.0520062645690957,901,10,20.822752958026975,21.51756254119093
2.195182684778046,1.051995746979462,901,10,20.822752958026975,21.51756254119093
2.205699960013122,1.0519852294949794,901,10,20.822752958026975,21.51756254119093
2.216217130100158,1.051974712115647,901,10,20.822752958026975,21.51756254119093
2.226734195040206,1.0519641948414638,901,10,20.822752958026975,21.51756254119093
2.237251154834319,1.0519536776724285,901,10,20.822752958026975,21.51756254119093
2.247768009483548,1.05194316060854,901,10,20.822752958026975,21.51756254119093
2.258284758988945,1.0519326436497978,901,10,20.822752958026975,21.51756254119093
2.2688014033515627,1.0519221267962002,901,10,20.822752958026975,21.51756254119093
2.279317942572451,1.0519116100477466,901,10,20.822752958026975,21.51756254119093
2.289834376652663,1.0519010934044355,901,10,20.822752958026975,21.51756254119093
2.3003507055932504,1.0518905768662663,901,10,20.822752958026975,21.51756254119093
2.310866929395264,1.051880060433238,901,10,20.822752958026975,21.51756254119093
2.3213830480597557,1.051869544105349,901,10,20.822752958026975,21.51756254119093
2.3318990615877775,1.0518590278825986,901,10,20.822752958026975,21.51756254119093
2.3424149699803807,1.0518485117649856,901,10,20.822752958026975,21.51756254119093
2.3529307732386155,1.0518379957525092,901,10,20.822752958026975,21.51756254119093
2.3634464713635346,1.0518274798451683,901,10,20.822752958026975,21.51756254119093
2.3739620643561894,1.0518169640429615,901,10,20.822752958026975,21.51756254119093
2.3844775522176302,1.0518064483458882,901,10,20.822752958026975,21.51756254119093
2.3949929349489087,1.0517959327539472,901,10,20.822752958026975,21.51756254119093
2.4055082125510774,1.0517854172671373,901,10,20.822752958026975,21.51756254119093
2.4160233850251855,1.0517749018854576,901,10,20.822752958026975,21.51756254119093
2.426538452372286,1.051764386608907,901,10,20.822752958026975,21.51756254119093
2.4370534145934295,1.0517538714374846,901,10,20.822752958026975,21.51756254119093
2.4475682716896667,1.0517433563711889,901,10,20.822752958026975,21.51756254119093
2.458083023662049,1.0517328414100193,901,10,20.822752958026975,21.51756254119093
2.468597670511628,1.0517223265539746,901,10,20.822752958026975,21.51756254119093
2.4791122122394538,1.0517118118030537,901,10,20.822752958026975,21.51756254119093
2.489626648846578,1.0517012971572555,901,10,20.822752958026975,21.51756254119093
2.5001409803340526,1.0516907826165791,901,10,20.822752958026975,21.51756254119093
2.5106552067029275,1.0516802681810236,901,10,20.822752958026975,21.51756254119093
2.521169327954254,1.0516697538505875,901,10,20.822752958026975,21.51756254119093
2.531683344089083,1.0516592396252702,901,10,20.822752958026975,21.51756254119093
